3596
4000.36533379555
650.420452594757
1
2
2
0.0291031681801637
0.0377123099819956
0.0336346339950141
0.037409029207015
0.0313287715382077
0.0340231177872658
0.0199037617539967
0.0351026809325449
0.0352491705470412
0.0384728220326953
0.0248930326505312
0.0342528788210153
0.0247877722362257
0.0356975345873843
0.0318121934756929
0.0309185587454991
0.0336073464937378
0.0342708160235174
0.0325174868729831
0.0290393597606366
0.0391405231910281
0.0297465866000645
0.0282689742341182
0.0352105084242864
0.0305629248669442
0.0278941826047553
0.027529104824011
0.0305247277444202
0.0323829019510029
0.0338569797902776
0.0308244583982215
0.03299655143184
0.0308737276246874
0.0271059314611507
0.027056574299389
0.0314682618196987
0.0243150109226955
0.0295557778221691
0.0284525642058318
0.0405183160492456
0.0307519735786574
0.0372833250209577
0.0259901272453043
0.0383220139106928
0.0338305652469602
0.0298512954409306
0.027045407586307
0.0354743246345914
0.0264778579903268
0.0289787877651184
0.0271242206283826
0.0270384944052593
0.0368727814154993
0.0311092115715945
0.0277174232137327
0.02995494335371
0.0291573914655971
0.0274536090780568
0.0400227025988892
0.0267453563710021
0.033362005366601
0.0265599375729139
0.0278767969033322
0.03863929214493
0.0291481823310642
0.0268496008439578
0.0256084393906166
0.0269130604024978
0.0217002356792803
0.0380911117294449
0.025360636033376
0.0354957268591397
0.0253798341801846
0.0323370855899825
0.0237259751994304
0.0267939883376123
0.0216539576855075
0.0318930739826453
0.0197433260884899
0.0332492260041
0.0176536779664387
0.0352808627066136
0.0243730997405768
0.0241039349515047
0.0282859882713464
0.032835708192848
0.0214660151047822
0.0290000270732866
0.0141001807543387
0.035838991607023
0.0193636382095569
0.0323352345898386
0.0305142607157828
0.0288107152362189
0.0208164212885455
0.0321966285371918
0.0141050082718694
0.0356781834916971
0.020601213602906
0.0271319933488162
0.0220284562545198
0.0382673361373361
0.0216954409710208
0.0208348271462768
0.0422734262601104
0.0193702095644802
0.0379893233823814
0.0195777820435246
0.020776339778539
0.0206181740694677
0.0167233289735014
0.0217111472053536
0.0260165912714547
0.0312696428115837
0.0226677166331952
0.0442646881173029
0.0199509942286507
0.0325006364272375
0.0123735926915791
0.038535216823838
0.0218296773040684
0.0568271020453136
0.0184109081965971
0.0337459389831895
0.0182075494629861
0.0228633442550334
0.0192640391969116
0.034410770050967
0.0131109256071628
0.0327078744415223
0.0122892105847392
0.0257614495699166
0.0208004504393434
0.0326435761974364
0.0224214502185185
0.0338045568034067
0.0253284662937747
0.0300843296907892
0.0255946329403836
0.0111900598290633
0.0221190077087222
0.0216227921639532
0.0139417356084399
0.0308553434855627
0.0202673818464441
0.0182980008882047
0.0182097807117025
0.0260440982144497
0.0163998583245807
0.0276022995122319
0.0227978040844307
0.0253159314945538
0.0211624480654494
0.0224964017443173
0.0208717673914466
0.0772465942610121
-0.0175871923381181
0.0353252700231804
0.023540077942138
0.0204437711854643
0.0257298230759739
0.0159791330539689
0.0293643219514532
0.0213272819366579
0.0279551802219538
0.0227656419776516
0.0242405212025753
0.0295871221744361
0.0251269301278978
0.0248804285935838
0.0190536599918804
0.0192782810303301
0.0220929744453207
0.0414285419403461
0.00583482175075965
0.0311438378607828
0.021523780143002
0.0290356378314681
0.0120911641484617
0.0302220126295205
0.0161874787217553
0.0206463204370438
0.015102366703258
0.0262672594091899
0.0302580400231738
0.0272187558924477
0.00924259068931093
0.0259662386606046
0.0182734641906416
0.027648246304088
0.0261188157370232
0.0393849563773139
0.0147081219083161
0.0271395723524207
0.0236351901656343
0.0212706789851661
0.0378924233674447
0.0117451782228351
0.0269723500945916
0.0232833529447576
0.0200889844915786
0.0252235521717764
0.0218663431534641
0.0347746155141221
0.0258934702672834
0.0263016953312385
0.0304161674315776
0.0210962701249141
0.0179188338635663
0.0208404935281847
0.0206720263866097
0.0206076689155386
0.0376892008397652
0.0206298582830194
0.0218210456763382
0.0197419236751933
0.0253382016252398
0.0248583544188979
0.0105891288062255
0.0244980327516358
0.0218130447418732
0.0249579561762176
0.026130424219265
0.0246246556087853
0.0321063134166298
0.030437914693953
0.0216499181327081
0.0212582522714209
0.0198299329161983
0.0260729395670268
0.0304767985947318
0.0235156093774619
0.0184358585999602
0.0254032457440561
0.0161375277581
0.032113406910561
0.0155898172715079
0.0242487107651234
0.0319389984881323
0.0322840680512413
0.0241218713009506
0.0245251498001303
0.0246466135360028
0.0328039765391886
0.0176811750375643
0.0214658263430279
0.0351306604809049
0.0194390717230714
0.030298357973518
0.0215137707536002
0.0355103250522429
0.0230645832635743
0.0284726618610505
0.0180488350752926
0.0342074050386544
0.02268399787366
0.0289562015312193
0.0233106774836653
0.0252359791386521
0.0254775070585886
0.0385333677353742
0.0281647819829216
0.0308604861056707
0.0287878954144245
0.0266166752087803
0.0437223253280786
0.0177244043528814
0.0278756429261417
0.0336478927194728
0.0236012032216023
0.0303817514004182
0.0268354685376031
0.0296532750675769
0.0588515379168394
0.0213953628011995
0.0274128500879496
0.0261708185666814
0.0359727786320484
0.0162915358587904
0.0419201557624778
0.0244259426434428
0.0402785051481452
0.0232445283325096
0.0226542352422982
0.0388097349660763
0.0144363641843865
0.0411407338782546
0.0134007098894648
0.0278490367158711
0.0253430884212218
0.0324283044898773
0.0366086109307775
0.0416236582803854
0.0218777330546273
0.0366820946622366
0.0312725436859904
0.0366025864365935
0.0429673474999349
0.0299674825803751
0.0319549285505424
0.0224995875751938
0.0391204779949161
0.0376214964307571
0.0404702771843655
0.0325086621272212
0.042930789054141
0.0300404151270503
0.0408652221032306
0.0387597561848878
0.0262962317242959
0.0342878597492036
0.0421629805271309
0.0371201419879147
0.0383584069609386
0.0318601725432273
0.0357454850744056
0.0296834645002722
0.0370579745863736
0.0353214708357686
0.0566138805393598
0.0334053957962162
0.0448960129003243
0.0391235020320654
0.0463259263329904
0.0371195947768812
0.0465461228943349
0.0434023083594985
0.0490284584205256
0.0465440323578206
0.0449580284551916
0.0544134258920363
0.0487920220807359
0.0401107799728772
0.0732998182407234
0.0340682704484741
0.0480990861186562
0.0397965214689604
0.0498195250540345
0.047898177554935
0.0555724529074001
0.0518099127243054
0.0518014843403252
0.0502766033102477
0.0593771712509264
0.0571382199535569
0.0615747579375681
0.0639105455815602
0.0722397822269908
0.0746783711144305
0.0612195537022299
0.0661634869982492
0.0557807510245543
0.0757477565494588
0.0551856362096323
0.0736954617028173
0.0703799331091122
0.0642978518927073
0.075260386441543
0.0658892139037865
0.0825617936603975
0.0721256657870109
0.0888650854020504
0.0688204160209222
0.0863334235178025
0.0770526925822646
0.095521000352552
0.0834044628780885
0.0999590834077721
0.0861995627269242
0.0895851448985598
0.0925741285633695
0.0978933262151876
0.0886077723883221
0.116020058803904
0.0914194690672437
0.129071011256646
0.100836564658261
0.120501078884804
0.10760104197607
0.0986087130307312
0.112349356182205
0.112308032498482
0.114016645307374
0.114674645033044
0.121354322685953
0.125477048347966
0.120674072733193
0.133822904263857
0.136957618058082
0.128956157134554
0.134896220266367
0.137102250052075
0.143645722722912
0.13969226349721
0.139886961131868
0.14300926311849
0.169262678173577
0.154271829154545
0.148097637075727
0.151794776289178
0.153499884950542
0.150617449103271
0.165121798930589
0.168744736641359
0.160741797735905
0.170935973749695
0.177114662044573
0.190974806002018
0.16562604134852
0.184388559277362
0.17524980521644
0.186162409117095
0.206024412396985
0.197235387387791
0.198020813465906
0.188923404290922
0.192912476640142
0.212440379383679
0.213567984134466
0.210183263550615
0.20743692327843
0.220530519155016
0.203089376272206
0.232952397601816
0.216174780454763
0.23479345097839
0.214223239748178
0.242618871066462
0.232011976387038
0.246925980968603
0.244011399398087
0.241751980712189
0.247502054219899
0.272864327855843
0.243743593444001
0.260887846206747
0.265436799977716
0.264046985398738
0.264539362339251
0.2696407464312
0.295784591956019
0.292048638029521
0.28916147235811
0.30432447297492
0.272445293333869
0.286590419660106
0.293287102631174
0.311091164332347
0.308423953942502
0.335014589013461
0.315685204527462
0.325613404480904
0.317363587790409
0.340732835164184
0.314407249553861
0.325576261718696
0.340071025961339
0.339920205462744
0.334229820074169
0.347177075358808
0.353643066587648
0.356740058607777
0.359269533091908
0.37619820111967
0.372398646225047
0.402845536113655
0.371805323150148
0.372183589919931
0.361185420398282
0.387098671096981
0.389120459747528
0.410586952486363
0.390116094977989
0.432297623477365
0.405192275357928
0.434393061414073
0.421024173758635
0.427210730373223
0.43016670461927
0.442249043671074
0.444895767219091
0.464262213267655
0.434649580894984
0.439277772700956
0.450082458992848
0.477363682452598
0.43871661234281
0.470620771294179
0.459854308097352
0.479531788555781
0.482707590651974
0.510938266468461
0.482935492382826
0.507536129158551
0.487183480684253
0.504259707424095
0.501708571416073
0.536394374416533
0.530670686812032
0.542361094994601
0.533955534542051
0.560717218271956
0.556743715041156
0.553417469888351
0.528127208509627
0.56791266603209
0.545893564120571
0.585406560101288
0.555220177283045
0.567766970742061
0.542555129207459
0.593470744137045
0.590057882908412
0.575526392470852
0.574319338851869
0.608024845356448
0.602358106597594
0.624117865914271
0.599646552175051
0.632559827885062
0.617861401490481
0.6224399003386
0.64186204219308
0.679743642136295
0.628056001093126
0.645035406629511
0.656360457367815
0.669917982297143
0.665863625454333
0.685344721277888
0.670087534761311
0.715470788624694
0.677076382444414
0.683902927402028
0.660374399431317
0.682853095881681
0.702950350445712
0.729310517238254
0.671438549027222
0.710189220696178
0.690390193205035
0.719414847819646
0.74876196199936
0.748805855097917
0.739785621104007
0.756973201571043
0.73370393243547
0.778837354829451
0.745782502823344
0.7672456815766
0.785176546581425
0.820355701153405
0.787730269687693
0.809942341483338
0.781452759041292
0.771152751378592
0.770431150283166
0.833354891795434
0.802411858681447
0.820773251465052
0.800424066164984
0.834515891661543
0.808797595039402
0.880299856192765
0.858162453596895
0.84316780913956
0.874674209088781
0.909201747482369
0.813215428370159
0.876666206316972
0.874072025211935
0.925758230548255
0.915303040446836
0.907237232839823
0.945831232495006
0.922396750680749
0.889316563582579
0.915861085511367
0.871797490991104
0.915218934806753
0.948691563816065
0.948383878844143
0.908969897704148
0.99375425038048
0.915806338765883
0.925980999623
0.944263998844143
0.934387163096864
0.916649302391588
0.99547292683077
0.929589488161113
0.982494684373194
1.00692018678541
0.973031228758018
0.966595314953109
1.00267850045028
0.992671876824579
1.02484051431346
1.01963609467993
1.03182892820072
1.03549335911185
1.04265003938404
0.944508523155095
1.01491334079036
1.04244159822142
1.07434347382454
1.02017282335338
1.07095291882377
1.04070151488338
1.08609476627956
1.10073120309485
1.12234703355628
1.03461435353794
1.10752363233375
1.13210903448287
1.13627283025605
1.08722947991319
1.12689814817303
1.10505713027349
1.10042625307295
1.11108747757584
1.15396184409056
1.1014599198665
1.12073365149157
1.15247415518548
1.18036030277505
1.0552320306046
1.08344560299351
1.1708140484003
1.14307089700187
1.10794769857921
1.12399014095725
1.06942815249953
1.13337912813006
1.17081646775768
1.18995595010142
1.13798906448185
1.13033001085712
1.11377796015195
1.23931416226873
1.11346473456988
1.14405290845414
1.13736794480495
1.13595557308067
1.22703193893795
1.24746303110491
1.30420215682358
1.24023586628133
1.14523251656461
1.23955557429241
1.20390917778056
1.23471765131402
1.15605859048871
1.12910927453394
1.18345464928361
1.23380813477546
1.14649878605425
1.18477976680491
1.18208389300851
1.26676421184322
1.29406706589466
1.27968598830579
1.28287394505925
1.33797371807569
1.25030013976815
1.25534022363456
1.22806516264292
1.26741918308729
1.24543628043688
1.28914856994505
1.33212741173637
1.3062114664679
1.23750940926198
1.2198462051995
1.22319321367094
1.28674762614587
1.26146397034365
1.29845834342366
1.19155288892074
1.23390544126873
1.37330196379263
1.25475850304715
1.24194393319035
1.33339391010008
1.33450926933116
1.33021531686603
1.26542153399967
1.28849468130461
1.39236935288049
1.30413086900855
1.24620652282596
1.38687466911864
1.39488231333668
1.26809618428086
1.2655522727131
1.33827720107291
1.28622297052935
1.38018976668957
1.3619264132318
1.31126376872684
1.30099285417082
1.23795301131529
1.20886843137343
1.29469886444339
1.25034803708633
1.2965804122027
1.35014727802479
1.35988109109057
1.32077155483341
1.30049735738934
1.26648844559342
1.31202262903669
1.3533715993287
1.29960179271147
1.25814704135459
1.2963430351669
1.32857571016612
1.41186982173158
1.30391619013292
1.25508986969607
1.4026803155573
1.38836474632509
1.37425434681868
1.32772974761297
1.3474204478459
1.38625859104642
1.26939082519537
1.34097554923766
1.41192176520593
1.30016118843746
1.31718728160896
1.35269125120978
1.34680416945182
1.37579274270582
1.32249963732222
1.319004542319
1.31674985874566
1.32265722193174
1.34009214773586
1.33498530419984
1.26511349687279
1.26998395463658
1.40533100691471
1.41183942457178
1.39454979392978
1.38850535005605
1.37118981177163
1.35153312108096
1.36288687536011
1.3607921538655
1.35473145761503
1.3441763817457
1.34179632567792
1.43313672424602
1.35564838003173
1.27015107573862
1.25339234605174
1.31136110747703
1.38231255363401
1.39138664036806
1.33098274557202
1.36856988156614
1.36896025782723
1.28873857502366
1.40007698718778
1.35672791017751
1.27392585140261
1.36531748241814
1.38261154940102
1.39960080413825
1.31090206246628
1.29755213623055
1.43426584082535
1.27643108408253
1.26359735047719
1.34763277573001
1.35263571865843
1.34367490692636
1.28216716127188
1.34916281405056
1.3320138096702
1.25657269346679
1.25614950414177
1.22190911312596
1.29378628068739
1.35702684639235
1.43835164855862
1.38296550811753
1.28680637652324
1.34226558218202
1.26944811140649
1.2098439877173
1.2720179519839
1.28375239502338
1.37888930553824
1.35165121952717
1.31528121458059
1.27647836899271
1.29733468146972
1.34117277579321
1.28268615637354
1.25804797906571
1.35952229075915
1.38628618656986
1.33700787020938
1.26617455886631
1.26301136765725
1.28960569540232
1.28952055653316
1.22433438151535
1.22811710475532
1.26543844698825
1.29196371293036
1.30383999312244
1.23128472752191
1.25735234071858
1.27171433172531
1.21107093190914
1.20750854529138
1.23884456177296
1.2504903970623
1.17048606699821
1.2034996840103
1.24524471882713
1.24791198685133
1.26735356540444
1.32309973910566
1.22031830187406
1.17825784330677
1.15212975006943
1.18117822513198
1.19633193366909
1.22129623477161
1.20513125202051
1.17079007780246
1.25822145769451
1.18979815494921
1.19975634310564
1.19424083083086
1.16289772602195
1.24130031803223
1.17162527388401
1.16913032595707
1.14646685824298
1.11881296968388
1.17567280308575
1.17494268040337
1.15527111956282
1.13432968728174
1.10446818904431
1.1341161894303
1.13504141078768
1.15923233875786
1.11829255061015
1.18602953206397
1.15402502905915
1.16082956889699
1.15350898984127
1.13329989683201
1.14576625075315
1.14572599981185
1.09073635960062
1.11780184284292
1.10103816025065
1.08331739036803
1.09190495641681
1.09536214778004
1.09034955505961
1.06598711714792
1.07188880325934
1.0746473839184
1.02855495591043
1.05836735212777
1.07836111993292
1.06909885934593
1.05527987561514
1.05753579024963
1.03858717627628
1.037809871345
1.04268622097836
1.07095563184837
1.04645882795529
1.06693972929579
1.03190542244062
1.03359149496704
1.00646441800724
0.984448409609644
0.998355905331083
1.01687083858832
0.995003003265718
1.01128443461768
1.00731133394412
0.987215765651426
0.984056124064333
1.01202965133295
0.993811917528587
0.985770880963649
0.983239706145469
0.960562284167368
0.968221117467768
0.954405891801402
0.933673035334596
0.938596457199856
0.890685105295459
0.913614397384747
0.945632414287002
0.918940929352848
0.890388563338659
0.918526100562113
0.930361757099455
0.936386887142071
0.941734345931463
0.909361507905281
0.904465315879792
0.89912605021321
0.889969170786438
0.893642471668189
0.89472554650815
0.875255987256377
0.871831951827041
0.886211121373172
0.879430146243722
0.88596281119409
0.852988519493782
0.834922981785465
0.84220037021101
0.871676919914141
0.840353829523974
0.860474060263721
0.839936686773531
0.820961404441963
0.821855595344271
0.833762477907153
0.82037610483281
0.815861090812604
0.816096890993578
0.813695572409857
0.804241106895912
0.801133229945968
0.784364281263937
0.805879569041429
0.79346500702525
0.798337264614505
0.767106289984216
0.771645166146944
0.755604873915785
0.756305250955869
0.754754104555771
0.761416838358921
0.742067768689708
0.752264590577627
0.761869782110504
0.74614241438883
0.762944973015556
0.751102077188842
0.720071251962983
0.729581113200422
0.725247297710743
0.716957800847869
0.723359654267949
0.73187222945731
0.722719651680168
0.717870775971386
0.710939402399886
0.71917086147251
0.71006644915979
0.719376561440419
0.707403287569509
0.687956641802318
0.688414254279323
0.695316399746663
0.682349390565473
0.674351159263937
0.6746211034601
0.66178665471059
0.67008977031623
0.678357391689942
0.671375383163233
0.673886846981566
0.657956010312828
0.66506193418808
0.654460686287784
0.648158706108774
0.64714746532934
0.644676092742263
0.628387603271465
0.635543679122576
0.625750294215892
0.630841363455553
0.621554933224789
0.626069562021204
0.634834721302312
0.624435261757459
0.608176936328636
0.617873461197722
0.615482988974881
0.619275683511274
0.604170492095964
0.600049852194924
0.587918978024055
0.594726149894865
0.589569500336756
0.598202130577434
0.592879949662564
0.579925608766285
0.585566679690713
0.58316449317414
0.575681889818268
0.576634657867801
0.574147211118451
0.573200280368337
0.574342689697756
0.57133038203071
0.552136047122795
0.557110033985841
0.561302522320869
0.557169501397825
0.545000852499289
0.548229510728418
0.534800932998113
0.532415380524038
0.529034340546835
0.532782287806737
0.525383119088687
0.524338002916797
0.520512175728725
0.522631168001952
0.519744348562762
0.517604902310582
0.513664985138282
0.520923531658214
0.514146626547017
0.516425757593623
0.503086266201008
0.500332753490572
0.49226765571619
0.504247706318924
0.508523035914787
0.503441725295892
0.505285141196897
0.49247562410141
0.485113163951309
0.496566883536112
0.490108385467841
0.474255070154866
0.47674324484525
0.467229810065632
0.469707820565108
0.475381720869908
0.466222238008302
0.467124098505946
0.463955652041303
0.459449493761115
0.460243005183909
0.464646967427544
0.459506665078045
0.461437961223362
0.446852344252485
0.459819267029462
0.456765762415618
0.441643494802629
0.436317298415444
0.451545708016134
0.44275394229874
0.444562690021938
0.445595884507527
0.443655634433668
0.441662149160814
0.444833234912832
0.434497596216811
0.442273539559627
0.434823537767243
0.435809953784716
0.435646385252811
0.437344603162482
0.42885684677756
0.429687230580692
0.439106324095347
0.432001406204568
0.43003163759538
0.43025711785759
0.429461048987869
0.437554521965754
0.437544268440544
0.426922009961583
0.429650810015554
0.433278960710936
0.432128750009711
0.434937448512577
0.432815243024263
0.435964072496985
0.433332741855283
0.445250814564292
0.441346095484758
0.445174439359576
0.437028069333154
0.438351177740081
0.447443098309162
0.445083257200969
0.443470197309817
0.440767993767431
0.459549694502224
0.450943768711722
0.447463029797496
0.456603704791214
0.451853997796188
0.458664085712164
0.458964944680958
0.46476132791536
0.450123272040366
0.453246887782047
0.457757905749314
0.472570287284803
0.469438371596054
0.463768022945197
0.46373875903569
0.475139923211991
0.479323048234326
0.475368051990973
0.472708579822071
0.480513646242665
0.48284423213772
0.492982598279961
0.477668696202431
0.487674786548125
0.487330047220218
0.500455717390757
0.494580702883048
0.50038380463904
0.503603185365904
0.50959773097049
0.504088302217273
0.505321224766282
0.516673159931099
0.518628096775707
0.534961117605717
0.533580747719208
0.527198623068815
0.532495005680418
0.540556994716507
0.542773493453265
0.539523649461773
0.546532993181823
0.540595575676732
0.570084987784001
0.558400389807113
0.549263993714777
0.549698256408173
0.563767110407152
0.564691784122488
0.560586743978385
0.556774477143048
0.562500127640603
0.56634323731274
0.55322369889388
0.553342631113938
0.562037799427534
0.549251082801363
0.556722875032085
0.551706233691576
0.56793462797669
0.551257113966659
0.550726340220658
0.555448014317024
0.545916934990347
0.539016610149056
0.546335181435971
0.556354823522477
0.565308604187719
0.545309124385334
0.564918265975132
0.551619097474048
0.550127716563899
0.549454803174107
0.547106644285123
0.549167250204636
0.543900380681794
0.543010032544446
0.547525298920421
0.542370212571804
0.56051383469328
0.548621457097201
0.552311379726722
0.5580262724979
0.55465945792497
0.541047070438969
0.5673955567067
0.553947516521481
0.560803051777674
0.556119676870676
0.556649009526775
0.549690792641836
0.558909376663175
0.542533979750191
0.551518061675257
0.541899363963274
0.54493339894532
0.550740110702624
0.547477635194942
0.554181410663375
0.562271731217068
0.557473752978477
0.541816481111747
0.542422953653819
0.545881655399361
0.537939813358145
0.550400562667031
0.54018018405304
0.543598229958698
0.532231738918977
0.537045348661137
0.522118878680951
0.535337015951598
0.520232378082263
0.514022820030367
0.516146666579708
0.515524382631224
0.512015872566264
0.518483391587562
0.505339063501838
0.509869399636281
0.508653763524828
0.500235737342853
0.495086832331397
0.488675410131855
0.48109316378099
0.496542823151029
0.480220747931845
0.479615983417021
0.471758749653857
0.477463946441607
0.459653341854828
0.464276580851343
0.455276738788337
0.463119136721624
0.454411927867087
0.449791605660009
0.44633833460287
0.453039145751441
0.444017079619491
0.443339327225946
0.438158470358602
0.439843942688692
0.424874660178971
0.436491674560662
0.426495633262067
0.419363717106572
0.421114634556942
0.416117507385684
0.40999418122326
0.410952556673883
0.412307244630384
0.410888294414971
0.402397412622333
0.408378653828416
0.399601300298829
0.401578104335211
0.396329459039748
0.391314771909022
0.398887944573053
0.396565218738784
0.389578885964575
0.39574116007808
0.386766535338894
0.387057848231553
0.386000951035437
0.38234377629132
0.373845545470724
0.386075104150071
0.379888414416977
0.376423503774771
0.383649657913319
0.384292296991542
0.374639526841755
0.374884502437951
0.3696428718899
0.366457750289578
0.372593927155628
0.36590857301906
0.36444143826409
0.362949691676729
0.361452796042543
0.359419881804415
0.35572181749127
0.361099735856595
0.356886044621878
0.353402940666795
0.353220865450833
0.350850629566089
0.350695326554586
0.3532766915861
0.349953524641188
0.349702436787008
0.355251515706774
0.343184079193138
0.34359782336685
0.344971801769129
0.339600965981586
0.346827888000727
0.33981151750291
0.340462486224368
0.335337284551495
0.345115234527685
0.336387806796243
0.340150105387665
0.334348669497257
0.338427112925355
0.327873565220922
0.3356033420415
0.327640411638421
0.330019665048998
0.327476697906259
0.331164961625224
0.329349640632681
0.330553030898471
0.331692539791854
0.318789099232641
0.320283257626178
0.321319313659068
0.323035785311286
0.322944009995953
0.317603441991192
0.324262829224718
0.318489193022948
0.324359921025539
0.315885399323499
0.315718177938008
0.316928297668243
0.317041937502531
0.310717142328199
0.318996805020703
0.311255824247216
0.310817456355075
0.314629420904928
0.310527299638305
0.307863596146718
0.313228830966502
0.305184713116181
0.308013517920062
0.306801714685885
0.308354953504332
0.307082392420381
0.306626652965611
0.309699516505951
0.307641470405898
0.297108086200466
0.309298221338256
0.306956921496171
0.306865251634535
0.300800896886299
0.305277727780014
0.300641990466686
0.304400510483159
0.295780598718799
0.301413221239125
0.295421415717956
0.29632103243672
0.300912308875918
0.300938628730964
0.303224527083155
0.294772181751904
0.298249737443423
0.296249000696701
0.295367225162859
0.294891772968166
0.299181270876108
0.29361932036147
0.299248267452192
0.291520932807782
0.290239769460919
0.294825664698281
0.29483329731694
0.293703518781053
0.28899521324577
0.288553831591325
0.290720088075725
0.2912251800542
0.288595967725248
0.288967844274025
0.289028124238306
0.28878942540911
0.284642464331567
0.283633518226776
0.282479292237197
0.276590921333866
0.27937728315998
0.284738766232359
0.279468368665705
0.284419040276701
0.278409252791626
0.280425261019194
0.277960031689317
0.279862667020199
0.281919605876711
0.278715000729087
0.277071956792567
0.280751349750415
0.278330281145281
0.278513007154714
0.273171757336328
0.275390807788001
0.273594354543893
0.272775418240383
0.274049529735593
0.273070397994565
0.268714770216074
0.26931439112421
0.269776296311802
0.271316170461923
0.271998391698783
0.27080166176791
0.26684731476285
0.268038080045908
0.267385628833667
0.26962510590802
0.258574444815248
0.265650151391882
0.263618889735875
0.263358785163538
0.261669768298873
0.261286804092107
0.25596489494428
0.260245845476895
0.257044669065038
0.259391741837285
0.25610749315669
0.260863418811957
0.258214000994174
0.255980340143586
0.253246315306944
0.256542277529888
0.253148289997743
0.250622118592036
0.253132701545273
0.252539032369689
0.251946207356122
0.248854953052371
0.248618995031682
0.245446426572482
0.245647780065232
0.25121039322389
0.242836838501449
0.247623152461392
0.238771617003004
0.243982718837573
0.236300610808752
0.239865965962256
0.240867481474951
0.230894169018217
0.235654485012437
0.241578428084592
0.232379915478684
0.232393744714777
0.234231685063524
0.23608999335782
0.233274562767993
0.22977110224333
0.22838813343392
0.229588309859191
0.230624884353153
0.230796546970744
0.225363135788
0.225231861218958
0.226271868230637
0.227690907867465
0.227248482132691
0.224132210175594
0.221107076741124
0.225429556310305
0.222133681906532
0.215731253923391
0.220033949180049
0.222376044661762
0.216041475319628
0.219353564787817
0.214006788923592
0.217850496235988
0.211425412029185
0.213323436972437
0.218010959550228
0.212582881331391
0.215356193980958
0.213237137770587
0.207583030760106
0.208414274524823
0.209110516232644
0.207421866344491
0.205155623260082
0.209343147756154
0.207268029180626
0.207073839814577
0.207533479484802
0.204514376511064
0.203345990210395
0.204765828000506
0.202763015959272
0.199389474813271
0.203090055116469
0.201014014208117
0.200777536908243
0.199929492043481
0.195974770390622
0.197990019474354
0.199232492958486
0.198547293300538
0.197126187871101
0.19568472834891
0.19747163378527
0.1963443902131
0.190250570801795
0.19379797779569
0.193254387395567
0.193445525231962
0.191080788482796
0.19436557615004
0.186913110804065
0.18896766045904
0.191346426391906
0.186517154429095
0.183834219032847
0.188230402491468
0.190519842782528
0.186779716316192
0.181912829554593
0.191119851733896
0.184200148887217
0.187026968379311
0.187718033581225
0.18708178615327
0.18485128820562
0.185098636926339
0.184852315627615
0.186535097139486
0.180532628691303
0.184824473068943
0.177023864627899
0.186041495812757
0.182256368689201
0.183545638013265
0.181837984881519
0.183623655923905
0.177934966231664
0.182528242383525
0.175666372232446
0.176063185566829
0.178664257765771
0.176198667555489
0.172913344460812
0.1770032333214
0.176806769783938
0.176259101085376
0.17518385039569
0.177536516490789
0.174301022628457
0.179628395901995
0.179669583746353
0.176385432445599
0.176357014156872
0.178069594550046
0.172850276372751
0.176432792323727
0.175242798131949
0.173966324200068
0.171725424702846
0.175935174291046
0.171634594920456
0.170170677963046
0.170335671048846
0.171868503217251
0.167838609121174
0.169137936183944
0.173062450572573
0.171314550638204
0.166672348664227
0.171500263260324
0.168415148323994
0.165811798080031
0.16592593293246
0.168573461312005
0.164399094578367
0.166734992641058
0.164609785743095
0.165341693899893
0.165600194851494
0.167256361587411
0.16490892805739
0.162866426939153
0.162393378270311
0.163921563579932
0.162955677593804
0.164864459946397
0.160246993971923
0.162536171321514
0.160207072325298
0.164934003096535
0.158763062909747
0.161885935263255
0.15903477692631
0.160444151388713
0.15841597297264
0.160628263534129
0.156840537861988
0.160627864272606
0.154104677412196
0.158080165191497
0.160268005003786
0.158606179726117
0.157204403547865
0.158229893939572
0.155490865050172
0.156689569251827
0.156320004209638
0.158439620181843
0.155407156454879
0.153741088599896
0.150966548907182
0.151513353058976
0.155334511120145
0.15695370014394
0.151128342622261
0.148836517238688
0.152478383494199
0.151560031924339
0.149826547465063
0.149135233171742
0.150120082666239
0.149248549267105
0.149700116735725
0.149394285874924
0.146476689762977
0.150486042487153
0.147751500808028
0.148852784879506
0.149128811568748
0.147080783766236
0.145770537605237
0.142706868820236
0.143427681167947
0.144510678663662
0.140973482154078
0.145491724931528
0.143945350673546
0.141588859969834
0.14169907554251
0.142769615199361
0.139608686592017
0.139110066696851
0.142342739600581
0.140023399431905
0.138190028212038
0.138519087394851
0.139314901521768
0.137012935432353
0.135423189513856
0.136278996441256
0.136937422425832
0.134193269207157
0.132517755667033
0.134623346992793
0.133427527167045
0.13333332595032
0.131225606019107
0.131108740989699
0.131278364861574
0.134194668387877
0.133036278773678
0.132988339820335
0.131260146980759
0.12880684911728
0.130946009902814
0.129394921822219
0.126266888449596
0.125886047655534
0.130648259550494
0.128568217490272
0.124773795488943
0.125278084193512
0.126437377692093
0.126609135811134
0.126883113957424
0.123823744857791
0.122656636472608
0.126503373557816
0.125963322528475
0.121815629492148
0.12493247514137
0.123591652590798
0.122501958215342
0.120633601676116
0.119322175926732
0.119438202120783
0.118208093698379
0.117910304507001
0.117863160601263
0.118111642649262
0.116285195147948
0.118764204921919
0.11910864331648
0.11821629605304
0.1152356712227
0.117458314136666
0.117179292977505
0.116694130782043
0.11608730978109
0.116037465004419
0.116407487674165
0.113363635241412
0.111570419796949
0.113421950123224
0.110023288671505
0.11124444348967
0.113535515151706
0.110938172077689
0.111111840416363
0.111920811470491
0.110210795445933
0.112458841480285
0.111056331552346
0.111119945645358
0.109306287900372
0.11031226023381
0.110916924869443
0.110567228952992
0.110196496996989
0.107837084300971
0.108086679167334
0.109015531401723
0.107794556698741
0.10769595977267
0.109476750700426
0.108561925264594
0.109139429394519
0.106667784628972
0.105080675497544
0.106491031102454
0.108282593862854
0.106972260803488
0.104655399245455
0.105798679006662
0.107321841244432
0.10373683170426
0.106245714196826
0.103470706040686
0.10335135638371
0.107241283611276
0.107715003236083
0.101286346305467
0.100504728996322
0.102992092279154
0.100554474072975
0.0993944946467496
0.100845698792244
0.101420445705607
0.100054157400187
0.101109287711391
0.0986364399014999
0.0996768837991251
0.104320385882346
0.0978024807675013
0.10736526458499
0.101127896528127
0.097783130274827
0.103008570815443
0.0984927029683565
0.0965996182567514
0.0980922765305869
0.0971700644801972
0.100685805875789
0.0945034879209826
0.101794982344499
0.098063667146662
0.0974576434472592
0.0969750855297869
0.101761030238029
0.0953179159406378
0.100397014053466
0.0925743426918327
0.0991382047621741
0.0929390844639576
0.101963757214427
0.0912010786831193
0.103691029774741
0.0889422708424515
0.101063130255351
0.0936686675202053
0.103373788357144
0.0886403293113532
0.102554819904187
0.0854625821047279
0.102751530800801
0.0884032669058605
0.10704203368576
0.0872503670969378
0.105393174258665
0.0850632372399677
0.104541395619892
0.0882360269188166
0.105512666273177
0.0829441135881416
0.100752131088848
0.0874485164433016
0.105004789702243
0.0902000949349161
0.0939093150781582
0.0961322911343368
0.0949083039054342
0.09697020847487
0.0899181116929937
0.101995667770138
0.0886319088506439
0.105765711564071
0.0844415979695538
0.101578760375793
0.0872226460400645
0.0997460004757162
0.0903965238094556
0.0994557705765013
0.0923709642354334
0.0923561724868727
0.0931031920882702
0.0929920247099564
0.0924374732700382
0.0916309639490115
0.0885017287513548
0.0970523231558181
0.092746589246939
0.0951386395423674
0.0912615204202062
0.0955839362505274
0.0917720216294736
0.0962346951463014
0.091907829691835
0.0955478955127682
0.0882690696507386
0.0954039788828215
0.0919204801033992
0.0931717327274982
0.0905327313393634
0.0938378623932735
0.09366460085928
0.0960368977897307
0.0910538658677109
0.0939261318246352
0.095673056868365
0.0964527179631005
0.0937653078554298
0.0957999590287722
0.091359848196801
0.0957102301585924
0.0904625130078409
0.0928726140395702
0.0926706960173773
0.0920637023373686
0.0929494402252849
0.0958179515466199
0.0937029856822632
0.0987839529430758
0.0932365431202318
0.0949940402131935
0.0938540380300159
0.0955071624942518
0.0928074509504565
0.0948656869599781
0.0905135253415626
0.0938907925774305
0.0916714601291758
0.094916693098608
0.0942961021354381
0.0955812835967674
0.0925034130145563
0.0952890063660828
0.0919505142882275
0.0948703933174705
0.091081374623849
0.0942872892097617
0.094354558005578
0.0937379552032657
0.0923168358492446
0.096075893943119
0.0908329914325428
0.0930587494090324
0.0910581857479024
0.0955347519655292
0.0962538834508394
0.0938383376571018
0.090934447893846
0.0961801348140172
0.0936960088964596
0.0946719378023864
0.094572350365403
0.0948183273406688
0.093198872716196
0.0949230104693588
0.0942512343926358
0.0944165286085087
0.0931904795745256
0.094236824355996
0.09156466776853
0.0952341203973556
0.0943150049985925
0.0946294711750568
0.0935110931605927
0.0956251262791647
0.0960330992068196
0.0948916682309919
0.0959921584628951
0.097175900005829
0.0921162872071326
0.0944782308968753
0.0945763285485773
0.0965606397649031
0.0961480136786353
0.0969968795148279
0.0964733368846831
0.0976710631282727
0.093567349578718
0.0961053429030645
0.0952074641287191
0.0977955492188604
0.0961562322492943
0.0985650059482519
0.0983574366787435
0.0992883409092613
0.0974024359937459
0.099841839353059
0.0971506131176265
0.097069864361902
0.0973356078760917
0.0976862270389258
0.0975433870778758
0.0979432934600718
0.0962354736007558
0.101098596484766
0.0966189809655059
0.0973401565868599
0.0990437920084068
0.10018664857429
0.0993812798976573
0.100107614689372
0.0979734394053139
0.100247312166519
0.0989502779088022
0.100501802713393
0.10012079930463
0.102154319971868
0.100306344363772
0.0981317092299295
0.0966787083697714
0.100194718700607
0.100599616560803
0.0992008014226819
0.0993615434254776
0.100501496859647
0.10216702515798
0.100472760021777
0.0975752214285075
0.101778786792577
0.0991539183999318
0.0997209685226459
0.10136733913565
0.101642957366586
0.0983688782422155
0.102366788369556
0.105071065892574
0.105022119781405
0.101703532302585
0.102208425883823
0.100598047223689
0.103744110826788
0.10139993886802
0.103038240738979
0.101849948198326
0.103472264241202
0.104554770816043
0.104402155846074
0.104986336554653
0.104536167676978
0.102151512208782
0.103890995356829
0.102177712922485
0.104149903537434
0.104210469901037
0.10463102969876
0.103753081082365
0.10767430639149
0.103954869342743
0.104676655294991
0.10317822287539
0.104048509343095
0.103724410403052
0.103928683259227
0.102599356878605
0.101449009658202
0.102548846713854
0.103906983265952
0.101947632304295
0.104005676337382
0.103564854995295
0.102493514725218
0.101773551037102
0.103777011690888
0.0994039302290358
0.0990631111314261
0.0985478466982381
0.100570131955085
0.0985367268356007
0.0998873545594994
0.103240227548272
0.102344918291131
0.0999263174044221
0.099772105835938
0.100151112258991
0.102341067849795
0.0997091145892539
0.0999766387630546
0.0992821014588925
0.0999272758054846
0.0998616405510679
0.103267683196164
0.0996196692783094
0.100692122440634
0.0988612872078866
0.0986349748717496
0.0969661066680607
0.0999299552626333
0.0988814435043085
0.097577203423126
0.0974809099270442
0.0960436497385928
0.0963802427578986
0.0980297236708869
0.0955378298268964
0.0990404314703423
0.0988933630064175
0.0977784845231842
0.0965605546893539
0.0983834788301966
0.0960395811780588
0.0982220007669724
0.0951871404158798
0.0967049618211627
0.0938387452243515
0.0955748146161758
0.0976689205243543
0.093904903359162
0.095008785179129
0.0989136939876183
0.0968785474804222
0.0959104306333973
0.096435027176323
0.0988399838181599
0.0949669944515434
0.0963580840892525
0.0951365798312005
0.0945870377013588
0.0914478846051055
0.0926915109098799
0.0954097619053632
0.094928289139149
0.0930005991836726
0.0968372543385635
0.0960479988379528
0.0936751307172686
0.0909222112792995
0.0942700314474718
0.0944389354832454
0.0942663834025393
0.0926633131516973
0.0943931288818673
0.0920056326014922
0.0931060014493859
0.0954500314482989
0.0947505814046922
0.0925568503458474
0.0951967225997952
0.0910192855020936
0.0922262110426358
0.0939816917216225
0.0945286828683931
0.0945140766491421
0.094615456949819
0.0928995448623616
0.0907848681651445
0.0916526577052349
0.0920397067793905
0.0906827057144276
0.0911457875566578
0.0920919824923283
0.0934450288529823
0.0920449290398026
0.090312373099063
0.0888517488775666
0.0909827737702358
0.0898078582172497
0.0912683331202402
0.0893664183610673
0.0916107398856586
0.0905957949677793
0.0899025473921961
0.0891301243181117
0.0893137178163015
0.0900996625128287
0.0918995075016483
0.0881978157837911
0.0895887945837064
0.0881593103748982
0.0873247294508139
0.0863910098687815
0.0881587757186168
0.0896400453767843
0.0875324544211492
0.0857259898347286
0.0874194442860419
0.0847290971390089
0.0844120777175388
0.0866005169390257
0.086934277865642
0.0839587871282182
0.0865431770364126
0.0841198372021227
0.0840763506581157
0.0828114181733784
0.0857362927030947
0.0850408461349662
0.0840919038712355
0.0822266220433192
0.0826310361979971
0.0831048473253767
0.0819881550202129
0.0795846911326011
0.082226622979349
0.0820881777649178
0.0813491237894752
0.0784040955529621
0.0801245585124353
0.0776658608067251
0.0785596372863063
0.0799100988830801
0.079099756761686
0.0790967725496179
0.0806485837809971
0.0782580271240785
0.0781885765152832
0.0772914409112067
0.0779805504277306
0.0798014285359476
0.0797402171581928
0.076746361217385
0.0763711956144194
0.07615189668061
0.0767366456288465
0.0780058021170363
0.0760373983199493
0.0756708381402348
0.0783511476319423
0.079535574988466
0.0755508219550446
0.0745475818410715
0.0745506621862198
0.0750830465368864
0.0728903284370159
0.0744452951705236
0.0748576419960973
0.0738977876596988
0.0748285609517099
0.0739752886353908
0.0764678479773923
0.0747850708978462
0.0742533231904104
0.074435601266683
0.0718152028524052
0.0691391524097957
0.0724302777405439
0.07321739316751
0.0736807510578683
0.0723028553625541
0.0741631762339609
0.0715906699639353
0.073113762127855
0.0744717979836461
0.0705421349617252
0.0722868178403219
0.0724820369494064
0.0704893179195237
0.0696718892458442
0.0689077557829935
0.0732982602046346
0.0706488733535763
0.0729173419048982
0.070440698043003
0.071346443214975
0.0693944463878905
0.0708281253776705
0.0693353443939778
0.068991412671828
0.0675354558481137
0.0713714088088077
0.072087938527254
0.0693096546725996
0.0670502649822306
0.0708109969241341
0.0671559132360322
0.0686175154015513
0.0683293292352608
0.0702939680620139
0.06598503263033
0.0717649518806413
0.0669475356435147
0.0691683946877553
0.0693064449674856
0.0697712634253604
0.0695292282499588
0.0672603742350108
0.0709207655159789
0.069026669534155
0.0670809031512867
0.0665773621597188
0.0677797961915824
0.0668248136184901
0.0644559502160622
0.068247136140082
0.0668606763124507
0.0670195484900039
0.0670260463662724
0.0660524120437999
0.0667476073399718
0.0664564599091069
0.0655210437573117
0.0668454184622053
0.0685643206398886
0.068441943296101
0.067012474221589
0.0663657807334325
0.0665113633193296
0.068385479290724
0.0716597870150439
0.0651860642443486
0.0678882876508152
0.0667704888062176
0.0699059408768008
0.0647639876157752
0.066318079153911
0.0639995671149519
0.0665993702485954
0.0643776769306326
0.0646155934647303
0.0645266223838156
0.0645396996550605
0.0665779604282626
0.0654665425179496
0.0675297944021829
0.0680554987870933
0.0642935345337242
0.0626228633021398
0.0644940352045337
0.0665310808809965
0.0649858107204839
0.0666191499594328
0.0643470140399524
0.0677853631614658
0.0660617968982845
0.0660227718226404
0.0647334374462116
0.0672399988226733
0.0666900280563693
0.0670955968409494
0.0630870059454812
0.0642577269507525
0.0666272885299461
0.0616225170472779
0.0654723617951706
0.0662532010505413
0.0663980901133193
0.0647252287983037
0.0672032740467829
0.0666579526018473
0.0639655231144897
0.0639573452116322
0.0650368871210742
0.0637925538718139
0.0653271499251403
0.0637736906613506
0.0657249221457253
0.0659176995001472
0.0618897130369924
0.0654531624146894
0.0708794694385762
0.0703452502518293
0.0616330208197448
0.0679860231166656
0.0659175372605221
0.0651023461025414
0.0645492067090208
0.0673848269834884
0.065995661798841
0.067065221947718
0.0667361914808765
0.0648792099878134
0.0639332027077716
0.0641849198226133
0.0650500078269824
0.0647734153241578
0.0644282788516968
0.066365520972032
0.0664671365093723
0.0645473166494451
0.0659157069652072
0.0643106801199941
0.0655308357761497
0.0629324900565482
0.0677476053638873
0.0641207781891083
0.0716824268531999
0.0614464084414305
0.0716539459075062
0.0653829472857378
0.0679080246703054
0.06252742220993
0.0681931133336211
0.0679806015863704
0.0659733753236745
0.0656913753065989
0.0669715958607941
0.0674957572731782
0.0671030181661387
0.0681674781683708
0.0670274894172139
0.0663415710460047
0.0700247319489595
0.071761214922887
0.0725951011102359
0.0657500873690887
0.0701006034962982
0.0697258699987232
0.0720871100839941
0.0705973857617606
0.0663374787259448
0.0705159758453188
0.0673498844088657
0.0719247577217057
0.070815962179846
0.073002082260487
0.0710222227266281
0.0687714911825243
0.0680945791570152
0.0702476151211411
0.069167567091109
0.069548391000621
0.0754657871732413
0.0716441226895191
0.0698304688728199
0.0732059889217685
0.0696389606926959
0.071096729114057
0.0689612343338377
0.0719177867598054
0.0705425470807907
0.0746483968277439
0.073590679720249
0.0732793829130984
0.073888460702601
0.0707667832073056
0.0743656047355794
0.0760524076518682
0.0747144954763907
0.0775394745736609
0.0703741047802465
0.0796273309537816
0.0739848094605365
0.0795795779535565
0.0761241373094715
0.0755019031412167
0.0765843142627514
0.0748985705462158
0.0786449551046176
0.0735447525228591
0.0810074944494987
0.0765894872436633
0.0830960844524646
0.0725393388382417
0.0822223272774242
0.0739934341764833
0.0839848810415043
0.0784599888310503
0.080758317226861
0.0800587802927974
0.0819447886145967
0.0776352871156761
0.0823557709516804
0.0814938955979269
0.085505192439162
0.08671391627726
0.0781904844988052
0.0852002666543771
0.0860958836182902
0.079804296857389
0.0890774407709349
0.0824997819555287
0.0876153627276794
0.0833040428961563
0.0884667590207994
0.0892920555919041
0.0899759947919618
0.0877390891006188
0.0875327275881789
0.0898708999959588
0.0941561525646357
0.0891066730552388
0.0940890349082447
0.0911663479381009
0.0954564889071142
0.0915527916143226
0.101574502927252
0.0892096328047338
0.10633363266546
0.0956471307385222
0.105227968293544
0.0996710859286043
0.102696371640558
0.10133988486439
0.10626389477919
0.103823956121417
0.106794945713775
0.105597580895563
0.109207633071781
0.110191505816477
0.109385620607258
0.113333455030843
0.108208479086126
0.115773973793692
0.119010122694587
0.127382398103051
0.119683578998502
0.121470873667839
0.121737159291245
0.126589671978817
0.123069564060286
0.128295845975485
0.125006105635909
0.131630676852236
0.130291978001892
0.134097041133626
0.13612272270838
0.13585874299949
0.139791996203219
0.138692360682832
0.140429991942412
0.144567766170885
0.155048021118056
0.148152723202027
0.147108167880161
0.150458239176732
0.143863161251652
0.161505518954802
0.152235865364052
0.160151764592754
0.156581075254491
0.159584018834056
0.162448398769853
0.161475605929139
0.167631966760576
0.1691033229789
0.173508529807747
0.176715615607094
0.173268250230447
0.181677758001648
0.180422004532864
0.197629561510179
0.177538944604077
0.207691078772567
0.185640505535409
0.207979057406866
0.208483931507472
0.215736888931292
0.218683989639824
0.2240743172717
0.227189839481977
0.232753538354397
0.237430548639472
0.246706760143567
0.252573877102038
0.260245950997119
0.262571367046505
0.275880251238611
0.268800830551236
0.301030459963337
0.293514391422819
0.292652188274583
0.30230305827412
0.316464491382956
0.316193521797369
0.33189227595996
0.326500883622268
0.346719522303347
0.338381214408738
0.362371918303829
0.361506341913094
0.365510122223217
0.383058759375256
0.389113922514855
0.406677500563314
0.403718615563767
0.423107619320289
0.414563783778968
0.429781434447983
0.438482971146478
0.439782056631847
0.450171467811051
0.453281629419462
0.467316877153446
0.468995484482231
0.481199858131995
0.475492437176328
0.489590846018784
0.490524005738386
0.498109655280275
0.503579670205782
0.512738338565481
0.528899411555458
0.542213137570456
0.52964126185213
0.520117913487372
0.52003232672527
0.520555084733018
0.528424353472397
0.55019778795105
0.526314330048558
0.547860212468203
0.53599336930353
0.536074710994622
0.533121815645193
0.536129798783155
0.539420886920448
0.538190138230835
0.546690500131163
0.532752725558495
0.538322670459266
0.548974947949607
0.56252024286195
0.544966310617942
0.530897413691588
0.533366502698094
0.544436220121564
0.533194090974958
0.52983521567651
0.540751417291197
0.531688585106532
0.533246231355583
0.526001860290674
0.526195273926128
0.516468598466212
0.525080976567517
0.49928485456698
0.507103284044619
0.51096657759552
0.503383083116907
0.504112145140723
0.494566087923035
0.506528756150901
0.493194255010159
0.481824437737645
0.490554236289621
0.479507318064952
0.487030616192301
0.484677555580077
0.482667348786943
0.472382611203839
0.485676268127791
0.47846298856859
0.469945188756523
0.46782719403676
0.476459152146682
0.479600552650169
0.489575843455856
0.478571352846694
0.48401895799908
0.479285451319094
0.483725375947776
0.477435695510645
0.476867514850242
0.475444923792503
0.477298778002215
0.485432341445274
0.481255463013293
0.481104511862871
0.480649679853839
0.480670264010133
0.484389676728209
0.484565877772482
0.493984728110694
0.490876014989351
0.483950000562112
0.475612827792756
0.482345122029288
0.476640452030216
0.472415408778937
0.473040195950474
0.472468480755851
0.478653525053921
0.462198926388421
0.478045489324439
0.473884061380111
0.473030338014775
0.460616504721589
0.449075804622514
0.453265160249658
0.443730143588643
0.446402567935776
0.442001550181096
0.443579202006503
0.431712022413323
0.428707761543132
0.419983916134382
0.423271156628884
0.420848250101126
0.420813864784917
0.403463119497168
0.414092860891146
0.405822607883158
0.428027521352516
0.42549699149429
0.410032626373367
0.391277793948384
0.389401671535085
0.393822895588361
0.393540878423034
0.389735982289795
0.37655810313596
0.382235360936095
0.371499933769269
0.386749228692345
0.380860388104932
0.367793528538499
0.367143923264189
0.365375379292149
0.36495901311682
0.35795205753205
0.369229932931796
0.36402121979838
0.359140924813096
0.342854756070745
0.365749361848687
0.349601038685579
0.345405092568756
0.338710816382475
0.339091888482416
0.33685572143283
0.341866632798844
0.33137263481207
0.325986256922609
0.324370078588246
0.318984380306275
0.31836224495804
0.323562230068803
0.315783242028073
0.315858853106982
0.302964772746585
0.311190804088948
0.294626234273247
0.310175456897208
0.316829683726907
0.307431868341037
0.293106863493857
0.30005333825694
0.297500990906092
0.29756071209691
0.294344597019394
0.286521739385899
0.288915339382371
0.292795620711063
0.282529253148451
0.283881251571295
0.274431111555647
0.280934569354679
0.279830298668984
0.275166669015932
0.277675598861488
0.275092069158386
0.270331463396921
0.270995017068474
0.263355522924963
0.274400665766382
0.264214567084707
0.274845539206542
0.261526955243177
0.274141914363536
0.274403487042735
0.274716241120665
0.274370257014212
0.27915540241537
0.274202776221561
0.285576675381203
0.279934792017264
0.286888384744164
0.286965799192775
0.292628206787185
0.294795024417635
0.300591079430188
0.304056197595868
0.303969828510364
0.308136668004791
0.311695577615
0.319190801916049
0.326640933566392
0.32771741738036
0.338758318938206
0.341230800336703
0.34942022620056
0.349759423539168
0.358862957513912
0.368457036439054
0.363841017687162
0.383370552096924
0.385430133552704
0.395607446682103
0.405329437648255
0.402538751609696
0.412981534507599
0.414065378593719
0.427909515462603
0.425784957334306
0.440146216229349
0.437956519531177
0.444104958861994
0.448334139235878
0.446946207742717
0.453509629637507
0.461994371177013
0.468988249108489
0.474154626157943
0.474522269795288
0.484692264800548
0.472060156105176
0.479681819218144
0.48190198790331
0.48967315440524
0.488748138865769
0.481902534795785
0.489784233391424
0.502070493761799
0.50171869577947
0.497329725316654
0.494762507576636
0.505260126295372
0.506461987116995
0.506469477257402
0.504923708503958
0.514590172223884
0.521124823899899
0.519407785039837
0.522500346334048
0.528133943339344
0.523543372990056
0.536483001205827
0.538659171253883
0.537996240104479
0.542746754732111
0.547548066130613
0.542608130527536
0.564933506204949
0.563226315248278
0.565744291882283
0.571336661226526
0.573411423966559
0.572619382572242
0.593100423938429
0.581275150451422
0.594191505236103
0.581070421163547
0.602727249754292
0.60720914729768
0.614719194566897
0.595409359320999
0.607747690735737
0.606124902063892
0.610884947229735
0.601505119036982
0.617788886184576
0.61264505637152
0.616940669192471
0.608528151852935
0.618725777235242
0.616344435271823
0.611236734981233
0.61716635546876
0.615616241110342
0.613554130990443
0.60926306959841
0.605198540617573
0.601954253310487
0.601150146510853
0.619194787266031
0.5998886760106
0.607353696464676
0.598341293032681
0.606576939099989
0.609697514917425
0.610313903761622
0.603672969602606
0.608962942361128
0.605546046984712
0.611355904857504
0.6038843252058
0.610220203391958
0.626829908331682
0.621106907428432
0.616598876116573
0.615234134727338
0.619094411671882
0.626579507578891
0.626827135237299
0.631494748916668
0.629320364337813
0.639696517687261
0.63965169817174
0.644845556901441
0.639750293232923
0.643022628665671
0.636895127563144
0.649189627171252
0.638147449981333
0.644069300788917
0.633110206203533
0.641380282430565
0.630936708591913
0.634813133365628
0.618313768894883
0.627287610197768
0.619434266737269
0.619234522511804
0.605797580969554
0.612780447317998
0.602887489075707
0.60002555096478
0.595669666338295
0.591146371085082
0.594019031539349
0.587046862944582
0.580614884782921
0.585266274206844
0.576432514549796
0.569619363545209
0.564894348848236
0.571959276206058
0.568088101700261
0.566145084317712
0.558815751107781
0.561669054970378
0.562514008455454
0.559081454122381
0.561412484504267
0.564503796607463
0.553060036805777
0.554636434799157
0.558645523867711
0.562217241709624
0.554960327072882
0.555912437673444
0.559169500773133
0.558876569969189
0.554785743779076
0.557937592720689
0.553039148654841
0.556107720645142
0.557822826321611
0.554558438702755
0.556400218764004
0.559012118968247
0.557588849049072
0.556099851233288
0.550507580695552
0.552227605189786
0.546625314104839
0.554394556147033
0.548753662280749
0.553050078454879
0.554420117316156
0.551525481800854
0.549098118196236
0.549212901688093
0.548546577226487
0.555702433161228
0.547136359010022
0.556952577901676
0.55542357495008
0.555968729136581
0.550925913278082
0.551337407766677
0.552915740953197
0.55291609665392
0.548862233214432
0.546468700444484
0.542177854433749
0.544812020414155
0.544670801013895
0.540649020220338
0.535009886022897
0.531124352172275
0.527301143099564
0.524410795910313
0.52618820254167
0.518784034247269
0.50886004516434
0.509047524323128
0.504387046827417
0.500315223310688
0.492209272489261
0.495069994963031
0.492146471797456
0.488159567977309
0.480745343310224
0.483504248914767
0.480509710688578
0.484915104763357
0.478971980870249
0.476927397207355
0.481349373746518
0.475535567436442
0.478821276753139
0.481247097766954
0.478539099761332
0.479547297580418
0.482312372867767
0.481653023963859
0.47727911713667
0.48476252370234
0.487237725729613
0.486275137134297
0.482432527270778
0.488299772883445
0.488247758740138
0.493072052852962
0.495146236180042
0.487822853040209
0.498626305949186
0.500468859184922
0.4994759472634
0.504634885638875
0.508946380283609
0.502662694767844
0.506047600581556
0.510566196276578
0.507151128561178
0.505547648170331
0.509744584678418
0.50928736534152
0.505626872774264
0.506366202076509
0.503063211163308
0.504966078273945
0.499614556904863
0.502134887266118
0.498869585176086
0.497793132716033
0.495849619682174
0.49893769418473
0.493914997830542
0.495094671549057
0.492071552846378
0.488396602161631
0.488774524699231
0.482917762254034
0.485995015635268
0.48610938284252
0.482916091336131
0.483822706801856
0.473728224904034
0.472825699567694
0.477783899968734
0.473970076088292
0.473942860051311
0.470567506496745
0.467523623975862
0.471060160838353
0.465112367914468
0.467480190188178
0.463645413804587
0.464353011877499
0.45960182827503
0.461343672535344
0.459699322592924
0.456656531935718
0.454423718100446
0.455449091680664
0.448250188462467
0.452081612883247
0.445330365227739
0.44467882750432
0.442130253284622
0.439685112934057
0.434111297840815
0.432827845754651
0.427930139287252
0.426549957017456
0.42143150451323
0.41960249349392
0.415653426731331
0.414862939834094
0.412197967885196
0.409669846484486
0.411192393607797
0.41048706470954
0.410216359931757
0.406596692297962
0.407238159452716
0.403584363522241
0.400643318513798
0.402938163911119
0.399214752639385
0.398940901342069
0.390840622258735
0.389993276688149
0.382304897915927
0.382192944247033
0.373006548523687
0.366482634275763
0.366461820008794
0.36173090733143
0.361311016322162
0.356389839337439
0.359271165923868
0.35966262676738
0.360448370027808
0.362545643685545
0.367959279460413
0.376956560439301
0.382862493853126
0.393808629119023
0.402924083028665
0.414819025399495
0.430879780639702
0.446596317012497
0.45737101092325
0.475370997565019
0.490538443150207
0.506301735344996
0.52610769767041
0.542031598232851
0.558697564106556
0.578529052487715
0.587181525360504
0.606148811241085
0.620595657664651
0.642755059743577
0.655442617360144
0.671933676308214
0.68556667766636
0.695195730474683
0.713557423972362
0.723265312125844
0.730832380041288
0.741343526603435
0.755763310985712
0.762106648577477
0.775354380460778
0.776480614004753
0.778761193717193
0.784381684644784
0.787035187922626
0.794465035374795
0.797136321930106
0.797523907835564
0.791582322337766
0.798763570018126
0.798775924781256
0.79295104273753
0.795629028270579
0.797220968252583
0.799292245163989
0.803415295151404
0.807060749737089
0.812102873831604
0.812571690805247
0.820920372415499
0.825736695384145
0.825469552224339
0.837416206963148
0.837339770886899
0.849128516298029
0.845761142436086
0.862695126461
0.875805409671428
0.879005996974586
0.882984986873069
0.908164815865418
0.914768677220922
0.930246332267839
0.944768825627743
0.95169723359218
0.969181247237591
0.985887523407145
0.998362539891083
1.01051249924223
1.01609737247143
1.0051695674148
1.009696764044
1.01953800974195
1.02037849467468
1.01764337532218
1.01484825033175
1.01633174683244
1.0056690457432
1.00587248301005
0.997202505021243
0.992981139947525
0.991569514290735
1.00159125767911
1.00167828167336
1.01521142717448
1.01515454815964
1.04082818865014
1.03927430377655
1.04183422019757
1.05984602620043
1.08176180699755
1.10146416915735
1.11562551790501
1.14228912257686
1.16413552446328
1.16791369457566
1.1713785082389
1.17289540258775
1.19876295948114
1.22902956003733
1.23877965885648
1.25080528106384
1.26521216367382
1.30813994846215
1.31941474779499
1.33022761949979
1.36977135099778
1.37828820817469
1.41462485775364
1.47046400339853
1.45518930233373
1.50749600745537
1.53199464875645
1.48156646373888
1.52419982882704
1.61198544156524
1.55984890570687
1.60824814705395
1.61470717505966
1.61967226038605
1.64187126200059
1.64368711420637
1.63407168799069
1.6067774491438
1.64940137237818
1.66816773236355
1.67144813938846
1.57882388511715
1.64821271436858
1.6520495139549
1.64715623552731
1.60589538580624
1.65021482304915
1.63974432416021
1.67418354743051
1.63954605567606
1.68125233408775
1.59318113110202
1.66090512267546
1.62361604153629
1.69260031714111
1.66941258600209
1.83083179267093
1.84789299021756
1.76685742771984
1.72341948515174
1.77640885128572
1.74138198419394
1.8929012507851
1.8221925541677
1.80283857947797
1.85771989697106
1.91005802105103
1.75142430263514
2.03613126719468
1.91344817305585
1.90201590023934
1.95401965220312
1.89642615831982
1.93046164549789
2.03946758520984
1.89236408793877
1.97129091565511
2.15789150157808
2.0666905858158
2.04428791518568
2.0866372201725
1.93980741944735
1.97210471271374
2.03539904410186
1.91676161579648
1.91393381770167
2.08476823553589
1.95146278107526
1.98781460027554
2.11699970858039
1.97984078813219
1.96765350799145
2.21970230635394
1.9663634737288
1.81962446204609
1.84270384552057
1.84685105592185
1.75739187264229
1.78610349114597
1.86749363633026
1.76874764635067
1.6641887423481
1.619077794747
1.56796800099367
1.51326704135717
1.51866889161756
1.51262415866188
1.41953371332892
1.40627840932786
1.4123927007757
1.41326766214539
1.38737515501068
1.36778994533812
1.34531580232861
1.36034654427079
1.34938772562405
1.32670224131973
1.29940100237651
1.28645441370381
1.28754786145297
1.29349186087676
1.27713287445733
1.2788822772624
1.25025987034592
1.23890122470272
1.1940457905912
1.18709626771457
1.14037688520349
1.1215118661927
1.08046184528429
1.05457995073413
1.06136472904496
1.01132654770872
0.96144250775358
0.934327090347745
0.908458612295094
0.863857290645317
0.829381888918603
0.799419665224205
0.758630102520384
0.745329494724115
0.698820802732712
0.679266721385691
0.658168736110964
0.64399870687408
0.625840511897637
0.602909735766566
0.582847135295389
0.5741976337843
0.561544119914401
0.553317301795415
0.536214784315439
0.531221159103356
0.526234943446368
0.522888092630045
0.5091661655777
0.507765756769586
0.503859947365632
0.500461473814233
0.505742439316184
0.503188451167543
0.500524384472419
0.507128307629307
0.503678941563165
0.506612097715805
0.511448163497059
0.514097143531349
0.508058575229009
0.501293660884474
0.506425723683956
0.50446248222194
0.504120283743779
0.502796656228494
0.498612682970069
0.491121987682376
0.488500691839548
0.489394623907776
0.479381204058547
0.480161751157133
0.478703467680663
0.479155344958689
0.474225836492465
0.476126165420675
0.473483059357559
0.476292756622977
0.469891850999454
0.472047569909093
0.478814718749841
0.482720246898079
0.48836174496726
0.492241527340523
0.491709099554818
0.495189758988332
0.495453038162765
0.496263544166784
0.497085720524609
0.506768862015294
0.506562847320499
0.503139953703597
0.50878578740745
0.510894374594087
0.50473669804305
0.508734596596899
0.503778654873758
0.513568940897605
0.510449948871119
0.509064318058231
0.518299710342245
0.510091729561272
0.51580744702495
0.52571387203778
0.5276149364427
0.528840587536387
0.531087709733195
0.543207623369862
0.555967945380247
0.569013052635106
0.574961650637555
0.596796816094776
0.611374018948305
0.63205260654514
0.63822131726323
0.648190169606038
0.660368610158396
0.664505012054927
0.667186923446857
0.664441728940105
0.655018578476638
0.648220693920709
0.654478834870518
0.640965593189871
0.634184680324291
0.623791714497147
0.605829767639862
0.611636158757193
0.605039751485384
0.599645991352525
0.590193561117857
0.604791582299894
0.604262575116732
0.604900899516846
0.605691945166405
0.609206699415333
0.606118404541556
0.608499231328666
0.592222741042103
0.614649467790098
0.60314203254296
0.594320200851443
0.585485747052692
0.585341942020363
0.584636507963955
0.572751880682609
0.568691023935848
0.580523125479237
0.557038743861919
0.555393258795244
0.557122641795825
0.55435266399648
0.543049788352807
0.543575884862327
0.540943344713638
0.557793965382874
0.543081194998388
0.537105394505528
0.528858989996531
0.546874589887954
0.537066154196847
0.537252806661869
0.533342719145375
0.537731032099096
0.536357529187512
0.536790305756015
0.512508131901088
0.534542599876472
0.52417007685514
0.510076192663876
0.525067355736331
0.533350359998655
0.511855525953007
0.513914033802982
0.51195813710087
0.511396988269365
0.499769089750385
0.493404738736626
0.478407739292197
0.503530349252377
0.500435488703781
0.497863081501659
0.499438264658421
0.486683950939477
0.50046904180601
0.507101240921784
0.493964637665726
0.5006763620667
0.499377436282666
0.500242674544161
0.495559730037186
0.506595656293512
0.503120473140963
0.496196603510034
0.507415664046664
0.508725964626976
0.500686253708874
0.50814894918883
0.501074094860043
0.50794245493616
0.508545358671984
0.515161097353827
0.517633095429266
0.51550323095654
0.511045710244542
0.52331436778521
0.52525569449338
0.53394526055924
0.535771973322013
0.549847627638291
0.538967334489854
0.541798114526327
0.563117815506025
0.564330754550682
0.541940331884429
0.560836470858015
0.580325009626042
0.593520511047985
0.610290274673062
0.63007039649876
0.628031518717175
0.626393054906516
0.644764293955846
0.669943810923536
0.659271039067651
0.692373953764054
0.692342772155185
0.75577947372376
0.731304278365798
0.743819096379973
0.769552799142818
0.802737261774884
0.787307915230714
0.77621078162082
0.818738141521803
0.864270339304633
0.828985472426257
0.84123644272026
0.841818556469501
0.820197929331168
0.799249429886242
0.799404989851775
0.817969004393149
0.789781853191391
0.792234898493618
0.803364179374019
0.748211017774343
0.85090527813415
0.850655695490398
0.766822180694936
0.75384376785695
0.786461038196452
0.756974965279273
0.799671161222956
0.772193905121169
0.762023351457943
0.756668341099664
0.776357006007131
0.814153422327591
0.8189962732482
0.758684951101754
0.754456159308946
0.773577450755724
0.819341158395037
0.744561257547736
0.772113974374553
0.786507704643213
0.749177305516309
0.76792049474205
0.807725510360104
0.747711959532581
0.730140100282665
0.709512646851325
0.725340198987767
0.775606410414717
0.718621563941805
0.67433822016425
0.751946909290896
0.711302470933246
0.743802718433059
0.822573351685838
0.775354121190685
0.716407526757326
0.755693442490492
0.815888505163737
0.811910570252461
0.768635497775611
0.714692798682242
0.736836881967336
0.809339162003374
0.809885819820273
0.823906378725371
0.806020354113674
0.814970724896609
0.815693765693037
0.787599893806521
0.796218752682132
0.844781580009121
0.800519987373677
0.832934157237698
0.853872555513152
0.901368857420929
0.853954519179445
0.80805370731904
0.859408822147641
0.93177021899614
0.858883446591559
0.763142525839149
0.915836874858213
0.878100589348726
0.851177470068724
0.918859021517343
0.902910403863092
1.06785711596457
0.98845770966845
0.928514664570331
0.958519006356396
1.15243869891764
1.16240281792082
1.13652004875885
1.0099939726205
0.961856598069549
1.01288427631223
0.92587907144834
1.04935482333706
1.10260650986731
0.948366713103934
0.911572307986478
0.942424053876344
1.09998752492665
1.19194449924942
0.982567565600713
1.01987915836664
1.05582765135886
0.983711329904124
0.953834418360201
0.876438979299112
1.05198008900776
0.893442217440159
0.786216401165442
1.005712968974
1.09193170997255
0.957944853335715
1.03770223413377
0.997477417782181
0.899724629680117
0.883997498912693
0.901996847966415
0.989928688385456
0.998782576603107
1.08864517521034
0.955705455607168
0.686654207803934
0.808431261588993
1.07000337539827
1.14807545992936
1.20074810292891
1.25998520997741
0.975424390702054
0.860298473212712
1.00734534210503
1.11703128793389
0.937210641908976
1.10987114435434
0.91547772015433
0.958746382443219
1.4464554518061
0.746056862361677
0.792649242652218
1.03875177723274
5
5
5
5
5
5
1.81171776876555
0.95078017313278
5
