3596
4000.36533379555
650.420452594757
1
2
2
0.042631792152319
0.0543891498112661
0.0434110410978763
0.0505743203289087
0.0499644348614185
0.0504450895230509
0.04134945876795
0.0480348345439164
0.0493002480305614
0.0487734594224216
0.0425263675757266
0.0532066670971267
0.0480500793412318
0.052783877943969
0.053070883771509
0.0551147956806195
0.046710620362589
0.0488324299405108
0.0398380761685338
0.0517607139753103
0.0505021857257756
0.0379155280747343
0.0448997391212119
0.0521772055960897
0.0431621954507226
0.0472496464348973
0.0529884660293254
0.0388919733825331
0.0526356763621362
0.0513970157046302
0.0414512268215434
0.04125024181107
0.0462260085803494
0.0522410123438923
0.0394608276835303
0.049014637815765
0.0439654105399214
0.0454352382722993
0.0467158078714033
0.0497946449645092
0.0426501773058737
0.0540442107372869
0.0444706415337801
0.0512441477993544
0.0458150604530636
0.041777687060835
0.0475830149838086
0.0520855316641679
0.0525827596472665
0.0560577349081732
0.045650904461584
0.0576697808131721
0.0477420519589934
0.0506014189465436
0.0428261570645946
0.040428392827397
0.0439625291515984
0.0437627646255628
0.0462190861068566
0.0460216462424615
0.0519577251392023
0.0431862657888374
0.0501638379238135
0.0460135065490245
0.0451721880620435
0.0410101166111221
0.0433295952389314
0.0473536850094378
0.0533105069352488
0.0490453904692178
0.0410277264590005
0.0550276053706808
0.0359560420178126
0.045858547182931
0.0397001688890992
0.0404011290290258
0.0449187818736374
0.0504992470165168
0.0487305532685451
0.0469667783688484
0.0425518091582368
0.0442626869947321
0.0437809156304126
0.0392033985520307
0.0556341804122727
0.043472769333763
0.037505620762938
0.0646294215574512
0.0363800070381579
0.0447287412922931
0.038666983206589
0.045581014952545
0.0366520253779743
0.0431842651550673
0.0391965755893558
0.0414623468786317
0.0290517406413981
0.0504915374883588
0.0390780210604559
0.0507949275921298
0.0281081648877601
0.0717059776505935
0.0191076894651176
0.0464074259272529
0.054836145142957
0.0271906162235267
0.064296393656969
0.0378003281101807
0.0391292042693796
0.0356013120047093
0.0392552408957449
0.0379134874276728
0.0392660726102484
0.0355253560259172
0.0415842934966515
0.0673644803044773
0.0248047984255858
0.0422155912062999
0.0373620196199388
0.0478279865640558
0.0416174457240596
0.0866831713922821
0.023565632437233
0.0549782930684998
0.0389158291584521
0.0433666737824443
0.0363466426256907
0.0507117834892755
0.0196925550913514
0.0539187004789248
0.024733835159052
0.045484765100354
0.0278262314121062
0.0687379060709272
0.0284110380656489
0.0451396868824593
0.0401154796722213
0.0459415670960325
0.0623060101560105
0.0253207306640782
0.0335278664072558
0.042349753490377
0.0271838020508889
0.0521955448623257
0.0278900836558144
0.0340161627354518
0.0436525778895548
0.0380809614110117
0.0237630655668298
0.0435614507013334
0.0343792175814235
0.0469985929473482
0.0352741578874731
0.0399850677649963
0.040093243851126
0.114550023000124
-0.0135652183253568
0.0906968455235996
0.0253513787099962
0.0283801367422496
0.0202530891584914
0.0426499721857373
0.0402934615852448
0.0407706262471992
0.0415797162852415
0.0352010484471685
0.0510399874013486
0.0414188232747459
0.0383720996459709
0.044135844090139
0.043921497925894
0.0297364388982597
0.0428281782105658
0.0451880629907313
0.0137766687783866
0.0547568668673355
0.0310572592310415
0.0434202544588291
0.0199352365064649
0.0512880807371169
0.0242873916822728
0.0382546583896276
0.0259549372126841
0.0409216497359003
0.0417218476955275
0.0483276145757031
0.0242040769686099
0.046813658675049
0.0301429131607361
0.0517896622966272
0.0416816495931992
0.0684888817607085
0.0194669802913008
0.0413968690271748
0.0213524035445389
0.0509301399272053
0.0644481627773281
0.0225409259156171
0.0360278120158156
0.0354681865814309
0.0324858455442577
0.0403732181416542
0.0308078431899041
0.0453124157347869
0.0314214545881021
0.0611127308750382
0.0455323603992371
0.0312438914882142
0.0266349133323007
0.0325621592993554
0.0234094147980198
0.0448877763592071
0.0602275172155014
0.0241373952486083
0.0383208899201369
0.0236394213349236
0.0463979265445759
0.0500794784063969
0.0242804710280073
0.0426456802226846
0.0371271874549515
0.0488630639053143
0.0352878616387289
0.0367318928718478
0.0371806370793251
0.0415680257788666
0.0370986028964381
0.0424731187538785
0.0327793933290457
0.0458034233518219
0.0404702879216145
0.0374278782849125
0.0331207796272798
0.0346943428454902
0.0305948851289279
0.054716806323819
0.0261981915268532
0.0425867730153327
0.0320230216038552
0.048921922600991
0.0380157412618288
0.0414008907924892
0.036079749115781
0.045007796841639
0.0352663346948673
0.0456474947795876
0.0475245587998558
0.0341602005041397
0.049717679333493
0.0428872298304555
0.056345634506312
0.030587638180165
0.0421260841728352
0.0322653214156873
0.0510082135978067
0.0339834227424311
0.0509685981919099
0.0431549306109907
0.0422131098517255
0.0402241806549511
0.055413420037763
0.0409043771118382
0.048502465050406
0.0378051680032204
0.0593249021846075
0.0663561380000809
0.0232780340313172
0.0657479666762361
0.0440803454129663
0.0344979964354834
0.0472029895314699
0.0306374687744336
0.0690803768143093
0.102312793778941
0.0322962839690177
0.0424322251879199
0.0421021285218897
0.0430290941105723
0.0364854671028274
0.061950004500085
0.0393951886910194
0.0683419246950941
0.0216223095577461
0.0636677453042231
0.03815530914555
0.0421756367141105
0.0637815384866286
0.0303065386881079
0.0512658823241552
0.0413072751089877
0.0470739185470957
0.0474226369649876
0.059204385132451
0.0374754775604266
0.0595903216809072
0.0419448449084341
0.0591763896434697
0.0475924548243854
0.0437438934535642
0.0471684046131636
0.0537610267595776
0.0488630911185973
0.0512510343014456
0.0450310813984482
0.0531197317568355
0.0599733138350475
0.0444798143488363
0.0728026299369938
0.0586618577281559
0.0381558322107411
0.0603913627605195
0.0506262629626635
0.0548978924489392
0.0493856249611098
0.0456959608928124
0.0468465147120529
0.0513774172507445
0.0517702813182641
0.0522900786689653
0.0707695010737338
0.0497665442969963
0.0659791417401451
0.0470843626870237
0.0544154008508891
0.0496770459509777
0.0555409500712643
0.0495718785867936
0.0634217652410269
0.0548884216203583
0.0573382202234036
0.0741461180873886
0.0617233381849743
0.0513681401834196
0.0952879469942425
0.0386828093957976
0.0626558826456255
0.0506315128209127
0.0658700214256046
0.055070471464986
0.0603827143502075
0.0568477142309201
0.0651416815507839
0.0625857947466863
0.0702836912236061
0.0637208731168046
0.0811939140573923
0.0778313206354382
0.11025791414179
0.0754369766205149
0.0718616268839184
0.0716251753326255
0.0751829477709051
0.107718054786731
0.0504996270388974
0.0926803792655332
0.0697860400318398
0.0690095864956734
0.0822983069371954
0.0760379445197644
0.0903109265763489
0.079818132709699
0.0927271773029939
0.0747028228900354
0.0902111353739525
0.0837581588437454
0.100872302604543
0.0787217551000675
0.11135425244614
0.0920438768689426
0.0935704398293542
0.0952922774210212
0.101826777945186
0.101896662485437
0.140276819855897
0.0842760130813421
0.16022846146443
0.0868945537450811
0.153760013497666
0.118208859899862
0.110336510229861
0.111301018457432
0.116404154047279
0.117382829433761
0.122089561691785
0.118878350321429
0.122394654234531
0.120558998366132
0.135511807895035
0.133038422810187
0.138104861821729
0.13683985563452
0.144553894167218
0.143088891051491
0.137311957004217
0.148736849598619
0.144634251913139
0.173077146313317
0.166261749150453
0.158462695070658
0.144859083904253
0.155918086660465
0.150248852175158
0.173666512860381
0.174134619246323
0.162372551533585
0.171593404388487
0.171593967157173
0.212356886818047
0.172842784871608
0.203964491489486
0.171532839169128
0.183106415195425
0.205060897665377
0.184910737307892
0.20059643622598
0.199757213054487
0.204153365126309
0.208046039808006
0.222792000919234
0.210487217178994
0.218150253794362
0.22109139303674
0.200746862608054
0.230279911628524
0.208946565234494
0.238298884637114
0.210060780732325
0.253752689746997
0.23089997484922
0.251025179726344
0.251412203382207
0.244936846241022
0.240240144497415
0.273995659454674
0.234469569948905
0.27622205431445
0.254831482762465
0.261868341635348
0.264359145404509
0.277572169669039
0.291281587388015
0.285139246653081
0.307156297659848
0.301429602488005
0.263787980032054
0.300807972997163
0.279799066082614
0.308975106362608
0.305026895705869
0.31308195528109
0.306481424771526
0.330472059284545
0.313080831803578
0.345371696112863
0.304712906376094
0.333363717802881
0.331941808288069
0.343327218720749
0.3217033407662
0.351523201302099
0.349348729262341
0.345635399086834
0.371245771569077
0.390646385081466
0.346497046306902
0.383555707550901
0.365884068735827
0.397291614600034
0.368631620400401
0.388808235510098
0.38805767660728
0.422912952246229
0.366887274603847
0.42337752525272
0.405704670539359
0.410738496979954
0.388500046302837
0.447778403505559
0.400592788316816
0.422100267084337
0.43794048174973
0.449360025763987
0.4161520565992
0.458723520957678
0.44444294978132
0.470692048288868
0.442792841887441
0.502961369853525
0.446317448608978
0.494252338949431
0.472850523615036
0.512925602377013
0.467960088845949
0.493454444745399
0.469647939099361
0.510222344540486
0.478335715192925
0.538666396394333
0.508931964233905
0.542775721122568
0.510897520636046
0.538767721058153
0.537320112352008
0.540583892630139
0.503426877071519
0.585340539310648
0.511106817558737
0.567976424594384
0.540786344484953
0.560367640633642
0.535127102737263
0.610333592983835
0.566135874766954
0.608401842741309
0.556575418447037
0.63893560568947
0.57559253659945
0.65593297239801
0.589842967279892
0.621250368473106
0.602013171193571
0.620232216798355
0.604802046569589
0.65036591107381
0.626223909005618
0.686293215100551
0.640080905053581
0.679894970840517
0.648338526942873
0.660086024848101
0.651321098550851
0.670744069877941
0.612940403746216
0.682821505580569
0.655452020983718
0.692089645274958
0.677672377728565
0.736017396251888
0.665941737265407
0.711534477083355
0.679472816995554
0.751774421492156
0.713350086086247
0.734498878568985
0.709119773002441
0.764930784858953
0.693636915992868
0.757302173289572
0.733999928699094
0.76285816353807
0.706681465781173
0.82540313880039
0.779781569234768
0.798664875996271
0.755466995378501
0.84143226121326
0.737118260501845
0.76359557831164
0.77120674636836
0.848022904779083
0.750533663694285
0.813183059837395
0.83205007378394
0.874695758467374
0.804939728483693
0.880642526797422
0.805345338677106
0.84999415006131
0.839727291971401
0.895267490353989
0.851642404769782
0.892697966443542
0.828750863443827
0.915769631173173
0.846752506869919
0.924179599481324
0.929270393378068
0.926858449345845
0.822578000917903
1.02750086666153
0.916357096636839
0.937505098658017
0.910583940411224
0.947074117128834
0.912017659731716
0.954110703979322
0.90221880945308
0.973594293478226
0.90431714547057
0.938698283407006
0.901285413100745
0.984178087993313
0.904594987022214
1.0076002959497
0.977457801002222
1.0382391419659
0.975927590192306
1.04843062633545
0.958642969044413
1.01672893362123
0.976136483977541
1.04375875299724
0.985132767961931
1.05455365676283
0.941338024189698
1.07880923756735
1.014749804037
1.10828283815548
1.01288408767962
1.0543979505079
1.01473382924747
1.1355402873114
0.996809330287418
1.00684274545391
1.03122928515897
1.10729625779221
1.01407900993938
1.07529734675924
1.05142291900932
1.18417027269328
1.16026507687909
1.23088255914755
1.09201086887661
1.09012870030386
1.0495113971414
1.15837842243583
1.08335868970974
1.19734515615883
1.07155119574863
1.10826517178515
1.13699632903953
1.19196621883609
1.09548660217926
1.21585156043096
1.19069027932143
1.19873664117748
1.04785329688486
1.23874673356746
1.14289645835021
1.25256130983833
1.05356387716252
1.12420622732192
1.09014945210769
1.27294681910864
1.24341108605329
1.32281481932277
1.21265107571168
1.23596797510516
1.19437881056651
1.19176043542336
1.18320757779351
1.3093669919126
1.13331521417892
1.2489920601716
1.18446804538421
1.3059489972145
1.17668916743495
1.38996815685328
1.26431219327585
1.21631005837466
1.16433291866515
1.3219563427933
1.19463941851437
1.31577693497283
1.27134737645546
1.23487904293989
1.19314046510842
1.22520688326143
1.24970655062485
1.39387853734809
1.27128938116128
1.2858732754828
1.24500437221737
1.28852015784909
1.19676767813039
1.32490077120094
1.20987866526058
1.29787727516739
1.17564485091794
1.28109511208825
1.28073931020618
1.31577908168839
1.28711148813692
1.4161302639385
1.27895387348626
1.25868735333474
1.29473228698315
1.3814718010777
1.28243397931051
1.32495766780218
1.2879059833385
1.47632629207071
1.24612187509461
1.38713632506544
1.30498260558648
1.33672413457994
1.27956995564681
1.36764818017732
1.34424448998958
1.4969385757429
1.30109432402901
1.40374558789533
1.27764314063701
1.30968375337605
1.27231702213207
1.35901793536393
1.29162058433333
1.30302998235321
1.22954719311481
1.38583281111563
1.36426035573293
1.37250416855578
1.30822847540531
1.32423210719154
1.31243605905957
1.43112289190877
1.43513739028006
1.35730760685386
1.43482537412778
1.45707431001888
1.34799188873658
1.39717781674899
1.24730748936522
1.36878817901192
1.34752717587758
1.34037670567758
1.29437253187709
1.26706617024113
1.34498895866816
1.47277407752559
1.39370540434612
1.39915077378607
1.34913680829275
1.45917185049431
1.31699379107189
1.29757852018657
1.34919693688787
1.33463769410691
1.34615456711335
1.38635069074552
1.32839566023187
1.38291342803909
1.30385428431868
1.40796743578574
1.27836805669736
1.34987533276057
1.39417571506034
1.3564252945265
1.37690795529674
1.36162996844418
1.25862243239501
1.37323213261788
1.37222932740199
1.4643309208608
1.32914520405759
1.41367649422749
1.35719422462132
1.45416322261643
1.3849754300201
1.39137138571165
1.43274964491227
1.40195243686629
1.33556014567096
1.39802519382491
1.28383353850772
1.41450594765211
1.43591610750032
1.46571132780761
1.31832174148385
1.43187574695921
1.45327559131267
1.4506603632334
1.2823458097858
1.30599590997893
1.44335917006755
1.3937837232635
1.25981272374911
1.36198036565123
1.33774285005598
1.31600657545033
1.34439250816824
1.39375846120932
1.34126042100607
1.32822945856472
1.36289799063987
1.43680800496881
1.42855653350695
1.4116635956374
1.38162783794267
1.40412534777998
1.36055832530711
1.3324550715848
1.28686759125329
1.26792350114575
1.28132020055316
1.38365761329971
1.37972191304962
1.35263270867427
1.27931489653225
1.30928056888557
1.3448036520301
1.32251881300955
1.28626154178994
1.32920897310389
1.40171078961814
1.39268242381856
1.30013448713778
1.37898668460686
1.33364508887938
1.32889049880343
1.28485417858848
1.26020757178341
1.3135438882832
1.23258289627813
1.3042098504261
1.3413967530742
1.26623439927497
1.34356743804868
1.29941887945884
1.35500404881238
1.29386075014025
1.28725184965243
1.30633132665935
1.31399179187552
1.25209611780607
1.25016209771409
1.20267752987915
1.28264106816415
1.22393509439193
1.28161461732834
1.25795590637806
1.24934062562245
1.28034458658964
1.30056727916669
1.2587535152547
1.2581209478599
1.26239708288395
1.28966548019602
1.23220062351234
1.23213938744381
1.19875956791707
1.2792091240069
1.23204812797461
1.21008342365683
1.24380991524034
1.24148744018237
1.20141926949806
1.20257717106806
1.20120081367078
1.14516951877566
1.18046262158381
1.2375049409489
1.18668602940853
1.18039531080391
1.15881775009434
1.22176794328048
1.22504429265329
1.20071201665557
1.12845062870865
1.13753953042433
1.16717074510996
1.12118307411772
1.07885303592478
1.16049053537691
1.15246695337588
1.1270655972949
1.12344556616008
1.13891509376948
1.13412337429767
1.18839148317883
1.10736748391963
1.12806764136443
1.09957336034918
1.09764588990684
1.11324518305043
1.05984030795097
1.06292265492954
1.12507099899912
1.12876172837979
1.11181879309025
1.07056333897241
1.06105858240964
1.05413891658487
1.04391696811907
1.04171481370067
1.06483321199504
1.05215492133675
1.04811177187711
1.02783751986864
1.05363396854056
1.0458877484718
1.03605122361413
1.00905318164721
1.04634444408964
1.05508353338195
1.05120728914098
1.00354485005152
0.991949483064439
1.00184116043238
1.00384496508611
0.969530373271466
0.966447348148807
0.998034628486547
0.95542387131221
0.94396455462931
0.983152825445641
0.954029373882874
0.952370814179126
0.971753300384122
0.953921926483513
0.92196452651639
0.934923880243162
0.922896909864267
0.949694912166783
0.91245396671074
0.950665302959971
0.951995160118252
0.917915461188803
0.908920657484153
0.90279561268686
0.891297347357963
0.890404715659781
0.904913287921701
0.908918132395337
0.875276094359841
0.89453710234207
0.875147677296893
0.894621696702708
0.875306384356795
0.861557103361599
0.857113007886328
0.853583340279385
0.863502990335752
0.857559363106487
0.849962129106314
0.823203700537811
0.831041979161073
0.847364875990036
0.808994955094876
0.82901024179876
0.834933934229997
0.816888060548703
0.799207823022022
0.820778131800757
0.797478148747364
0.792015598234761
0.798324914285179
0.788104620130113
0.791488048361569
0.78856477214418
0.777312496451815
0.795252657289566
0.789379217694903
0.774259364174324
0.777675815947489
0.77905930431301
0.760602427580995
0.751195084235737
0.743244030074519
0.752339070987437
0.737655031517337
0.745577706015611
0.73431738831509
0.738220903986528
0.737259439266199
0.729946248546034
0.739339219286205
0.736016579687613
0.716732465051897
0.720055265988933
0.709678723250451
0.717424616621247
0.70285049398646
0.703292523491838
0.696342420232979
0.685838746014179
0.690593319694306
0.702860966247869
0.69201919683782
0.687511817614273
0.687912778552925
0.684384709337228
0.674922966013241
0.67363696497005
0.671055806306717
0.6632767660886
0.663854016516136
0.663725286378548
0.658644585588061
0.649177157356452
0.646997131124967
0.661977479809697
0.65811439936699
0.6496328533811
0.634360649505444
0.636698513833088
0.637467491280371
0.620909772209209
0.611646345188355
0.624274156989785
0.621266072233485
0.611325251575717
0.613036178991629
0.614787270147944
0.612293957130229
0.607078645931481
0.594510321038183
0.595823013542163
0.598417426803291
0.605605592538787
0.589473809165495
0.591244083092001
0.592272610335705
0.570380969862178
0.570985821885065
0.579702928143771
0.576853972406247
0.573233536997828
0.562872922530732
0.562335280936169
0.57362145991546
0.565155878513178
0.559739978130507
0.565691224297388
0.552179427994137
0.551817317485706
0.554279860754565
0.54335743089088
0.541888096490508
0.548244233081116
0.534577365369666
0.536841634472506
0.538082237699287
0.521979877030425
0.520911491492737
0.518828761720534
0.51336720438789
0.515719312215511
0.521558779583737
0.513888865794849
0.510140683715551
0.514437691660499
0.509151537340649
0.499380751099232
0.497040461756531
0.508956943634289
0.495099700191438
0.494963562364617
0.495537272439014
0.490089705030553
0.487479617166928
0.4836472459782
0.484828650812061
0.480743731652569
0.479823271960977
0.47527827462315
0.475301517858709
0.480495248665433
0.469215788758114
0.463229955111907
0.466199850704375
0.462412524727071
0.469135145815204
0.472535702683143
0.468997648913852
0.462448767889664
0.456160278721859
0.457707540144446
0.464791849024123
0.458815200186067
0.457659317623621
0.459459613542562
0.456091206274671
0.453411897574814
0.451131527682622
0.452805733088815
0.447069568340952
0.443956755299028
0.444819789427082
0.45178014378744
0.451299166016656
0.449151830344149
0.459733598027089
0.452071832871841
0.448979019709789
0.449932770046978
0.452412881094265
0.452449331193735
0.446081415053355
0.4523278594292
0.457140907269954
0.458583660154797
0.460678897369228
0.45466086377184
0.458528918045326
0.467049332001115
0.465885449894114
0.471724118972981
0.461968502694245
0.458736015914548
0.464638159719757
0.475195225242189
0.487555592223933
0.474783792775722
0.470863129158039
0.475199491603426
0.488019498979241
0.47739049483272
0.475465152041673
0.479679208261937
0.485993138092096
0.490339924913041
0.497154789338856
0.488116652063149
0.488510276687009
0.490181051089645
0.493812952506295
0.502022662576163
0.502901403099145
0.502329317772547
0.515356007033243
0.503992592293944
0.514493785130256
0.517409791196256
0.520463767731189
0.521947874733293
0.526920992082041
0.528010396430469
0.51774819245376
0.522244227756161
0.531967400038833
0.540420757426545
0.539398732726193
0.542098762093049
0.551044055655538
0.554800402971737
0.557334632082943
0.564954454866303
0.571673528016913
0.570352869038772
0.572123009580394
0.584098826667187
0.576004588183047
0.581324906744334
0.586813834084057
0.580754175658842
0.58470041261937
0.587487733224888
0.600592631504552
0.587770351345702
0.587011975890842
0.593377018750776
0.599981757077559
0.594069523303794
0.594375004782275
0.590067880352645
0.598085957442344
0.594406630443199
0.588490718317885
0.593915157766052
0.596500703614651
0.590109967437809
0.584294306435154
0.581472114597338
0.58320809111565
0.571769742365466
0.587430284422003
0.589331068740976
0.600026253545362
0.574022028836002
0.577108487891716
0.591640694696239
0.589171876904413
0.570095134828269
0.592161254501594
0.588362736171937
0.576955556760121
0.578203612074094
0.580377663485513
0.583733861404296
0.601482091450724
0.576718084206232
0.582618494130661
0.587456944376015
0.579565008661192
0.578264011359986
0.587871583311021
0.582500154711065
0.59549358590233
0.588800757417907
0.590325529340957
0.584467015816764
0.58536965033894
0.586067436634365
0.583351408911704
0.583913919632661
0.584571685338905
0.584014867041875
0.581936842431092
0.579841180028369
0.591998443578212
0.580911956016932
0.574833060998959
0.576776740200405
0.565617584305122
0.570851051136255
0.571557766494735
0.566564836596012
0.574603130997934
0.568891265066006
0.552976089964341
0.555152302594133
0.557571768246501
0.54817458472767
0.549345939282389
0.552176481138277
0.539764905200882
0.542343794528837
0.541897851030633
0.534277375829852
0.529481680372821
0.535822077033512
0.534199057730223
0.530161873580007
0.529973756595417
0.524054876549349
0.508411299147554
0.508636844728117
0.507846285212658
0.499581849946218
0.503956814757824
0.495918788146723
0.498786990975761
0.492843672749358
0.492122492512322
0.484038529951261
0.47238034023088
0.473041664809149
0.479926943027199
0.46533187709022
0.469645452894513
0.462081132210449
0.455487423077313
0.452971416645174
0.453276547520693
0.441221319363941
0.45170964961563
0.454550476550269
0.449852749305541
0.439439895844219
0.44326960181665
0.438981137121379
0.445909628499737
0.426721831061091
0.431411799907024
0.425477747493314
0.417665400252516
0.424282280538878
0.425484145119846
0.420467847507409
0.417323084997081
0.414751877159056
0.410695206396285
0.409396846734787
0.419844666659197
0.41352549531712
0.407807262436084
0.402315876802825
0.410110221425224
0.406636481885332
0.405516401039044
0.400764131095911
0.39590916261998
0.396081333846238
0.388771954389885
0.391973286635492
0.391372301453674
0.388574071427196
0.389265343918711
0.390692774820046
0.386168960342945
0.387862873583018
0.385108496430697
0.384370310149933
0.386908794878921
0.377198410540675
0.381554214298434
0.37704824744596
0.382710910971703
0.380013451389837
0.374770400089606
0.369910534209379
0.37192081466347
0.369267174357306
0.376072083757649
0.362378944117093
0.364989091930764
0.36591141509397
0.366985361523498
0.359195254429314
0.362827842950544
0.362357256690508
0.35931535991318
0.361399680071203
0.359362384157811
0.36302110733582
0.364606095549704
0.350978279901924
0.356335440211965
0.351070347458133
0.348550486846241
0.352402608307262
0.352619034164285
0.349467740923589
0.351427624871786
0.350493106067225
0.35120736935403
0.342200349944406
0.352482335653985
0.349377245574001
0.344716361610347
0.343440538761017
0.340950036139051
0.336457678542692
0.344540377079847
0.340564633686378
0.339375376144787
0.339063349550556
0.342145663015684
0.334315870269668
0.336724668460146
0.339296452234903
0.341994085907401
0.336489617725217
0.333970528801466
0.330082935446533
0.336440492081916
0.329518201015902
0.33342475344562
0.332469503642646
0.3342089806864
0.330949900517721
0.329977076056212
0.33645986954993
0.325070758010482
0.325734959166103
0.327499994769598
0.330158938405617
0.323716145104301
0.325263029624784
0.325858164463732
0.327249405093158
0.329871039509809
0.324255689769112
0.318571377016667
0.320533752038919
0.32648071759614
0.324008894076573
0.32837164804329
0.324058047634634
0.317817666726711
0.314538136433285
0.325137117444717
0.316590576439596
0.321792964914385
0.31810107047111
0.320663650036415
0.318655857630685
0.31863861855173
0.320297867365269
0.322173237277393
0.317005403462
0.322052264257965
0.312206372062385
0.314658615310924
0.312493555574346
0.322385926317444
0.308900047625764
0.313390438902077
0.315334480258114
0.304480021472205
0.30926538014431
0.311106908422133
0.310361119733972
0.304071663190614
0.310795534766803
0.307850323214454
0.307968639671334
0.309813745086573
0.309203512126913
0.305870595312088
0.302302282405125
0.308430332444306
0.308689124430611
0.303446815790226
0.30024936362221
0.302205615961225
0.304317113832231
0.306400384850305
0.294983652853761
0.301264412124056
0.297466344934686
0.299546344665647
0.29969622044713
0.297378933526155
0.29376991050013
0.300518595135396
0.297588686330327
0.29664896140285
0.292142331307933
0.301277312187678
0.290577814460116
0.295745085590982
0.294783513264234
0.295073019418457
0.289056746987923
0.289379555290527
0.287280719473354
0.292055985376045
0.292695301019442
0.290971035546179
0.283717881880151
0.290555747549058
0.288519029106732
0.283234031191869
0.281709093363556
0.281842288430804
0.277423747995186
0.274865611083343
0.281745208908017
0.283597020425666
0.272415639459615
0.284421271669992
0.282445352570717
0.287002000859193
0.276221928209159
0.280490253024663
0.27470881302688
0.272808279605849
0.268973442688297
0.281210858264186
0.272832470604986
0.27154801244385
0.265440427705923
0.272455460263428
0.26514410377164
0.267887247556541
0.268068735037616
0.264249348504947
0.265503792781484
0.269100729535253
0.261971996354263
0.262826482103849
0.260668989247328
0.26550215507464
0.26306026742399
0.264099840345209
0.258199923643766
0.26165719537775
0.261461704961254
0.259714698855556
0.258246593004977
0.257275882856093
0.25271409873938
0.261683844993222
0.251441884357253
0.252178878779473
0.251201687070526
0.249527659961276
0.25264971390916
0.251541528335377
0.245716515687212
0.247892061007732
0.244670473517456
0.247208348315723
0.24429606116945
0.244403686006893
0.239436319409395
0.242257855728214
0.247365641720639
0.245346007140007
0.24263555913691
0.246972340556581
0.239210153616481
0.241875676326191
0.236424378966201
0.24202199574746
0.235192670300869
0.240409511672181
0.237112030935358
0.240068292916838
0.234793751085053
0.235944904311423
0.233917500829235
0.239169517132594
0.231019705799104
0.234688958138136
0.23090170919587
0.23404965630095
0.236482227709575
0.230870695879161
0.230088517509548
0.232809962379581
0.228250509720728
0.229153598294498
0.229518723650674
0.233545356975733
0.226155065020887
0.228861686200961
0.225088645583377
0.226246099684559
0.223119935517023
0.228499098489769
0.222782215880023
0.226203174895942
0.226247272977033
0.223477824557026
0.221765194552613
0.224091225966914
0.221495204395162
0.221828429351597
0.221201951000416
0.219478368384394
0.221707793505926
0.222080401506018
0.22195570350485
0.223707268034754
0.221721982776937
0.219876700862267
0.219095095847
0.22125762545725
0.218851599781657
0.216119749916491
0.216526242606906
0.218343036599956
0.211110657533319
0.219435497565905
0.207853812180265
0.217703129439413
0.217820354253066
0.211765865802851
0.214237342432223
0.213168721823935
0.212175491985565
0.213442851738368
0.212709568848961
0.210069245411336
0.211384630355366
0.212057261827298
0.210078374913077
0.206880010386964
0.21423199971986
0.213926519844706
0.210890500162815
0.208787204611535
0.204701162572149
0.208014354769306
0.209147148892601
0.210673680134769
0.206254455671484
0.208100372335466
0.206334213686682
0.20879404201824
0.206180509612427
0.207967048727225
0.20740329131878
0.205224860294123
0.205083460741658
0.203692889217928
0.200513916166125
0.205611683782137
0.205299181983781
0.208510497826184
0.204530544546383
0.199948693875066
0.203812819468416
0.203953314352896
0.198319059400966
0.202756150191324
0.199809690568631
0.199083440134248
0.199267585850646
0.199310031790254
0.196571133116105
0.203541264266438
0.197900182567437
0.198583389588706
0.19820019766526
0.201856895543935
0.195246733287878
0.200072859205218
0.195751881265024
0.193130381764465
0.196232536030987
0.199973750106268
0.195529155156054
0.198359850746244
0.194845252490429
0.193518706987251
0.192959959338806
0.196983437688372
0.193252505279547
0.196756751658637
0.191064897614161
0.192715686497425
0.192619197372464
0.192277252471265
0.187728080286323
0.190547374241958
0.187264298936636
0.19027899940404
0.195067602352928
0.192516032608872
0.186366643484105
0.186093439160104
0.188615557270574
0.189758521799307
0.188882269534868
0.191420065250414
0.187826186847987
0.191904740593823
0.188432856048024
0.183338744923097
0.186417927400072
0.18754066665796
0.183954235552563
0.181963229056965
0.1847820613124
0.183911348691772
0.180963830180928
0.184714199665271
0.183734565086324
0.184563180583948
0.181880627619691
0.179881235751316
0.178780863913389
0.180304536502655
0.178637643124082
0.180443056217196
0.178528262661481
0.178415286591689
0.177534328416651
0.176734227763169
0.175930700716227
0.176225938178014
0.17219347914561
0.175242385321858
0.171817476666813
0.17272290209667
0.174131976571675
0.175818555174903
0.172763177307969
0.177021818441875
0.168732705937526
0.17326121035613
0.172958875281513
0.168468702565843
0.168180989539545
0.168888116267289
0.169322494823882
0.169421552992813
0.169606163907447
0.169553477515519
0.165443506199002
0.169128808518108
0.167953861302116
0.169544434250261
0.161002312289866
0.167245130762708
0.162657076639671
0.164263119923159
0.160285576267233
0.158167720063442
0.160922720555967
0.166692985572748
0.160220835267903
0.158164004047198
0.158969337117233
0.160092716823977
0.159508361780571
0.157511356785696
0.159456416799028
0.159452084368958
0.158235685972888
0.15849329422928
0.158945403947418
0.158575137995859
0.1544454318449
0.156311170190843
0.153611999917322
0.153087160998491
0.15584106661396
0.153787007855461
0.152302213050237
0.155765225536808
0.150771957299253
0.153928652470538
0.152198145082214
0.153488671574403
0.14997230408835
0.154319794223455
0.15105535315763
0.152760865460963
0.146981605109385
0.15018312046659
0.146682575877308
0.149057774578248
0.143707237145817
0.145189390697609
0.144399574142378
0.143925849543426
0.148649038886869
0.144129494536645
0.147459821544783
0.145503455306362
0.1426366687289
0.143401706349348
0.144373959379063
0.145609331841751
0.141888438625096
0.143539955289194
0.145864710284877
0.142988028944819
0.140376252511782
0.142701039179094
0.139259395006777
0.145188760777551
0.136975185606083
0.1399972851328
0.139079929924986
0.141626464255866
0.139153657236333
0.138688290279677
0.138644116892772
0.135401928005212
0.138689607098277
0.13883973440941
0.13771523241177
0.136828375144661
0.140209667799254
0.139138027315132
0.139187798821294
0.140544968532645
0.135427471451059
0.141199679742157
0.140995125080179
0.133653819102823
0.132680714796438
0.134745342291793
0.132696981237163
0.129213675659719
0.13322079624981
0.134207421518104
0.128631612086393
0.134554702352462
0.127645280496045
0.132080176417607
0.13648283788196
0.129436342385568
0.136650683975064
0.131141794224863
0.125970862930891
0.139015821985365
0.128481882180884
0.126996849503151
0.131471823476541
0.128358283813894
0.137526484176006
0.127088815169113
0.127283947035809
0.123851928099639
0.125554923355438
0.127121256268964
0.132416705439419
0.124489309625715
0.13145896714982
0.123329037433491
0.131445985108444
0.122470324629005
0.134626528816337
0.117305262414218
0.131954918149835
0.117796118099749
0.131053998581795
0.116472740549347
0.134621683335443
0.110763378590553
0.134343617642172
0.108180223475493
0.135699536195044
0.112698639836364
0.143650208676668
0.114683036522837
0.146061947589984
0.104169776780758
0.138859998006959
0.107846443954928
0.147851367264863
0.100355807159181
0.138518373058411
0.103748456031698
0.145519435008281
0.106879358449981
0.135566466805967
0.115107432735012
0.130608504147826
0.117004649556464
0.122584794911257
0.129622787836466
0.118114567031977
0.134025395585836
0.11299919570326
0.133887385697438
0.109970063182075
0.130166154266952
0.112676221721366
0.131378660197899
0.115919153920412
0.121987150229732
0.118962436392383
0.120776618725677
0.120686846536284
0.119669064872362
0.120261559452943
0.12364654877372
0.118929693360789
0.120328783566588
0.117051901225868
0.121077730110012
0.118545918248794
0.123063681466582
0.117950537901534
0.120881450010446
0.117030341930715
0.121491192090477
0.120299796116867
0.121288311890386
0.118060527112821
0.121548484834493
0.11910405619327
0.121593509301162
0.116492221051015
0.119985488211485
0.119572916388828
0.120238005696792
0.118588645928905
0.121202551617832
0.121032796499187
0.119120105169753
0.114946395563724
0.119355284745391
0.118546341282266
0.121576193526341
0.119242408768283
0.121783636316416
0.118693416659563
0.120144531524243
0.118014381860354
0.120286891254275
0.118414861782283
0.120975170576136
0.119933165794684
0.121516359749385
0.116657534844624
0.120208196593028
0.118678130809572
0.119827804554967
0.117474583429521
0.119397546506038
0.117172027812407
0.12125926431455
0.114283880133232
0.120852932456795
0.115656601675311
0.118602547348388
0.119042450865815
0.121219928839127
0.116194070295477
0.120980722447328
0.114223424300553
0.120910431766541
0.115992544313381
0.118706395455516
0.118515791152636
0.118011133459012
0.116205951193467
0.119787460809725
0.116832951680752
0.11876037019921
0.120205560544441
0.121911595259446
0.115108998572122
0.122850094162241
0.121913748894172
0.11935502657222
0.11789066397667
0.120509810021489
0.116046924260973
0.119091097513826
0.116883905924879
0.12053468328534
0.116989972765244
0.12203404957754
0.117234465624439
0.119077310530952
0.116686532470408
0.124014879289341
0.119236809214703
0.122260134282434
0.118433092669435
0.120734260237772
0.117652506519818
0.121700333466923
0.122177786315223
0.121761568492648
0.119323299102465
0.120288480015721
0.119571577009869
0.123054518375871
0.121743514627985
0.121048308743353
0.11897862091469
0.123690346826797
0.118877776130549
0.122380664832291
0.120997049152203
0.123741282081243
0.12019189961561
0.122917559530519
0.121000977128451
0.122175078815311
0.120289213937329
0.123106730651051
0.120286505010363
0.122566727535232
0.122582606398846
0.123379695950204
0.121474083561809
0.122780153313856
0.12019734420848
0.1250349425424
0.120410937711247
0.121617564106106
0.121857260459836
0.124130978664073
0.122784597411396
0.124031161227832
0.119902903688163
0.125974847694453
0.12386429505235
0.123269653199199
0.119484800575259
0.124442219995771
0.124897792718849
0.123005862399115
0.122738155069409
0.125663526187693
0.12340604677638
0.124900440963129
0.125379928110641
0.127382059998933
0.124584287264845
0.125281240791253
0.125171957511314
0.127044865477565
0.124970167930439
0.126337458339524
0.125585484720505
0.126313827139597
0.125062151590297
0.127311185402101
0.125354989790837
0.12963426440449
0.126812471498787
0.129424646846794
0.126665605728058
0.128825705684258
0.125379038444752
0.12708405519924
0.123897301588639
0.129964509493864
0.127517619056646
0.128524315676896
0.127794672043736
0.128757197903147
0.12581701848444
0.129196274393114
0.127341610694126
0.125916438921566
0.126525351729744
0.129723246233529
0.127041888876969
0.126780114171462
0.126505322212936
0.127182075486892
0.124294977975535
0.127620713797686
0.123609196171172
0.126041645583729
0.125189198535489
0.12786041653406
0.127018016038955
0.124755550188896
0.122833853876098
0.125924670790175
0.124181900655634
0.124900324182955
0.12312559765716
0.125008146163667
0.123670862238692
0.124597976233691
0.121986889626687
0.123403634786043
0.122808822057655
0.124974387645883
0.123253500160854
0.122374490206366
0.120077228694738
0.126945435422132
0.121601256626338
0.12394033614466
0.122659892888794
0.121955808586048
0.120279242430874
0.122117908761027
0.120148922806317
0.122733982660547
0.121590911618574
0.122471809488167
0.119779891616891
0.121784502309509
0.120448797621307
0.121101151460565
0.119606093746232
0.121992396974488
0.121496716696301
0.12095379511687
0.121023340311413
0.122443234364709
0.118471796790865
0.119088412045664
0.117794395118072
0.122440854776036
0.118355163132165
0.11890883189781
0.118131258500421
0.120391829397562
0.118986438732533
0.119791367035366
0.121082980867666
0.120916798829285
0.116265061978798
0.121993398013755
0.119250941237428
0.119222956969475
0.1147701875801
0.117922531362921
0.11709426420016
0.117396658184497
0.114761823700167
0.118520671758885
0.119721542540807
0.117505834184353
0.113810513360643
0.116922013711662
0.11674029021069
0.117008922935258
0.115953006446451
0.118865816375044
0.116564340621229
0.115536205422903
0.116350132703171
0.118280399023542
0.11471201543914
0.115851775568465
0.112970917177144
0.115874744460377
0.115729211818381
0.118009075462233
0.116639374115297
0.116757231977376
0.114182604362186
0.115804852130684
0.114081626387411
0.114964170660189
0.115081213031652
0.116517554442142
0.115587518076141
0.114723283705964
0.114717257730661
0.113129095792292
0.111857718265286
0.114643713829745
0.112597167422611
0.114539055170809
0.112387922599153
0.113823198882801
0.113384252977473
0.111871746412217
0.11212892753886
0.112141900642036
0.109267199219214
0.114852086984028
0.111769688772422
0.112569991264459
0.11059524074402
0.113304639062963
0.111449116589644
0.111832751089044
0.10911927080546
0.111149500337178
0.107840001393623
0.109973856633412
0.109281315515413
0.109030123111888
0.105771730551701
0.109352083054924
0.108246125341922
0.109086478897037
0.105148919684272
0.106501329128199
0.10467278514821
0.108668908616413
0.105553224185972
0.105235264362542
0.102561681801856
0.10536200550714
0.103205689508717
0.105734442468844
0.103012762333904
0.103784372717347
0.104088763685493
0.104517182141629
0.10048620364012
0.104021752003671
0.098408516907294
0.0997709902078737
0.101846388005528
0.102765757944665
0.0994370210464268
0.101058816774445
0.0971307993112626
0.100103208180631
0.101442252797974
0.10051276921549
0.0973807408921783
0.0985520299278497
0.0971384938944581
0.0982777926050197
0.0977786812625719
0.0981555069249314
0.0983509947037231
0.0962673026415
0.0986845749506623
0.0981631718303917
0.0996770527800532
0.0967917874459334
0.0978879792341473
0.0963828959252085
0.0952858596301229
0.0940244379671452
0.0954653819184458
0.0955471143340355
0.0947012310815728
0.0958742565509156
0.0951997253575339
0.0962502217664333
0.0952014731732368
0.0945255941316172
0.0927274270260857
0.0933977600178699
0.0898681718896278
0.093881761133138
0.093957884413763
0.0924120815210113
0.0913454526583332
0.0941974145627007
0.0915421625805533
0.0938508052064136
0.0945282985803048
0.0906726547943171
0.0935240841028608
0.0918540890324282
0.0892573680408894
0.0909623285516961
0.0880642770051461
0.0930294396064526
0.089223754164369
0.0926203709750197
0.0908638896796175
0.0897511736997182
0.0894199913849134
0.0918027761138481
0.0883981775109062
0.090007062764596
0.0876892833112113
0.0904793820392344
0.0908215757741308
0.0888785361760658
0.0877958591248741
0.0879782773210038
0.084881429470948
0.0898718457531144
0.0858578157742648
0.0908870967323717
0.0849063992212812
0.0889515293602606
0.0862809670808028
0.0924049670561711
0.0855341956246329
0.0877253000184651
0.0850720217394354
0.0865211121869715
0.0876874846456951
0.0864815839997065
0.0831058224209321
0.0841651829169181
0.0848040423530368
0.0861333424170345
0.083863308225098
0.0871781746142889
0.0859147465934815
0.0852638540456877
0.0846983080696219
0.0856826065441363
0.0840674899690254
0.083851442162044
0.0843828659674462
0.0873279741943269
0.087914006631572
0.0871267147924211
0.0832819363602017
0.0872339992234085
0.0847222820267482
0.0879562958944044
0.0894194176188409
0.0819373866832938
0.0867951338093722
0.0831679251727338
0.0878435854970397
0.0813510394422927
0.0841140374519305
0.0815609191171976
0.0873029370417133
0.0820499795535814
0.0845349870386246
0.0827696803994814
0.0838113720641857
0.0827156278558
0.0833866978690014
0.0828288863164111
0.0801221771557764
0.0836796658022709
0.0819580431118473
0.080780501179319
0.0848482413505654
0.0824465208580239
0.0832834609588752
0.0836295068436079
0.0851226813093095
0.0826901404538577
0.0837079393752529
0.078827167086997
0.0844726431692719
0.0836079245446655
0.0895553490595271
0.0788915938126912
0.0808342899542645
0.0844821046629535
0.0810067898682004
0.0821434530298472
0.0810186252754077
0.0827652985329395
0.0800686991738988
0.0835527365833111
0.0822071860413507
0.0824499571375831
0.0798163915824089
0.0820005921981388
0.0799638013950818
0.0822777817834569
0.0807353080784259
0.082119551961189
0.0791885093315143
0.0795024987397448
0.0835362849102236
0.085839429200607
0.0863868056800884
0.0782203662898938
0.0853514942768597
0.0809736772719521
0.0835404291575987
0.0802810735828245
0.0838241747812364
0.0824209808419311
0.0827668577088693
0.080176706884549
0.0813405646022825
0.0805595609003981
0.0803679615216668
0.0785162057193323
0.0813874184117157
0.0797581330399534
0.0821017843490043
0.082049745675186
0.0808404444202431
0.0807187574016709
0.080841501393361
0.0825616215390464
0.079658086030631
0.0845162853660961
0.0776496966005368
0.0907279845898522
0.0786409148475412
0.091397452202731
0.0769260863649632
0.0876970723508656
0.0769967034408662
0.0831422622797091
0.081992688452135
0.0842520705925129
0.0835567600530372
0.0818854880378118
0.0803350634224838
0.0825132687495502
0.0817376191262942
0.0822954413417978
0.0831135093571507
0.0890980241330956
0.0919126559092938
0.0877886773894861
0.0799298831090018
0.089718083766597
0.0841074226808058
0.0906811722430789
0.0841919577874234
0.081885036415542
0.0839880690038208
0.0803779843786639
0.0869026874827617
0.0834188194158684
0.0876159642300895
0.0858177990369431
0.0851343986982303
0.0840681329027636
0.0848068191705296
0.0854221732309197
0.0839607985881411
0.0882099040418429
0.0859153606888454
0.0872702641215507
0.0874678878946932
0.0858404362337859
0.089581704011648
0.0832237661659797
0.088383519324996
0.085481989593241
0.088736084659119
0.0884072796541363
0.090099267063668
0.0892787938827589
0.0900041711751969
0.0911915631917981
0.0890765121888136
0.0897893718277533
0.0971095671954258
0.08509143115574
0.0983147710652446
0.08677958410359
0.10209228063543
0.091341289956562
0.0938819436274136
0.0921375443299581
0.0883557866058091
0.0925370844280087
0.0886764854433194
0.0986543545161762
0.089399312440251
0.0974651785336904
0.0822208854107358
0.101528647958393
0.0850831847523469
0.10028766239277
0.0896483885568982
0.0970334970863203
0.0915702780841987
0.0989024235997549
0.0929313434873013
0.101728778547129
0.0963075350567206
0.109137169220207
0.103331569327111
0.0921961167135293
0.100610165213377
0.103340413358621
0.0964231718299702
0.102093130027193
0.0941657699651431
0.102691042736952
0.0932416004858121
0.107029844486164
0.102518061978095
0.107724136746114
0.102620530679544
0.100263819173471
0.102356002599913
0.10903904862749
0.108504340294133
0.114215092640738
0.103942857797129
0.111331726218037
0.103337068518122
0.123330708863628
0.0999988120142702
0.130574279519991
0.107007415614068
0.127568984579858
0.114102637589522
0.123369863348417
0.115267005689579
0.123844142891647
0.120486250784192
0.125270950180522
0.120277922887442
0.126973788317717
0.117823869391358
0.13016592967007
0.128200353843864
0.122794832006791
0.129632169507285
0.130212183510928
0.138981949962624
0.143024039158523
0.134062831994895
0.135736064665727
0.140071033533008
0.138934695955508
0.144692069895629
0.135635914729522
0.140375328877459
0.140147475302914
0.144457334223838
0.149750883075942
0.145718234776648
0.151698611561851
0.147339494546419
0.151786278315361
0.149883523301484
0.173277122943608
0.169661739799985
0.160122584636363
0.164910128541377
0.151635600301647
0.175424787167249
0.161751655639599
0.168970962284103
0.167311193919444
0.170414543345124
0.169625878683345
0.169464571555133
0.180481970248392
0.17708296486329
0.190149064744962
0.182747013887793
0.186024963626815
0.189364066719651
0.193401019864604
0.221267608043739
0.194641699888707
0.22858538436111
0.191570117008931
0.226269962299496
0.211420920151161
0.243112626204488
0.231664549232201
0.23446315548371
0.243114501418598
0.253198624721124
0.254366343022199
0.265329374371371
0.272402429777165
0.282916832700757
0.282462880231942
0.299519088652532
0.300161701618553
0.334027394303986
0.318027497055875
0.326891190471099
0.328901014393322
0.340887368102976
0.338410831398923
0.35736135494358
0.353090691778822
0.371994901791197
0.368500330545596
0.405575135361119
0.393243059951183
0.400595906389696
0.415415290767746
0.409772544421801
0.440394188414952
0.417660100637024
0.468607328396438
0.449294572786977
0.467732030813975
0.461937016673631
0.47658168472387
0.49325285720477
0.497835233763121
0.523134674101619
0.509439922160757
0.526308991531841
0.527770720127587
0.540129416278614
0.545028577141866
0.54678862960308
0.558153021298039
0.554075089136046
0.60478724755305
0.615351646428518
0.587997083618074
0.560577491682694
0.570585342015097
0.569561289188166
0.577154757851363
0.600001527056707
0.58673934542284
0.609168699359412
0.588656646787471
0.584375807270875
0.58370424510932
0.585267698171294
0.604204454529897
0.590746309545597
0.598718409375575
0.603525678959132
0.614477781961297
0.604370984158653
0.638781659477781
0.593527807078746
0.591414344801324
0.597300597978442
0.591580505599271
0.586470294255638
0.586413988630297
0.596605191555371
0.582228648179913
0.586581769724388
0.576533024278431
0.573424098147735
0.56563134478201
0.583950949127733
0.554234467961274
0.548251776161321
0.540149133090177
0.539864472111498
0.540479978450908
0.53972188630071
0.560735944663706
0.548402422982302
0.518360398533522
0.528190313262242
0.523207841327576
0.519271372478679
0.514214588341968
0.527166508427605
0.518496778783428
0.514160251597797
0.504307795762632
0.512084105062775
0.501089850805181
0.507655155269614
0.507261455121385
0.509308110699123
0.495950140941238
0.506677553064224
0.497511885252181
0.508753372535544
0.507185562988369
0.518083876965625
0.513895147021906
0.516365731348608
0.51238348133158
0.508618420128787
0.513024346564152
0.517960840866226
0.510796322687282
0.520780470453463
0.508681791346195
0.510351802837235
0.520360321375281
0.520375472682944
0.512229928163999
0.510725154192561
0.511995060425039
0.518073677775501
0.511540671463566
0.50728726705795
0.50637297106585
0.506788749883073
0.50734856981867
0.522979960679082
0.526015301974291
0.496332498260043
0.500016426107827
0.49804425719648
0.487668934526034
0.49719720308942
0.487916465848943
0.496090846105379
0.477106226353318
0.474188020276144
0.471112747284422
0.480765651545978
0.477343267452164
0.473002628109324
0.456489822941698
0.466610954066429
0.451419547461674
0.507173912146868
0.493005741347198
0.470969659821136
0.457303598294104
0.45264592649926
0.465098228048884
0.452992562972637
0.455195541214473
0.433834970439332
0.453107475953365
0.44209001146933
0.447676597738966
0.438369582484377
0.434413745732496
0.433798544194616
0.433265689565306
0.442612981928325
0.43550484593971
0.435586341063979
0.424055169621521
0.425336903856661
0.418514959888072
0.441104329062092
0.420019056476904
0.410208308966702
0.404188644392772
0.401186978499992
0.414263424345874
0.395708450118196
0.401715325619573
0.385791640004164
0.387816390659762
0.382680042380566
0.381577286340722
0.386237426550565
0.366689646201916
0.384198840892184
0.366739725331341
0.378808409209989
0.357837373778948
0.376268773469256
0.363926190404327
0.378166171067877
0.350769267224231
0.351018040014536
0.362246340941597
0.368616141228207
0.355240960662647
0.335859515744311
0.340012645337318
0.34764743412146
0.33267388660948
0.334278374255465
0.328990873098895
0.339939582680186
0.344012467608615
0.33255929466223
0.331493007774726
0.332569779087986
0.320607974016704
0.315130969083112
0.310664571632441
0.319451088359516
0.301745916832728
0.318212842373606
0.308421745523263
0.316724249336783
0.316624353763722
0.31086409267007
0.318736879578542
0.313542301463367
0.314607199941274
0.318101329923499
0.317407001071624
0.334932215204318
0.33118248690003
0.32861236138585
0.330575136635549
0.337120533128315
0.338854579980216
0.333011857213846
0.34087369312692
0.339799498602334
0.356748938654502
0.360686701419011
0.359354183837563
0.363740459984936
0.366417439117294
0.378744730201745
0.394191621679591
0.389901716426221
0.411770493937413
0.396391476984949
0.424716419512837
0.428049474488172
0.431803858697667
0.440686229469871
0.441018306800588
0.450933025157157
0.450883004174079
0.460739611147014
0.466984885722516
0.478776662455016
0.481677004153434
0.475966651225331
0.488952065345983
0.488548692649817
0.497176880058934
0.497062313083952
0.510411710701492
0.516635879525462
0.513148345716063
0.522584495298057
0.514428595381712
0.526204977590084
0.52488262189612
0.532050214051627
0.528229679803819
0.528573395698479
0.540420640837671
0.543357969447278
0.542067012595881
0.539325649621602
0.541754036678816
0.544655963479637
0.549596194650583
0.553054894397595
0.547150815450195
0.557832034884073
0.558181929958982
0.56121690251737
0.571722220753052
0.605282587894257
0.580968945202394
0.578104165471145
0.580374767596064
0.592343260937549
0.585924938870154
0.589395103451307
0.590272539283819
0.611263036103463
0.600053483676115
0.619374142460276
0.613765299952375
0.617833054056036
0.622404085558306
0.626200663082612
0.63755049563397
0.62821489758016
0.638594147113619
0.654574879732717
0.662855234741084
0.66431064504409
0.65665087656984
0.660681724246784
0.655097347481837
0.658459755741825
0.648759727156326
0.660544185091167
0.667505559593487
0.65965369761006
0.667490962020963
0.660533288315352
0.668565271472843
0.65865535406553
0.671498138242218
0.671183018940649
0.666977808678052
0.666886365496961
0.660558728126878
0.666707979510042
0.661830341955873
0.676950890601656
0.666693389219572
0.662532570543259
0.657961827287359
0.670677345273869
0.658789929964878
0.671856117709303
0.654328197345672
0.654065235471737
0.663313609444354
0.670117308379565
0.650263662999958
0.667335624693422
0.677614796605824
0.68331923785842
0.672934697769982
0.679067016599293
0.669612374886651
0.68429870284582
0.685342442636514
0.682283506194252
0.683479096202714
0.693558179243491
0.693199378332504
0.699289688169855
0.688781024008995
0.698356035085794
0.703223879585019
0.701480292050129
0.68736471712269
0.69631369749864
0.684577520546932
0.688147622105922
0.687481956094702
0.688561951593876
0.676653859163735
0.676793034344856
0.663283820132029
0.667520705582203
0.674534331407712
0.670030543312344
0.651846378630631
0.654867058498391
0.646990056419447
0.639067461665804
0.635503360295495
0.635882088286786
0.634622277228033
0.627068849788747
0.626654641554744
0.624441378421164
0.619301615347415
0.619833386137611
0.616788405647207
0.615479680308736
0.613247497850791
0.610825361892118
0.607205667378517
0.603538845103747
0.607874888524221
0.608932893112615
0.612000044998359
0.614468661934461
0.607854368691684
0.615809186664403
0.607077218201935
0.612860794596932
0.611891805281079
0.60662797508845
0.604433879416462
0.606147924599953
0.608344945049209
0.602129135982317
0.602227504149241
0.603248978364094
0.601077272140726
0.607106601263468
0.610581193617875
0.603594622392011
0.603954034686575
0.605390671988573
0.596742077216337
0.60376427329703
0.597143903580657
0.600177655317971
0.605017036838346
0.601264184937526
0.598712219120909
0.601904172679455
0.601089084866685
0.600249344615828
0.603455937396112
0.608972202756445
0.602258589433111
0.601279518309101
0.59702712962755
0.596539706953046
0.596521859912345
0.603319554991205
0.605524930299462
0.601058861777226
0.602604776031475
0.595144733335542
0.58977974570676
0.594526173409793
0.586484919055661
0.579736595040279
0.582127543043939
0.578137783335869
0.572703357735185
0.569691291520102
0.562932338618461
0.557591062525987
0.559239631345111
0.552353362609839
0.546262063860918
0.5468405621965
0.541328762512543
0.536205196787842
0.534919300067579
0.534970251573593
0.532596121979053
0.526147627203117
0.524936913044638
0.530473691929264
0.527849946594267
0.52381734221258
0.524432330044368
0.530426234796332
0.531421264403649
0.5304708865676
0.521200896892415
0.525307019139134
0.526358959504377
0.526884865215261
0.53187605568703
0.530534444249593
0.532206147323494
0.529103832331969
0.536252775696897
0.537537349897658
0.543150266110386
0.541855490402946
0.539528606750002
0.55010842368456
0.54984511641
0.54906283854877
0.554713874669447
0.548300008217028
0.552065991500867
0.557638639104447
0.552773198290588
0.554553846836879
0.554410118269057
0.556847052458153
0.554672402766026
0.556394149006196
0.551572318493544
0.554417839598819
0.546578487727257
0.555114466379804
0.545527161345334
0.548035945573988
0.54438021401429
0.543276598890107
0.539259079769071
0.542037930751581
0.538265635858209
0.533479265044014
0.534863483618371
0.533756663738504
0.535207907958712
0.53036754997751
0.523832786082545
0.526154876359734
0.52403014737692
0.524202052315147
0.523875134620403
0.520608774843384
0.516543631907896
0.518600193832716
0.516778574855554
0.514429714150439
0.509284449402911
0.511247362865822
0.50960487167636
0.509085767814474
0.506951578688666
0.511831263128673
0.504687570721935
0.502050711691158
0.496258210426605
0.49982834993644
0.491020753744415
0.491230791808155
0.493306338758024
0.483979417368487
0.482864592342759
0.479717738188239
0.47486092719006
0.472954849857481
0.469981477545128
0.467394742269479
0.458932806521324
0.458587852796219
0.456364152257258
0.451355717404431
0.450558583727038
0.44970826035311
0.447042316397179
0.447790231742225
0.446544947571109
0.440995724945443
0.441214788841207
0.442611933742292
0.433155152350136
0.439809306920592
0.436117202034378
0.430205152769183
0.427153717088703
0.421301703451565
0.41792115371751
0.413655497076867
0.405300036364278
0.401282024867003
0.397395591642494
0.394574762222421
0.390307915078218
0.388325235685936
0.383464760666198
0.388890547192148
0.389890735492871
0.392808383006257
0.399149986832979
0.403860996053029
0.415204005743816
0.420275214683182
0.429675797083941
0.443921640835683
0.456803874917845
0.472068372851605
0.487034358268323
0.505859199359561
0.521435195609644
0.543203375400466
0.555924784286344
0.574135436759238
0.592748290659058
0.60188246523344
0.622361721878053
0.639060663821687
0.654474666934421
0.672197267950321
0.687943842408916
0.699213728941202
0.71047371308435
0.723660103015162
0.737345611802831
0.753931302560206
0.762665135737556
0.779466938476203
0.783053019805248
0.792078322468667
0.804835232073616
0.814589308553142
0.816158556127264
0.826188268793248
0.824230007005071
0.822760966767531
0.839569451803452
0.832468473907515
0.8368070224559
0.837525738164777
0.835021974840701
0.830731308220658
0.836421131936991
0.83884505980196
0.836395113476258
0.846909989092249
0.838660169509462
0.849231325122044
0.851301109703168
0.847522493918957
0.856773983100429
0.875014422353385
0.868483725114134
0.873548515427895
0.886244915803215
0.888153176363769
0.894264671162513
0.905792573302351
0.921821440638974
0.916987398793469
0.937886529940421
0.947806623514024
0.953127466823877
0.97144078912694
0.994042226095426
0.999057099510199
1.00671317174058
1.02034115048227
1.0281113326339
1.0449975064686
1.05327578595573
1.03670842798363
1.04876439310638
1.0503727211866
1.0509199013
1.06021592113729
1.05137026125328
1.05055788116663
1.05478106538863
1.03166834815649
1.03966067347713
1.0310263169038
1.02840426268799
1.03297194657861
1.04241885454786
1.06333966213774
1.06819987391447
1.08062881453076
1.07892650151463
1.09508450005105
1.11201888955752
1.12285539417943
1.14595499601929
1.16518437673827
1.18397852737302
1.17721270604517
1.20618714694781
1.22973563033332
1.26059859904593
1.25669311939608
1.26171512827608
1.28571265299516
1.30049774952953
1.28151823494726
1.33709434561825
1.35669343502492
1.35193133352137
1.4001369832858
1.39576705144622
1.44854534558961
1.49981176557336
1.51502584628135
1.52190526324522
1.50103754102371
1.55384262945392
1.57020553293896
1.56983077123629
1.64521311710208
1.6403137422652
1.6034272697898
1.63758105167836
1.60440167114019
1.62372327810062
1.70982442961512
1.68981963927533
1.68541407984614
1.64300160331422
1.66857499792673
1.68234467993978
1.60411492810462
1.6473923650403
1.6701517217516
1.6925638877395
1.70527136405646
1.68252697534866
1.64960652123276
1.67772952903004
1.59003433362391
1.69691246244121
1.6788231981879
1.75161167110152
1.70593177537826
1.73143778126682
1.72542684417455
1.77327292337384
1.79946027182861
1.83950295083719
1.77578678398894
1.88484532502819
1.88083699909536
1.83520041739743
1.94696763789468
1.8721410242448
1.87648787030181
1.8772705369657
2.03264184273978
1.89799533558848
1.87232256469242
1.80617280656495
1.93248293369721
2.01634126386739
1.89459548484934
1.88899543704569
1.7991298493822
2.24827420624429
2.03338810057227
1.99714724225523
1.92251724320574
2.10193846331803
2.08202143071079
2.04274963627185
2.00964644704029
2.03032505518289
1.99807512664858
1.97595257976173
2.08144657757161
2.2215254369381
1.92683431181708
1.99734708464522
1.87288752668496
2.13603321643144
2.19783137988137
1.94038162727478
1.88507440962644
1.86654221371036
1.82586698693419
1.7726968493026
1.72652844189304
1.73118410125348
1.67500612389627
1.64975430800584
1.58036995551775
1.64495924525644
1.51999770099412
1.51264534308262
1.49182672323364
1.46906985858183
1.48029655943983
1.54998621128401
1.5061848696993
1.4751840972713
1.46775179926885
1.46300400385106
1.42846231553794
1.48321817977385
1.41527365798508
1.3966709378782
1.39386293875044
1.37288408193894
1.39003668952592
1.39990158460237
1.34957856070481
1.32083800977227
1.29292232946421
1.30587531428606
1.26029817009777
1.25862290957232
1.19247365346206
1.20432007628591
1.13812673354157
1.14151812393664
1.09228460134088
1.0492780477955
1.01439115596351
0.99073390845132
0.959086204912703
0.924085588928204
0.878412551932842
0.864346059844151
0.828512957807338
0.793939634520551
0.774583644187721
0.744325333680865
0.72147061711543
0.715935342613995
0.675912165290168
0.666734041007687
0.650306188641313
0.648770453885658
0.634826398399917
0.622952180949275
0.617247970837662
0.61846587672314
0.608338171543788
0.604724089435231
0.598177615587037
0.604034851595253
0.600191588264922
0.599066808733923
0.599011794801646
0.602483802092652
0.60481903138978
0.610034781261499
0.602631338919109
0.597600393328381
0.604732977080125
0.596428391105473
0.587271767102104
0.582336078401025
0.582204935153694
0.57930807004941
0.57244843658768
0.571119216836042
0.565798446727074
0.568845585386714
0.561160414635743
0.563193328975967
0.55507805736672
0.556683614656361
0.551909392979379
0.564207883558168
0.557929176461553
0.55585478948101
0.564809939050605
0.569368110844866
0.565935476297061
0.564961116282334
0.57367128801283
0.570670403690628
0.574515494232963
0.586141271688297
0.578424581792069
0.59536928428861
0.58557086292516
0.588028429534862
0.587203087174137
0.597033547505438
0.580511743106322
0.586711452053618
0.591410656153322
0.592787935413059
0.589849808411349
0.589443075761835
0.591613535318205
0.592389159242906
0.597093026731517
0.601494728168208
0.596098076158298
0.611042917053552
0.616963178634557
0.627107309191613
0.622676511033047
0.644264726473357
0.64708403019663
0.671025563910872
0.695001543612522
0.700061965103169
0.72175892481668
0.742554494262111
0.73859828786864
0.749306528721832
0.748308509275168
0.744701111504062
0.755822885405882
0.755309365409384
0.746502715359547
0.727046454872899
0.715638903156268
0.71657008129105
0.699823240442555
0.706894499720977
0.694341731992918
0.692108118135092
0.680519704311375
0.69335221695515
0.679100751126629
0.688800260548345
0.691318700538632
0.701456360330118
0.69057943284558
0.700249718645122
0.683914853884244
0.688481174085169
0.683660656393806
0.675610912562327
0.666750783003246
0.683052849839929
0.652976413576628
0.660498500521906
0.657788350103658
0.651254857781111
0.646544293064729
0.638550975400761
0.643095788369477
0.638406870088715
0.630133091173123
0.630410095284925
0.647682605788594
0.632694152962999
0.618881266051243
0.627567565478067
0.625197080723689
0.630553722105458
0.609253622708574
0.619551012208878
0.597007158381914
0.609135958303944
0.623069814322348
0.624587033892369
0.599767593415681
0.5992980159339
0.586149701243123
0.59203524405887
0.582923055409469
0.592304597560237
0.590498485401593
0.570088308280623
0.557020554556507
0.584533327219395
0.58358234219141
0.585105529940011
0.572752907537736
0.580477004285698
0.564837060224445
0.582431942675409
0.573733483176898
0.575830598828523
0.567722045687953
0.568717944528012
0.570113460415763
0.567305727015878
0.562836309752419
0.580917759634787
0.567683308061316
0.57796664337201
0.553232415003846
0.56649810425856
0.567491964658593
0.575227291860081
0.56714557763679
0.562685816887947
0.563660684200181
0.575531401803106
0.578304239492558
0.586042132780437
0.576034544242697
0.607076621998894
0.584898117749478
0.584046415312777
0.578848746377343
0.597414630105094
0.592222514688175
0.597672632349679
0.624664825306167
0.622997136290734
0.603764541140174
0.623106550307581
0.621243597530602
0.632777581921912
0.650194801658325
0.663421241812023
0.638829409876039
0.669402100677549
0.691550963503791
0.715882313844839
0.717403327689963
0.725825140095132
0.730632181416361
0.736360504029107
0.775177817101893
0.790441717842287
0.776898716978208
0.82091280736944
0.825928682025066
0.869409332061822
0.859753601979178
0.914980471135013
0.901165782323423
0.950127305910072
0.894113173011627
0.887980750645031
0.851659103471928
0.900246859772055
0.8993204938866
0.910543301138275
0.879741078933525
0.933592628015117
0.880861759132895
0.880683261749661
0.951703636633228
0.907120086154809
0.87437631649799
0.93803759388955
0.919488292439507
0.92186541381626
0.869930879394847
0.863518999099293
0.937697313222704
0.949207479097405
0.875768868291965
0.85800103409446
0.833880504962596
0.853944608648885
0.821950076824896
0.833275930802174
0.806584870245385
0.871891080575605
0.858301922410041
0.822911850223058
0.828015373418502
0.775696541919975
0.800869009204187
0.845578045982365
0.845904857024714
0.885818799865978
0.802080337653688
0.806078842290785
0.80626660466072
0.887972080781696
0.797200353674439
0.785404286599452
0.916975996362284
0.858175907472276
0.809371488770493
0.852443734961146
0.823130863915348
0.853071546964912
0.803777297026653
0.825693994479993
0.79710871428524
0.847542061665386
0.861210110010111
0.834585095600383
0.873820611638439
0.900907431521801
0.844540802677919
0.907164459333499
0.877499315646752
0.822573593068764
0.841175298673548
0.923259564100306
0.875777606673794
0.898773362091159
0.831774064061924
0.965408345504982
0.871356065995486
0.940906493499035
0.948997378269177
1.08376425754552
0.9935061162042
0.943795207203156
0.902450083185167
0.953717572411653
0.912205049237905
0.969952927379368
1.00823406460796
1.04066050615222
1.00434509118933
1.07146301751462
0.904767900871252
1.11836709151662
1.14785408826525
0.92189947168061
1.11362784912364
1.11337767427948
0.945607807697735
1.18786139262148
1.68692162831462
1.32318521082451
0.928975232577974
1.16732817919015
1.27510687283849
1.46328001832398
1.2321031947947
1.18812926095377
1.13536375069422
1.0731046009299
0.854730212728251
0.931347280979639
1.14932041030899
0.869570687934883
0.785065651546457
0.952643170389948
0.858737274274274
0.964768742875452
1.19132825059159
1.25227049261431
1.01744485903074
1.02989815783343
1.13991930542059
1.27293310186523
0.953383869790435
1.40914485209165
1.104153367621
1.03946775283227
1.21209419189197
5
1.38741009775095
1.24697937960578
1.25972982744949
1.06218547747335
0.987416184391887
5
0.983892016439282
1.04560911862026
1.16613721469953
1.21322520960666
1.1126903862085
1.25866760921451
1.06348593015812
0.790423159648389
0.680128577808986
0.996501651853389
0.785564356863434
0.74587081974928
1.35940304273755
1.26647097258555
1.22833908133471
5
0.40789811785163
0.464657924574735
5
