3596
4000.36533379555
650.420452594757
1
2
2
0.029072066977528
0.0326564815773821
0.0314054611379769
0.0279921828141884
0.0278732716591517
0.0259276631675494
0.0199017127336308
0.0305608895546271
0.029163935520201
0.0321485780786389
0.0295704503113991
0.0318034915685475
0.0277766088453308
0.0249880707097765
0.029449503383631
0.0273510402970104
0.0271157786141413
0.0277587329356133
0.0255148293207144
0.0255700647024469
0.032262985148124
0.0245454327504454
0.0270006666585549
0.0297627524466434
0.0270114730705836
0.0270417783178949
0.0348472015079425
0.0273179421042673
0.0274160760153468
0.022517810506448
0.0212065984277679
0.0299784870818276
0.0326275763794477
0.0220827370642955
0.0275443492405546
0.0206791611421593
0.0242275206355429
0.0212732490463861
0.0308434091668319
0.0315232500297802
0.0267551354389647
0.0269821032820265
0.0257433694536604
0.0361053571245384
0.0295740079326358
0.0249891392748703
0.0273208501139231
0.0275373860691619
0.0295838792983868
0.0294819755879489
0.0257037450296034
0.0290848315086292
0.0317374924432303
0.0281421161027049
0.0324101431868444
0.0218499618865074
0.0238569757659108
0.0265063566001072
0.0290029433658803
0.0293920182903823
0.0372073737448183
0.0256859756425989
0.0336069721884806
0.0306466035952775
0.0322463175037042
0.021382796971807
0.0259698659652814
0.0193554242953473
0.0343397116049847
0.0222851684291303
0.0313886916060961
0.0368762485442101
0.0260710282690457
0.0219532340332774
0.0252414999089177
0.0237184030638765
0.025476996308365
0.0220029504717313
0.0265286168169987
0.0263072370375653
0.0256264498607225
0.0284829829711922
0.0248268791210219
0.02170690557792
0.0374408561985064
0.0254462564585119
0.0301822882763144
0.03569252908939
0.0226492664851249
0.0286416961855838
0.0197176733663805
0.0178548893208714
0.0262798725183075
0.0210549344610625
0.0209914941139373
0.0264040435684614
0.0200218030525249
0.0266352871759818
0.0211435339036388
0.0268285109967033
0.00941204821332896
0.0636201438535785
0.00163985678602316
0.0301154100762186
0.0268513962029382
0.0185103886773868
0.0465676638956424
0.0158899462806227
0.0288225172172353
0.00944326186239226
0.0211018514115143
0.0135844020528851
0.0295350569051655
0.020038201424085
0.0238366053625898
0.0392395440285318
0.0238794251265833
0.0224155903757862
0.0228418387590819
0.0246454045897623
0.0274025931563728
0.0639088456164805
0.00719535578981867
0.0364542662030209
0.0186784801303867
0.0225600824267808
0.0270581672121603
0.0376076599457967
0.00677711878441046
0.0324149781346812
0.00536377541441826
0.0232899687088995
0.010247687527557
0.0535678166905008
0.0169359252174863
0.0251300879329876
0.0198137407408949
0.0268227154704716
0.0330101671982314
0.008365167612602
0.0261064731900357
0.0214482037276707
0.0131346654716691
0.0364297177475394
0.0185028056244226
0.018829693603577
0.0271580348458892
0.0369070996284126
0.00645489701365254
0.0251883724369329
0.0121899327246183
0.0262978505371367
0.0220375685984534
0.0260939392988402
0.0261860249257093
0.070673509894175
-0.0200212476044963
0.0662568345613378
0.0047842352130829
0.0233781308978169
0.00636683701519953
0.024705351480415
0.0196193539493216
0.0231949670716497
0.0215708524220785
0.0192513807963875
0.0338370919565418
0.0208305450298741
0.0275228347644396
0.0376384090448582
0.0231584090413583
0.0188213887911756
0.035223165060635
0.0177754881396469
0.00909344148536455
0.0482922563802973
0.00780051500571974
0.0250948166461049
0.0137963918834593
0.0376088133395747
0.00654937654286131
0.0225519181896663
0.0179578989393003
0.0265816730760543
0.0222546789602973
0.0309736961220347
0.00823239199152497
0.0268535310235981
0.0123047023773617
0.0342988736833542
0.018146515971332
0.0495545507619456
0.00676952788944827
0.0194609528560855
0.0091812373897927
0.0453971897951083
0.0374947292840265
0.00432234625106614
0.0316109433864789
0.0231696116160696
0.0146596573338124
0.0262925005630768
0.0156584780625032
0.0274473307096835
0.0161482859200872
0.0421058310255569
0.0341392395413005
0.0201000541111278
0.0155447051635704
0.0179406361984538
0.015210600233775
0.0276279233276323
0.050996137575519
0.0198485347229233
0.0243415495784912
0.00714954114585983
0.035612810930164
0.0234114145663506
0.00503451892195553
0.0275986976464717
0.0160780113511965
0.0268176082082381
0.0213353173175017
0.019111754785077
0.0148026855973335
0.0231019677971802
0.0170999024245796
0.0251362956864154
0.0174426726071275
0.0242265908395192
0.0295076512928462
0.0215395797844252
0.0175135152246768
0.0228029441512863
0.0142932858470472
0.035190613609291
0.00968979653873167
0.0243622778905185
0.0191979116267582
0.0363434652866283
0.0223480332599075
0.0263738197503815
0.0175325446609674
0.0327233991711403
0.00654473176139895
0.0363013961871019
0.0183416242265259
0.024854598461111
0.0245845095351885
0.020887584616899
0.0317440548088838
0.015324910086008
0.02380766359211
0.0197868255337312
0.0310850595469355
0.0217836322553047
0.0373398690774653
0.0292800089946721
0.0222085458979981
0.0234527949063384
0.0322068708045063
0.0251484987368801
0.0301421529691583
0.0181770891525194
0.0486984385943928
0.0324649072848684
0.0135428328520406
0.0598216296974521
0.0113904496451574
0.0261684335653787
0.0324706998395923
0.0136546655743719
0.0529090222867892
0.0785210432062873
0.0186983131610171
0.0225833218318578
0.0289149585591636
0.0217755493429343
0.0193540024227275
0.0372631958536041
0.0197878151919553
0.0490595072868358
0.0176330574348451
0.0572642264976555
0.0126242731359785
0.0267891009251699
0.0359866394641963
0.0103596185590173
0.0251347194735879
0.0185194325186687
0.0231858468331484
0.0295496784869043
0.0362309570165386
0.0171469777453844
0.0343480516568636
0.0208424518456881
0.0465046729969373
0.0320612927742868
0.0281427469624151
0.0235264381565251
0.0320606910842719
0.0309254514608649
0.034064960679876
0.0267888413673818
0.03037919147525
0.0430310227821001
0.0191963940244968
0.0469751773961284
0.0256951458291409
0.0230352326825291
0.0409468955293908
0.0323172667922747
0.0344412345145415
0.027151145510651
0.0289403307341911
0.0290422584082089
0.0321169734008308
0.0294886257083002
0.0328801326845512
0.0419610479293472
0.0214516179830016
0.0382948775151572
0.0267018689858364
0.0381873628039611
0.0219797725245892
0.0394458766729606
0.0311810652440519
0.0423095617293723
0.0256686512027529
0.0306740752655657
0.0455578086191293
0.0369410273743186
0.0328113455549469
0.0702090182722454
0.0139585308317989
0.0434313826702595
0.0229227194588172
0.046773021997192
0.0248063323763586
0.0378207770486057
0.0417477523189217
0.0393816548673512
0.0430597253467476
0.0540238227990359
0.0367158615170101
0.0520343144997208
0.0563820870663119
0.0804170095264274
0.0455223450613745
0.054058550918819
0.0438673073192053
0.0468809161710119
0.0747037476864813
0.0268669236915731
0.070718481841401
0.0463960835385304
0.0461499618968369
0.0572192123471262
0.0529369168716361
0.0609200174518125
0.0510928740267974
0.0661020627631468
0.0475823628261133
0.0689303749280243
0.0514731667989713
0.0720694248781955
0.0573787312974323
0.0782584602407955
0.056231503007099
0.0618768907933757
0.0723547759365265
0.0800074312242029
0.0734730335481868
0.112067500614265
0.0471153329829807
0.145286796473991
0.061744743832821
0.122443809496414
0.0783260649661025
0.0813292519744197
0.0776868063117011
0.0838852411313838
0.0794723039967258
0.0934506708245744
0.0910846933741802
0.0984758354088423
0.087271182599973
0.109802657493688
0.0961130236612393
0.106309765898808
0.0927468819448736
0.118254018504902
0.106337431300307
0.107783885393267
0.109571111060111
0.112407024503618
0.14352211690655
0.118882660447956
0.128550669983833
0.110625649036477
0.132086150484375
0.110529845544002
0.133396878768117
0.129956804087826
0.130277044625462
0.129836325409717
0.132113226434364
0.166888764218705
0.129202461460664
0.149287683169086
0.129227384455723
0.157683469730381
0.156020146171678
0.145048619004243
0.164117747666043
0.150823777996949
0.149464575899533
0.167479230906869
0.190976088368831
0.158318243147191
0.177727294090166
0.170409356259808
0.163397257383921
0.169494702534831
0.176749476686085
0.18429323262192
0.167935885885592
0.198456415620185
0.187116090960352
0.204359150479686
0.179624805605551
0.200821035697764
0.188089083276027
0.230350217874668
0.191733045845933
0.217326126654071
0.197340390275025
0.210146583952611
0.220487445662082
0.22509207950156
0.238253414655641
0.235800751195056
0.249951110330075
0.241403603906878
0.218564779210363
0.233129909833426
0.224615781173381
0.250777764202489
0.229361882451769
0.258498342488149
0.259366671199988
0.263553051102549
0.254868562852907
0.273682656529377
0.242574722090761
0.276678054124763
0.262033776855264
0.280564383728891
0.263474514586096
0.285048145016077
0.288405578317372
0.285538529933722
0.312800515800005
0.298926356723446
0.302944864950188
0.321597583573416
0.293996719081418
0.316422169010338
0.296683788460309
0.325811193052848
0.317200565850161
0.34977369034856
0.301593784438729
0.340373475270922
0.322822279969664
0.343806869173082
0.319040244971948
0.361191724213424
0.336340678326893
0.37441485833206
0.363947740730298
0.373609040189505
0.347569975744137
0.366569142350712
0.37304019047179
0.395134662806355
0.349572740982174
0.392623869012113
0.375362027984091
0.406583696723174
0.370601633943974
0.397386294696431
0.388251033234548
0.401399209412147
0.380264668456166
0.431584724001597
0.390049458065797
0.453536579080595
0.441362507858394
0.423519868061666
0.421224604709135
0.451945506985784
0.432195631915898
0.47352965042665
0.436053267215274
0.458618022738483
0.450142857037947
0.482959684110055
0.439036290242357
0.463243834497043
0.465171953153793
0.495778425932769
0.463897966350288
0.481275862682666
0.47620036647898
0.506926454991263
0.46428785567353
0.54133174373394
0.51863216902235
0.530990087459929
0.486620337101433
0.561171244599306
0.512752463033173
0.563164832413497
0.51144247672011
0.549136183507568
0.54867894172209
0.558473828347178
0.540243069965149
0.560808477022061
0.543587762357869
0.567451707359147
0.535832810985767
0.595105587099321
0.540148957564658
0.575288917094863
0.570170323750566
0.639772890039583
0.570389379953369
0.617613174400096
0.581872358305519
0.624143514792965
0.621738969482676
0.6551696785267
0.621909601860127
0.65019697570266
0.619199434561866
0.660173747381897
0.643616170860911
0.647831152631103
0.614992007283278
0.703627515189801
0.617513755123334
0.707367405951136
0.667391565067792
0.724679988686262
0.63578405038433
0.696725222488467
0.661620335622635
0.731724952770707
0.67054149389059
0.739405024310369
0.695954088126312
0.758834051894083
0.673194112253699
0.726522109895952
0.678853220378443
0.733826924290484
0.720475370255243
0.79265762185238
0.708964985184375
0.756225281623163
0.777620828051239
0.738616076938016
0.737296312793398
0.81387794149766
0.735743749561149
0.795043137271632
0.742439002676073
0.840581936263682
0.763259611702663
0.817965714343134
0.819005959453896
0.850137861832948
0.795546702730643
0.823470621231081
0.797244732940711
0.886606855525039
0.752366713772487
0.867912669208575
0.835048332105527
0.890995194691155
0.805624053602759
0.891532260439398
0.84554255357915
0.87627586999038
0.83900756692699
0.874204048735189
0.822749238510685
0.912026258112512
0.807242459033724
0.868393470889539
0.801759390663905
0.894238930658387
0.831071633159142
0.946759283324255
0.876141192256325
0.947830818945028
0.871696323904913
0.961222236665495
0.866672549044836
0.951634803101092
0.917197706939663
0.979608326010474
0.941119055701792
0.947563917444915
0.884104013509185
0.985723347905216
0.918950333652796
0.960490324574132
0.900275126587707
1.00277904006411
0.906475528530675
0.985773808337621
0.911082353328698
1.04024192512088
0.922273813067778
0.965041155474483
0.883141640856169
0.96490325086956
0.991968775596384
1.04372838888236
0.927262659926682
1.08947824230253
1.00159427940057
1.03909237717184
0.989048464924109
1.0224186056933
0.986545172427218
1.02622150380882
0.967630610046598
1.04941429643874
1.02689976350479
1.05835914037256
0.995355874821361
1.06781544088329
0.955168949224486
1.04780501593028
1.01030980266352
1.08954096309963
0.988857482325154
1.01941101491384
0.98720658480011
1.11402157191284
1.05914089948255
1.12346545051716
1.10962223642821
1.10960487675145
1.06121436143076
1.20751708711375
1.10437213934435
1.08994241722916
1.06913009787294
1.10260448171777
1.11508007774471
1.14267741348547
1.09554477115378
1.13228480155859
1.05691813899417
1.09941639436506
1.0518357737866
1.06283418943557
1.04496451890208
1.10210421569196
1.0638375090984
1.19895963046816
1.09899088649793
1.10843629351793
1.07671966492842
1.14318638409842
1.14227782119504
1.0940315489366
1.07957349563024
1.19300598402781
1.10740332563317
1.12237399220653
1.14735334818432
1.15829310510466
1.1628710795022
1.23202081627655
1.09241029772766
1.14019589912052
1.0806498222232
1.15361669685113
1.12211900591464
1.17723766532684
1.15303618577748
1.17843458851226
1.1188087555314
1.18027820868216
1.10536967535007
1.1873464467313
1.08382516892359
1.14669631321598
1.09671799051759
1.19249743288872
1.1286781461241
1.21591812828991
1.07054313050873
1.15821442049415
1.17522881308789
1.22670641614005
1.15598766897548
1.1697255608304
1.1070365927342
1.15050468798393
1.11148681035131
1.18215818383655
1.23522832267218
1.2296830344715
1.08554496269629
1.205672100978
1.13887908754935
1.16079529881087
1.18118590117159
1.22499943429525
1.14042743854266
1.26634801793601
1.17670075444361
1.2293395169018
1.16042076733763
1.29863983503876
1.10302473491815
1.21879805617838
1.15874883763613
1.1980199740984
1.0678789282034
1.13371342593953
1.07021612138059
1.15145458167922
1.12558958122387
1.16238798772629
1.1374681109447
1.19921081448882
1.14425745008374
1.19373841613658
1.14934875389592
1.22259348404253
1.13270559797751
1.18217738986778
1.16094473233349
1.18766278616731
1.18330903656984
1.17166808899753
1.07705420528369
1.13308656905929
1.0799193083891
1.16772478159174
1.11387006206108
1.25444372720679
1.21423968383305
1.21108150909667
1.14872637463102
1.15976397794871
1.11164690866967
1.14026489495659
1.15671544760549
1.23580349685489
1.1841938501581
1.18506049260347
1.15937833061548
1.21186450259616
1.15643087101927
1.19647238718234
1.1130929543985
1.19700014340573
1.13768686035738
1.23020718478193
1.14210342450548
1.12202516880947
1.10872853016764
1.19133372156477
1.12972098673681
1.18155409440574
1.12931940069497
1.19258813308843
1.0977345797917
1.18730745772692
1.15947590768859
1.16963795861146
1.09216936018554
1.19534428157588
1.16853193454713
1.09462078081891
1.12395938274452
1.20258366668432
1.10946463770898
1.11556242305409
1.06843692195186
1.15319933705402
1.06557577099641
1.12381508690179
1.14785542510608
1.08022719099003
1.06563886105124
1.08841733642919
1.0888027981318
1.12143713292026
1.09133689538767
1.12237413978827
1.07416594828679
1.17454962433608
1.06940119469794
1.0458423767906
1.09781294344029
1.10503094606532
1.07330543407622
1.09940560302705
1.05312281302222
1.09817603329122
1.05457773427022
1.1321262690061
1.08069466358936
1.07646697396717
1.09347209704143
1.06144617958419
1.05848887398443
1.11665346562931
1.0515298709095
1.09231343130368
1.04359411688725
1.03925364842574
1.01027357741396
1.07504054630767
1.02866466694278
1.03559546553787
1.01308497330718
1.0545164993131
1.0265292201838
1.01026325634597
0.999411167843562
1.04637355121186
0.987346398840115
1.03111619189003
1.0015115857476
1.02076340338896
0.980628237568557
1.02406009725264
0.99464476127299
1.00972555960773
0.977941166700304
1.01668012727068
0.993114967202309
1.00906585725294
1.03477514506148
0.995235578943736
0.972083880526327
0.993656445807422
0.959697474709133
0.982137114974906
0.951959440825192
1.00771319564002
0.939816706644049
0.963624457992842
0.924077016301097
0.946093134129904
0.941854944864382
0.938747465818738
0.925456926351529
0.937704778118073
0.932449976512727
0.930601736257669
0.908467999502539
0.934565928388837
0.919007281238672
0.934953710708077
0.900224458314705
0.939637855675358
0.893019330497345
0.889749162387508
0.910611848018443
0.901964841675334
0.882658092032043
0.908562530457732
0.860997233524949
0.871050295467252
0.882985062612811
0.873967657634035
0.86259599800758
0.851100652929774
0.818360481164771
0.8648070363271
0.861870031157868
0.866720385301481
0.846985363477838
0.86406645188962
0.837094210077666
0.836801366556498
0.835483933443745
0.84190340276883
0.824807586936116
0.799889119469168
0.78752535151164
0.824441629265391
0.804670550006071
0.824407835739885
0.818525512254603
0.803646287552465
0.790222345364856
0.804554061297758
0.777778108831286
0.790749931158652
0.806731922815295
0.779747346936565
0.773885161369774
0.783248998378253
0.750899935236009
0.77932433761391
0.758028442834947
0.758187257619071
0.737833569555377
0.761449259702255
0.747093547562764
0.762505660405671
0.728476192633221
0.730923803215184
0.739800244542019
0.739424077476205
0.726630206459359
0.738116679972885
0.71415620673454
0.709505718799876
0.677711261045397
0.694752774048712
0.706635276470588
0.717526176748979
0.69964024207588
0.692907807539634
0.690586798340156
0.69355847453865
0.681236620012732
0.691812968006624
0.689854135816407
0.67952001549437
0.667741738056877
0.670427506293033
0.657791426805969
0.666799511707684
0.64943197078116
0.663046291311926
0.648549959090774
0.654713749335076
0.659950077858699
0.658164043034804
0.649929208105047
0.637305491086003
0.628272093466795
0.651735871565169
0.62744867125238
0.614383193584519
0.617017929989967
0.623591190875393
0.608837196535043
0.628727326686217
0.610865644819054
0.601736503171429
0.594817424329306
0.608529159435897
0.602949560688496
0.601046796867064
0.593666903030631
0.602181750981258
0.58560204397334
0.58488319074356
0.574456919167674
0.570406512273236
0.576622453963305
0.582482264736804
0.566408441995591
0.569329357664473
0.564938700274455
0.569647861449855
0.560690283958406
0.560023276173088
0.55644978019757
0.556033142379852
0.543988534062823
0.550915036104566
0.536799735713711
0.537206147126154
0.545956351190301
0.547163142373837
0.53936009558055
0.541018551986817
0.524128962984394
0.528811863292733
0.533064927136807
0.530243087740299
0.511867474481347
0.525210696261075
0.516991101645079
0.51124293564656
0.500140311494545
0.512491491101817
0.50853094750528
0.505512713618931
0.495406564034152
0.4933642575
0.485081116283532
0.490493149881325
0.490769500179947
0.497492293369006
0.494638256985694
0.479104242607086
0.4775790750246
0.477315080763357
0.468665942019279
0.476860033400732
0.471662593811439
0.467808354692853
0.459139992545321
0.458794018831521
0.458220453054789
0.466583094537708
0.453803183603797
0.450267784685809
0.449649701073569
0.455375697867709
0.442313715619193
0.447501913285915
0.447019272721471
0.444863131564193
0.441102828615702
0.436527228374362
0.431730853419796
0.435099687947425
0.433368278804034
0.43236296406971
0.429819056435294
0.429081829149263
0.417494240561402
0.426278907330396
0.423936462626873
0.419915981302988
0.409176236908205
0.414224372562027
0.417649984390045
0.414633626334662
0.403794533698339
0.41230153240089
0.403070290567539
0.395010019431898
0.398114962859537
0.404757601292145
0.402658139273752
0.399116685431185
0.39626472044898
0.395909497379614
0.38916364271613
0.394467614126907
0.392106895201689
0.389183655819916
0.388540579748148
0.387614814460297
0.382128551697545
0.383325769708744
0.375825505430631
0.382450718180103
0.374759662203391
0.377819661903853
0.377626854456468
0.377084430127964
0.3787689246126
0.37305272526736
0.369794215441275
0.371005435756463
0.36391364809554
0.377471247821075
0.374753818281477
0.372269915813871
0.367479150332275
0.376408372794923
0.375821027880372
0.37224610274874
0.369039457151105
0.370277983586039
0.365078687575119
0.375208641988028
0.37458857523725
0.380620046254442
0.377780106738021
0.375960363759541
0.378482572017989
0.380761368593826
0.378406318297126
0.383169020312567
0.380680509475923
0.388871672258481
0.383922934792485
0.385124022428858
0.393818072053406
0.391856113263782
0.387662678221648
0.392353269286178
0.392127725006674
0.39858997200677
0.401484399990367
0.399586907702023
0.39688485907066
0.39465713477262
0.397973904733515
0.404767026398073
0.408397477196587
0.409541828367051
0.408957915932199
0.408782556884114
0.414537635787213
0.421550159753708
0.421274132282834
0.414557042607571
0.418320582091567
0.416039826641731
0.417040327807744
0.42782179765426
0.432495957806692
0.430881991775352
0.437594948753918
0.446925864325467
0.447884250412632
0.438313189289099
0.438642179621416
0.455410761067044
0.447868867178476
0.453977364597699
0.464934908845722
0.464618057113955
0.462694038225556
0.47630022377737
0.476599780243293
0.478378616207279
0.475396816893873
0.4769883123341
0.494959341309243
0.496829226301592
0.49107229636151
0.486257198497187
0.487537219660505
0.498045927677318
0.492526472232995
0.502806409479855
0.492803161770411
0.494842912583439
0.496766465053731
0.495201683145341
0.496965560370173
0.506226389055903
0.500966569259098
0.485554373520067
0.495364121727083
0.504414016837768
0.492268269782674
0.506069181368385
0.494508802847514
0.497395714843614
0.501799594060411
0.496934412289886
0.500662167052721
0.492967837444925
0.49911391885431
0.498525488978118
0.494126203752083
0.487823629922525
0.494709673559112
0.498544230457559
0.488626216414605
0.500110750302069
0.494248191570316
0.4956358050573
0.501473244368858
0.495707474347852
0.494150176810453
0.497918731022074
0.501328876489553
0.504163216562162
0.496826539209365
0.48986778289622
0.500755169260958
0.497204722792504
0.510031796571678
0.498347564476227
0.488964716725368
0.497969205637917
0.502409981701277
0.504183077898488
0.503439067816355
0.50653280320823
0.49947551687797
0.491892919950956
0.499031322520646
0.495961699478503
0.492380191091068
0.494995616198824
0.492636542144067
0.492451972512023
0.491607781087253
0.496094381472142
0.491820866478311
0.488618094318582
0.488890978902207
0.482622335194379
0.483240047763372
0.479685480949302
0.474645403730898
0.473019517529134
0.472904490073521
0.476082090604553
0.464540167757364
0.460177204430055
0.46196563563732
0.459823266681285
0.458177946178693
0.453439224603576
0.45629777065449
0.450114247545756
0.449703754992749
0.445305932861472
0.438093556472375
0.435666308021638
0.436492702720052
0.425929831378678
0.4260925589707
0.417277996311664
0.411066391139053
0.416524329877943
0.417354425983869
0.410972515495163
0.412311655917109
0.408611930712385
0.409272193280233
0.39592773868955
0.394109936144653
0.399533133626801
0.391732759181409
0.388116210109684
0.386418730348111
0.380534673613766
0.380570107162412
0.376472220827752
0.378384220981235
0.374655306862658
0.370949977667694
0.366928641050251
0.373270061194881
0.365077195059445
0.363329954708196
0.362568843391025
0.355406682302356
0.356758338594709
0.357016168812231
0.34760573345892
0.348189550230004
0.349001783815667
0.347864910853639
0.345277806943772
0.341582921647982
0.338895685766729
0.337921823779711
0.341831498178637
0.338117450517489
0.337678059442689
0.340172051632313
0.333133675527774
0.336179210391761
0.340153718229851
0.330888440766827
0.331675040357966
0.329444753741389
0.326686602952276
0.325258148467052
0.328764913015051
0.322129566089039
0.319594413490711
0.319454688781882
0.317968872461249
0.319816202836736
0.315389074959871
0.31779519740918
0.31379669909424
0.314894494646957
0.313378669062251
0.312544605897848
0.309121018165705
0.309062244684659
0.309259019293765
0.303047039747915
0.297561005544649
0.305334756003243
0.305908779357353
0.305379667270902
0.303944882608497
0.305769686564178
0.302453929335367
0.301742153193862
0.298194587135874
0.298101281144896
0.297001360340377
0.291835087418043
0.295060181063962
0.294045778556161
0.291671489973241
0.2912712536841
0.293783855497763
0.291331348254406
0.288519319639998
0.28419105042046
0.286594041805768
0.285659090662261
0.278500946630558
0.284141735939001
0.284119204545684
0.280830288987715
0.27844643865343
0.281436315503592
0.279231505860749
0.283542274101909
0.277243210395487
0.277512689030205
0.280952603379902
0.275561218406197
0.272267771397802
0.274159369238093
0.275958784561093
0.275168451510444
0.27517303863576
0.272759526262025
0.270989138385229
0.268867366767237
0.267043670065452
0.269750661021714
0.270224700441012
0.269104265795788
0.268186485863689
0.267175838343116
0.269108727249271
0.262939919556988
0.266714544794501
0.260399880242584
0.262261876373674
0.26086827680167
0.267627224363276
0.266957402474133
0.266514061881674
0.263042176795473
0.261888095755976
0.264965130184077
0.260188851150796
0.261145871543611
0.266040911388568
0.263780058068174
0.261199756182848
0.257386960382385
0.255707891959135
0.260887875319989
0.2551963843592
0.259598253273042
0.252306956867197
0.256825262174694
0.256896571179136
0.256168347310266
0.256385846931311
0.258270715447663
0.25563843578627
0.250865777182025
0.252920959617915
0.256481099696467
0.250349805061002
0.249222083192735
0.24893030888642
0.252087582271858
0.251779750125979
0.245688829145954
0.248941278629002
0.248819179059509
0.243577154922347
0.244380185479444
0.247324276644438
0.244801465035798
0.24604270083547
0.241700484673379
0.244790069409138
0.243540551836638
0.241597648122478
0.238895407380804
0.245032136756468
0.239939676793133
0.239941279099875
0.240411607092679
0.236594370503413
0.240262055157234
0.236132283825033
0.236029539502144
0.237239784948643
0.235264626433207
0.233406877409201
0.234664215175169
0.23125326160258
0.236321986690036
0.231375505259406
0.231402484699092
0.232728087813297
0.232045036723515
0.224753399658913
0.231264496949992
0.227365597870912
0.230552121421773
0.227957814511157
0.22745608874629
0.227911251177414
0.228352876050369
0.221873108750554
0.226825026707425
0.225559863423315
0.223740873895137
0.223061901686203
0.217897844109053
0.218286243185815
0.21882512322642
0.21727282999372
0.217913018684412
0.22128348493992
0.215657122114592
0.211816645577571
0.213804206266969
0.214070939905712
0.21563846891133
0.207561540541744
0.210978453689356
0.20608861558379
0.209060974377142
0.205123335644018
0.210434631219137
0.207238084542438
0.207464440761954
0.199792817203252
0.204729789262986
0.200844812133517
0.201528166726073
0.202397480732964
0.200484396508084
0.197863659927708
0.202474126467416
0.1987079965321
0.199873313248444
0.19878936160608
0.196756558713622
0.196772649207243
0.195812565532751
0.187118523909022
0.197269864873319
0.194827555401017
0.193804982038753
0.189903983139924
0.188013673676685
0.187917848554999
0.19117963952676
0.189261718796888
0.18637905338566
0.184162712713772
0.184750469160852
0.182031017712295
0.183058359288138
0.177246446263012
0.180708001906546
0.180099101005765
0.182021770021473
0.178535440419876
0.1831418202494
0.175126888468269
0.17586004954862
0.179350649508389
0.177337431952915
0.177407085040599
0.171785813315206
0.173818238897806
0.174269016397021
0.169577107453615
0.168013742845544
0.167525885679957
0.168471893210175
0.171262310923587
0.170324564627335
0.167862839086616
0.171544125880634
0.166639758689837
0.164016224132482
0.164365311426574
0.158033787884691
0.163304452841513
0.162651693446488
0.160518463159814
0.16149466805911
0.160027822757805
0.158567026903355
0.160234776187648
0.164156849148453
0.15992353859294
0.158532730218855
0.156305396492532
0.162014865207515
0.156634253340826
0.15510443662874
0.156168256691873
0.155367272970526
0.154159827033383
0.155037395077588
0.150715774998423
0.151450002479078
0.153563840312913
0.151497558270205
0.153630525145053
0.150334345287528
0.14914104264576
0.150708524365776
0.149047578330161
0.151608092278363
0.147264509003812
0.149567440593877
0.149876735502454
0.14807714885856
0.149931311073003
0.150953555300823
0.146677848404822
0.14543779776075
0.144897197082723
0.145587146805192
0.142793783839353
0.143801448027265
0.142368407787308
0.144879266299282
0.145437261748892
0.145335146860884
0.143564715084581
0.142728131016637
0.143559235314595
0.141224674256026
0.142028434530138
0.142078417349026
0.139033187423071
0.141012839005348
0.142725119897167
0.136359783944271
0.136528239770313
0.140244439109838
0.140898499521045
0.142524201202249
0.138372875608564
0.136983647681893
0.141199900662273
0.141334058950783
0.138165001587295
0.140879529014713
0.138609567037928
0.138052620153913
0.136936873744157
0.133343070284395
0.135480682807099
0.135575429672087
0.132974458057625
0.135394738495812
0.132003336203582
0.135757310182173
0.135340470878245
0.134960646466563
0.132109962255762
0.133169806378934
0.13167700582847
0.13222888211289
0.127496089804141
0.135305382955706
0.130777171723364
0.131799699448768
0.129288104272256
0.130158806790971
0.128010436668863
0.134700290540195
0.126515398731019
0.129101205790968
0.129546982700769
0.130904955211196
0.127390371526143
0.12802134115682
0.125043632524705
0.124617678620953
0.126420484601594
0.129563568805997
0.126448550390985
0.127113600321497
0.123371420308525
0.125330785241774
0.121938283930382
0.125772632189952
0.123919099686229
0.123164763967048
0.119170694308958
0.123433102697157
0.122498203329285
0.121848654945833
0.121616163325861
0.12340169683606
0.119032940153032
0.120258866188191
0.122016868793811
0.124850723248645
0.118647911142793
0.117507850065029
0.117850222639003
0.118807247820355
0.116600156280635
0.122663546130326
0.118277873757762
0.118023635051834
0.114719282681214
0.11488875976744
0.111598188021553
0.117133343466536
0.114576616208841
0.115204351637919
0.113334113465927
0.113854712172936
0.110553197715395
0.117363390628574
0.113071020433301
0.116118461849891
0.111749460782281
0.113689324614563
0.111108529647224
0.111576733817865
0.108813170007587
0.112183265027744
0.107259090337739
0.109751865236326
0.108748181227584
0.10895875555407
0.105329559916211
0.109215121221444
0.105854890870568
0.103252916184893
0.104288601695024
0.10586233347716
0.100637496266696
0.105761927127959
0.10405138500244
0.105094305863362
0.101673156537983
0.105942598283685
0.103753289026309
0.102476563181615
0.100780813583724
0.101716079559187
0.0975873372006106
0.101322737395111
0.0992586757557368
0.0986654883238603
0.0985661939140769
0.101351509196298
0.0994356769319553
0.0989553092969321
0.0941137988563195
0.0970136849877436
0.0971986474491074
0.0950652391910659
0.0937059900692256
0.0927574199002812
0.093292993201604
0.0984091414151968
0.0938200782149326
0.0914743832007432
0.0915021749559254
0.0927175967243543
0.0920889131270973
0.0907417345991921
0.0896984388698241
0.0922788987432046
0.0911741312504615
0.0908648067263576
0.0901569519055768
0.0907753030480767
0.0879688596002735
0.0890896066730929
0.0891252557459933
0.0886087288369073
0.0864064013353847
0.0838428812405296
0.0840125004467416
0.0890407639158003
0.0855407043823484
0.0876385260561138
0.0883346413905336
0.0822576798728576
0.0849595307775325
0.0872046909752173
0.0829373629787452
0.0875262125814391
0.0855878020794754
0.0852311441127104
0.0824425123156879
0.0849460143545362
0.0813874180364654
0.0806083074270939
0.0808655067972421
0.0802076368907726
0.0811328945706153
0.0822490977018979
0.0817895187734463
0.0814274588363846
0.0786128816535234
0.0809124467053259
0.078882671892139
0.079515935965516
0.0751570114814016
0.0779342988532967
0.0799821815120818
0.0795476967983058
0.0777148639510467
0.0800224871061329
0.0768067782249732
0.0771000144756255
0.0773549728032882
0.0767815720908312
0.0754008084478638
0.0755849128895525
0.0758088948837599
0.0773555660128015
0.0757724712707613
0.0735007040953843
0.0754997717775874
0.078763032037886
0.0750663921764393
0.0764258522326502
0.0764223643773525
0.0765716961598155
0.0775816318212895
0.0773152779066438
0.0764508013824854
0.0779417649970051
0.07717500694777
0.0732223791861643
0.0726194541633627
0.0749286302733248
0.0702789452949114
0.0664906076054725
0.067967423386521
0.0687933742598201
0.0723807089005511
0.0701745793490737
0.0665735359312121
0.0734400524374461
0.075196282626373
0.0677328248758227
0.072296946717726
0.0728001967356407
0.0656294019518626
0.0816660628372111
0.0704289400065256
0.0627719848187484
0.0693829163930107
0.0682010836622664
0.0725153544864096
0.0694614839052246
0.0685276501642475
0.0686375056945608
0.064924497635923
0.0645884928973209
0.0748838085387603
0.0645637955507807
0.0685900743424011
0.0597554536641999
0.0688422802120661
0.058783198705509
0.0730842304570418
0.0574520562423718
0.0744307291471296
0.0606686000407332
0.0768620115374348
0.061828762999534
0.0802014296186924
0.0534284012845168
0.0788902522607355
0.0502460965133507
0.0769887211333928
0.0519325096422602
0.0895497346161681
0.0544057782327724
0.0903312466208702
0.0419096948839467
0.0870365291571366
0.0447739765718847
0.0973169211077546
0.0385096384991611
0.0858409626047013
0.0382170875055531
0.0982106896840241
0.0466567165229445
0.0806472080496551
0.0538942226784153
0.0789161101006271
0.0552589646742364
0.0684223091957124
0.0695427231902809
0.0617582411548715
0.0752447598898894
0.0536883605135299
0.0766186778715966
0.0515767371783558
0.0766903955238123
0.0550945721887711
0.0720149016954462
0.0604726724701274
0.0636434152844983
0.0613128654394231
0.066595644161853
0.0652186198005135
0.0637962204645485
0.0636791162368109
0.0646872747384667
0.0635054450162975
0.0670422431475707
0.0611265057629978
0.0666917002779423
0.0618255332998649
0.0649840732799551
0.0603492211440639
0.0637067589717187
0.0623758567394817
0.0654473270135622
0.0650908324904916
0.0638857938997976
0.0644912932310573
0.0651949055113117
0.0631094568667933
0.0647610590269726
0.0632807081243255
0.0662043131499891
0.06385217803337
0.0672350239872559
0.0649944891866814
0.0634076327043877
0.0628439153727709
0.0658744939027315
0.0621157612770122
0.0637799930385681
0.0637885228984878
0.0651760812885257
0.0616031518213932
0.0670089741387208
0.062594721322797
0.0659785075107129
0.0646024542944067
0.0639213511893305
0.0635939040955762
0.0662143345818723
0.0640239154913229
0.0660593825682132
0.0631806347912831
0.0651259332186646
0.0611877845698647
0.0652203629800528
0.0641891801566245
0.0644478029395541
0.06323348492257
0.0675852524400891
0.0631898324879426
0.0661074409895386
0.0629792057232906
0.0649426200194577
0.0633392781928652
0.0655262380366045
0.0600329490124519
0.0635477276200654
0.0617435456142717
0.0658400691699409
0.0616140567452454
0.0670193600055698
0.0635901598626848
0.064904361920907
0.0618421597299503
0.0648822503462713
0.0604857556010774
0.0665217894834412
0.0645062412991658
0.0648903913240228
0.0631693988771224
0.0683483622321684
0.0634869164527864
0.0631648111007561
0.0664296212935198
0.0645422782388275
0.0633416438676941
0.0664082773644854
0.0636909236600632
0.0637902056908026
0.0654189516904589
0.0669073695631373
0.0638868069248326
0.0656951475682523
0.0646004239669444
0.0658589732786364
0.063402399531746
0.0652659169164788
0.0660336628070951
0.0661406052172552
0.0642989123708995
0.0656634570985853
0.0638267368377102
0.0668440081329765
0.0637879307435395
0.0668864917338849
0.0646871169329991
0.0648063711166753
0.0649357881673959
0.0688081567724325
0.0656677734507334
0.0677990090613711
0.0646990880719887
0.0694330867521988
0.0655702052281833
0.0686289484341128
0.0667798879550337
0.0679306368433967
0.0660726343904045
0.0694801078639906
0.067291736006639
0.0694740132230391
0.0670139958612849
0.0693036636871094
0.0675652206249565
0.0683894861422838
0.0664315207380312
0.0688550434412503
0.0645156329893452
0.0687453529956268
0.0666346103332844
0.069302164447305
0.0679800228693274
0.0712610026839949
0.0666827600867381
0.0689187964052549
0.0672267666566662
0.0700215010572022
0.0689583528620272
0.0719171623124027
0.0691751817807115
0.0706152943579096
0.0681039707256771
0.0697343754188522
0.0674020581994088
0.0706927913216751
0.0677843472075718
0.0696625291437472
0.0679376076931183
0.0746329991023674
0.0677489219203004
0.0706143566768602
0.0688796559476346
0.0741477407890064
0.0685169812099357
0.0719908309017487
0.0705099198273064
0.0715561573357606
0.0691912987575665
0.0733919485272019
0.0713689711164683
0.072420506793916
0.0728587364054264
0.0735132057543026
0.0723252036877251
0.0749402316093158
0.0712609435980836
0.0737407288235522
0.0705842738034546
0.0739368047946137
0.0725699487463315
0.0747868924753384
0.0712418011538964
0.0739318545223486
0.0723490389035316
0.0751079906399742
0.0713878110368613
0.0727979519284167
0.0727911502822662
0.0749669664864948
0.0712504772188775
0.0703686838701066
0.0717266447321531
0.0707980664385708
0.0707624900492958
0.0730501616735495
0.0707442716172691
0.073302990422176
0.0706838858858455
0.072732406261997
0.0705116918311272
0.0715176130426878
0.0660779497933098
0.071367879471196
0.067292123971487
0.0702577498178835
0.0709853715306654
0.0701812088727895
0.0712627659655938
0.0728151176534
0.0684729635158422
0.072302333371113
0.0703782082001158
0.068965347055896
0.0690540031965035
0.0682545448087998
0.0696148950968573
0.073360608660844
0.0666012226994144
0.0698105267418049
0.0664616163088589
0.0692288141923327
0.0699762164755981
0.071074029441287
0.0684592012053015
0.0704740795949766
0.0679522742542437
0.0690086449913917
0.0675764025409348
0.0700288394041352
0.0655205983597883
0.0696962516422831
0.068417583168215
0.067353885536227
0.0651083882007839
0.0701799984991831
0.0669454868455191
0.0684762276128903
0.0670775973962162
0.0669214339427911
0.0643946127703795
0.0669871920915196
0.0672050007223463
0.0657599807372605
0.0658085715034367
0.069329790697887
0.0669776958107097
0.0687507643055833
0.0681580420702931
0.0683163083024651
0.0664907648856009
0.0693431705859688
0.0673254041635979
0.0674781839689594
0.0651678919574125
0.0665152130953602
0.065765863210208
0.0664068917233253
0.0655859831395682
0.0675739804910134
0.0651934884441481
0.0676644667496129
0.063481884038745
0.0674469441445406
0.0670295193780014
0.0658887156981157
0.0664662023444183
0.069141017158588
0.0645065003485305
0.0649912240058949
0.065792614055937
0.0685253587829434
0.0662134955995478
0.0670479192001351
0.0658016805230127
0.0677607493575717
0.0660181850506046
0.0677239799398483
0.0682288862181516
0.0679925464320517
0.0656633135952824
0.0648173025030029
0.0653475813172177
0.0669319320145107
0.0646689357078599
0.0659314684911591
0.0658379797708203
0.0678806105567473
0.0647304035735885
0.0640301961374602
0.0628031790916153
0.0640987689323937
0.0627570563629109
0.065393575348501
0.0634930392650871
0.066066389260911
0.0644022382596545
0.0653214408330867
0.0634601925573984
0.0665187100905882
0.0655911815208044
0.0670314199738244
0.064100854601178
0.0655371111641517
0.0646095312579035
0.0659209449463467
0.0617601454298774
0.0625962124359517
0.062409768252169
0.0635807524424502
0.0632610635931361
0.0650945288881194
0.062331208490975
0.0621077854777242
0.0625176233035107
0.0654903155257532
0.0620847018243537
0.061246702299481
0.0598857398529511
0.0613190969465248
0.059544250657205
0.062444986233226
0.0600448468878808
0.062699348318741
0.0602890311775035
0.0622333542868686
0.0607944055437977
0.0613680659589494
0.0587244819068051
0.0607188537042471
0.0595319951231175
0.0604949297047525
0.056565682532215
0.0590800758269092
0.0553172530193574
0.058762840101531
0.0594712315669005
0.0593353728335113
0.0569833033038716
0.0594119461853568
0.0560387646811694
0.0580881334565134
0.0564768077390643
0.057668630073287
0.0575566021185513
0.0583655317684145
0.0559241198948158
0.0579414886202368
0.0559744839245766
0.0569543433058712
0.0548036180190424
0.0557711555780541
0.0574469549723313
0.0567336802109442
0.0611949773807481
0.0570285297309365
0.0578336174938043
0.0542773910388338
0.0546664275779612
0.0524108810660556
0.0528520680510048
0.0550486800803502
0.0540659586948124
0.0556605278998409
0.0562241252218911
0.0579974114728576
0.0558547426809238
0.053523058121068
0.0525681492110285
0.0543491819855071
0.0527346004469677
0.0557817404992187
0.0551595341687945
0.0550039642233433
0.0530886850637299
0.0563407544012268
0.0551996760007587
0.0562137160800601
0.055407990459618
0.0526883202148591
0.0556796787230266
0.0541333758149654
0.0532994558524403
0.0535243423659803
0.0505267353708464
0.0565982721474754
0.0521704428330003
0.0547775436397951
0.0526424471290632
0.0532980821522734
0.0492298322059663
0.0530237142017251
0.0516615165804153
0.0538194006749845
0.0521705534667836
0.0550972090173621
0.0551334518112482
0.0528379670871475
0.0515197538806717
0.0543692750730609
0.049560986511098
0.0526602165173426
0.0489819966842737
0.0569046002818938
0.0504767611645465
0.0548719850952957
0.0509488994261816
0.0612882046579184
0.050422263741333
0.0548445221032523
0.0523615423099197
0.0529597348087827
0.0510608737216413
0.0526056995014981
0.0508622068739745
0.0508402135542403
0.0502551361237234
0.0530007010747493
0.0493031569606618
0.0533771597731627
0.0518708190376318
0.0506841433397519
0.0474950965892768
0.0501356190764316
0.0504305955839985
0.0506704034811629
0.0500612486063632
0.0532104646311122
0.0550189343346101
0.0538564093764229
0.0480196703986887
0.0547530000631692
0.0498983230819436
0.0590168861835013
0.0556507408540584
0.0477439862501529
0.0543943839750448
0.0493913212114145
0.0544630878422186
0.0486207106794106
0.0544895444716826
0.0491710094385799
0.0542240653857146
0.0496206177935003
0.052332922881174
0.049972334670155
0.0520462518855617
0.0505862156112813
0.0503599182975536
0.0515528465733866
0.0505702227034423
0.0502381116974634
0.0489557310769764
0.0501716123636949
0.0522814665285617
0.0503791955690765
0.0522474681770179
0.052014147756396
0.0543172882416249
0.0494164801502174
0.0523744607842856
0.0477160159673441
0.0539231451800154
0.0549639976108981
0.0592718508523875
0.0472765241319912
0.0507012851213419
0.0516145898291077
0.0497915768592442
0.0518507317599779
0.0495227772436122
0.0511663501894133
0.0503369875939825
0.0532710561450335
0.0511058483537594
0.0513705791569985
0.0488870563837985
0.0510713253192827
0.0498611964230069
0.0498550937523757
0.0476024434616661
0.0528931252026128
0.0496904703698614
0.0507395771664771
0.0532642285034147
0.0577104806349263
0.0605197782692691
0.0482511715818587
0.0538925087377267
0.0487220597905208
0.0546951727886004
0.0496114685286673
0.0538336396900867
0.0509714375278201
0.051591051759704
0.0501514205136073
0.0513086681307647
0.0485579994187185
0.0510497167986617
0.0485573250757831
0.0526599859366347
0.0496513889634114
0.0515012161374968
0.051015171241703
0.0513372942519161
0.0511263963893527
0.0498254896036295
0.0511506225599129
0.0499179992665797
0.0546007608689588
0.0511582816282867
0.0619416267957216
0.0467054967596472
0.0671808957961032
0.0479292969641911
0.0587709429762481
0.0465158990593625
0.0533287731821636
0.0513801862231268
0.053192640202258
0.0530815931893401
0.0534205689628523
0.0490906179696021
0.0517386193522469
0.0508985769806608
0.0539783709235453
0.053231915647401
0.0590175868400975
0.0654208538184601
0.0592854811712411
0.0479530980247363
0.0591067694836923
0.0524309526617527
0.0637738875383437
0.0550723897410517
0.0516168981603308
0.0540708354245323
0.0530957898371312
0.057972237752462
0.0522309423463517
0.0569013177698886
0.0559930649807354
0.0565175255258223
0.0535921378412122
0.0544734254512146
0.0534069068943362
0.0531699780987174
0.0576144870111568
0.054549008812367
0.0565756374425103
0.0553913533908944
0.0540571952507603
0.0595187910415838
0.0531163670209139
0.0564547594760995
0.0556060463215112
0.0608699304151461
0.0580545182594553
0.0602591701023432
0.0596656579508468
0.0576274003252014
0.059616512126568
0.0600767415202686
0.0602247677995344
0.0649933077818317
0.0519763391175299
0.0683761643440457
0.052501156275951
0.073881890740671
0.057121885699549
0.0626536367553868
0.0596397608022836
0.0576000649558666
0.0584025600948281
0.0572803565725461
0.0651624984641715
0.0559840879688581
0.0678992156520053
0.0527758779753719
0.0738521739617714
0.0523919445671344
0.0708106338159835
0.0572044979041703
0.065163396151203
0.0594921428792661
0.0664581258734175
0.0562696022198147
0.0713954239686371
0.0628625603753355
0.0772144818323622
0.0697779991620543
0.0608137468386723
0.070798143686287
0.0688300268852006
0.0647387553955366
0.0714928479094255
0.0612889547627755
0.071436149568686
0.060124455594363
0.0727312514909239
0.0671597424467501
0.0779982027917816
0.0688418342789553
0.0661616585153266
0.0692021850431625
0.0736035114598036
0.0733628350704894
0.0786154484967568
0.0665159597056679
0.0758256210521385
0.0688142776096046
0.0884624939231617
0.0599979949737733
0.0973282868207928
0.0655729012256356
0.0956731849848097
0.0758080177635506
0.0854851734900589
0.0767898161814666
0.0870963642318912
0.0823695847279752
0.0906555523797459
0.0809102895171449
0.0893342478545334
0.0817031319001899
0.0961995148625118
0.0887239338318054
0.0871153873187347
0.0937298975327298
0.0945910412415252
0.0996734680725995
0.103153472106045
0.0932438970406728
0.097859413401915
0.102093854618256
0.104191171652363
0.103456144840785
0.0973234900838709
0.10423105096106
0.101950753460977
0.10479142860947
0.110396670610139
0.105413546984915
0.112147395688901
0.104952715767325
0.114797075732978
0.110343510467926
0.135651416329484
0.120877178679698
0.120349511646253
0.124830895453121
0.108984979437745
0.128895319139852
0.116060485595079
0.125120106818198
0.12344735149057
0.126863738192
0.12595783745948
0.124458425950999
0.136413603098176
0.126220791695134
0.141023086524653
0.135956588102997
0.144423279840112
0.137589786463246
0.142868137529501
0.171445567771926
0.120696242503917
0.172240013188795
0.132738623906436
0.17286174844726
0.151036445727495
0.182045733749258
0.168907074493654
0.169316883977339
0.173459151333058
0.183202110238728
0.183924233717602
0.191249386556004
0.192535037313041
0.197653561321407
0.199441316842152
0.21649176741113
0.214830235473699
0.248937207875065
0.221823593110445
0.232108197804092
0.231053758847512
0.247447063431823
0.242436718915269
0.253928622926549
0.247609431446475
0.269994342604049
0.26469242880956
0.284235732845015
0.277740024705998
0.280265463935644
0.29591619506234
0.284265168930918
0.320605497649073
0.296682314329454
0.338756089391389
0.305872151377052
0.332989106097739
0.32760066652627
0.339764560172713
0.350953744085283
0.347439099476715
0.358620062208913
0.356549363035101
0.365907055777184
0.365803403129134
0.368190776640124
0.371749136439292
0.382273118818376
0.385139371100425
0.373398971870529
0.442828516226488
0.392431693255048
0.412630707327741
0.384296452738606
0.396997667940511
0.400299352717888
0.406070591816718
0.415775192770411
0.410628919625168
0.420331426191235
0.399495587996879
0.401875411749524
0.40668261672353
0.399917190633942
0.412238332298306
0.399456203253524
0.423707318294764
0.39913432904215
0.42999756797116
0.414872137123692
0.436924168372854
0.406235459153591
0.403325732503803
0.401930238700216
0.410130977943475
0.406906254051389
0.409181066943603
0.413547956984702
0.404102643811619
0.404858156735118
0.391793339932527
0.415897564906905
0.406170906126042
0.416821324603975
0.397078636468859
0.39311143734737
0.395742356466277
0.379181071697105
0.395798646127558
0.397572333138107
0.401455281985089
0.394196301016328
0.375783239443971
0.38754734291676
0.384455310219387
0.386339520913995
0.381776570035311
0.3906205964298
0.387611571355947
0.392280354805485
0.383837071977955
0.389962971341886
0.378605850779221
0.393691815647038
0.385843443552108
0.395296861333433
0.385196301062975
0.395294146143221
0.391610035923944
0.395748730763753
0.394000637534468
0.401544877121952
0.400162168939155
0.39665758599918
0.398867366278901
0.402219216610412
0.396912923319461
0.401828870956646
0.398462548656669
0.40505125894812
0.397856056190487
0.401993556779702
0.397023066474891
0.397521824672658
0.397984088970688
0.399137409960478
0.396168560601076
0.392459806510701
0.389227384475739
0.392114767748039
0.392869012017013
0.38325653990724
0.39989928278869
0.376520475883247
0.395333163221392
0.366779388459805
0.373437141641619
0.373880882773108
0.358051502850273
0.375654502577703
0.359170014569447
0.369784595062463
0.353775975046115
0.344076101710541
0.338100004628468
0.34687197123525
0.340317232835594
0.343994605978687
0.32636834865639
0.343837012619944
0.307032052710581
0.374766874272859
0.352777058674754
0.331376422901244
0.30630178194946
0.308830621280787
0.322781656563141
0.306581584853887
0.313902174810398
0.290173363899694
0.30983044678237
0.289462664211161
0.302980340501256
0.290751314620672
0.28737904384947
0.29168711241817
0.297472921550775
0.296123611749092
0.296023006603299
0.297508764981889
0.285605174814124
0.292835873348828
0.289394660731994
0.298720588657346
0.271378992502985
0.269500340160125
0.258892519428469
0.269755139834898
0.274468668475328
0.255017709478402
0.267248375815784
0.249646253290762
0.253140620249465
0.249486196140776
0.248596078358423
0.251166580541465
0.244745416140303
0.260216856115444
0.230426286293159
0.25515067397196
0.227605959893169
0.254959889924238
0.238762247914462
0.255688797004828
0.227897654663144
0.238991246887896
0.248887771539131
0.238026393706004
0.238517717092843
0.221687250765475
0.224927846958362
0.233019852669957
0.218624625597158
0.227902862339134
0.221363324853951
0.231937113409909
0.240303598370071
0.227816633432355
0.238397231839044
0.221215159854355
0.21852532307441
0.217611528584658
0.206048612428357
0.223291563336515
0.206357944298992
0.231716989978082
0.208303980166694
0.226055162817846
0.230638036420222
0.217397961071966
0.229967678092266
0.225185840659717
0.222271789907333
0.235446725506739
0.231297623040531
0.248862146102979
0.241684040170034
0.242349542553373
0.245461165904206
0.250739808364715
0.252539777185805
0.246552013803268
0.262502541699173
0.25713810754266
0.274835005149391
0.275002109082076
0.280053401553645
0.281770589734868
0.285976668647659
0.292683235370905
0.312081363497442
0.296351964537976
0.321733791005104
0.305263116480632
0.346936096208983
0.330140324627979
0.335929555241925
0.336791637548761
0.343873662641011
0.350894243031944
0.347912325365427
0.364249441906679
0.379894203919561
0.366882767831572
0.375573763658299
0.368850728686537
0.388625910418513
0.38189332639551
0.395682774336363
0.39872871357573
0.414579802504967
0.409574460350768
0.410216934258967
0.416126656342754
0.39858098333436
0.412233210556753
0.404039266380353
0.417588115246862
0.416526249357644
0.414353961143627
0.435619288209239
0.426737569226332
0.422666752879802
0.424124316745874
0.426284806147846
0.434418294256172
0.433611424176328
0.438774862682238
0.436671969217961
0.444165832302423
0.444996820588022
0.443410719318042
0.46859095646581
0.469330190641474
0.472653726017937
0.455115557680802
0.467508581325254
0.468016520378468
0.467684007664817
0.47576787148623
0.484471182602534
0.487691510949419
0.486425410333905
0.49302859338749
0.497797594727726
0.493539550636203
0.515499582558403
0.501236800259886
0.511157019192057
0.499498913238546
0.517400412478078
0.529847073687023
0.519495933488576
0.536250999330435
0.520263368948794
0.537234995307291
0.515389266779298
0.530097229413541
0.528652080018949
0.527842319681649
0.527149345382816
0.539335465721472
0.522793141521559
0.532202490554464
0.533445253735045
0.532159811984356
0.535635674511417
0.537837101533335
0.533094698776422
0.52864783025367
0.531106856777758
0.526302250399916
0.522891349502625
0.544265129982174
0.535201436950159
0.538132323637382
0.512354429151266
0.537107408265284
0.528166735835873
0.534502594114196
0.517655022299147
0.520194557883617
0.523123031019415
0.525674142829993
0.519311224542886
0.542386354801287
0.533023912177487
0.542836201850487
0.538674367547791
0.537669634420369
0.538323346024005
0.549635853595955
0.545098898789976
0.54832729672127
0.545167407924905
0.56135668792969
0.551412053307264
0.561533753279339
0.554573592183163
0.561665924735963
0.562008297090059
0.559421486538963
0.554393771710255
0.56141142712617
0.556849305435695
0.559976384353898
0.551384126601426
0.559466336424604
0.541450097815634
0.548525015825269
0.532752479690118
0.546922975309848
0.532839613177377
0.535563653549287
0.530211612087613
0.523193380804807
0.517198201052076
0.511502249121854
0.508775369282063
0.50857618843982
0.505722062973213
0.505638014777789
0.499879085887864
0.49798367667125
0.493563266863702
0.494760989661127
0.491348751984316
0.492536747992787
0.487222700572076
0.488214291499431
0.484397891764986
0.486019227348289
0.485672781374403
0.487454576747161
0.480820579026409
0.490429217112256
0.487219895220616
0.490574615779545
0.482948475381586
0.484759508130071
0.489864127846598
0.479795445852341
0.482895192084601
0.483633844294648
0.481661484729978
0.482187876441835
0.482483765840454
0.477307506498762
0.479073189363089
0.482010135266691
0.482585979972048
0.47830321726917
0.478853794686033
0.47852384683078
0.476986481748566
0.479168061867857
0.475382261668419
0.476708615585592
0.477303544226274
0.480135670023561
0.482056497943409
0.482264692264802
0.477076236694763
0.487141838015486
0.478315753743325
0.483978138955711
0.482599654861944
0.482449762465142
0.478737279954455
0.473481243409223
0.481858252438635
0.479672337553319
0.481723487016842
0.479455496689178
0.474237541207419
0.476933578076175
0.466693767009229
0.467777883914626
0.469576587133807
0.461510400141734
0.459887620804221
0.451110357330612
0.455573147332682
0.447892454664931
0.44440450537131
0.43991998600486
0.434759607972127
0.438073133954533
0.428876927953399
0.423559469146541
0.423019791697491
0.421380343617339
0.416473004349959
0.418016009567265
0.412011619366269
0.413638788393298
0.410365848340652
0.413696991601348
0.409780425069659
0.41002311249761
0.40754577785816
0.410240103195575
0.406481708791618
0.409938898616004
0.409981418275769
0.408404526442522
0.413162340417802
0.415223092824936
0.412113863425963
0.413767745106848
0.418430291625676
0.418145758631244
0.417013007207791
0.418508368387045
0.421056187338302
0.427373084604582
0.428829262425221
0.433057684393954
0.43124814799388
0.43288281040867
0.434789605554583
0.433230045904864
0.434712998152871
0.435235415119743
0.435339677653312
0.435503889870066
0.437065987367507
0.434652724026899
0.436005783231161
0.437871316546158
0.43312350830587
0.434935202710429
0.430045601420949
0.433097922124351
0.430956253494265
0.428273634386111
0.428586310501608
0.428836907175422
0.42307508806848
0.424179761138398
0.423760522060036
0.420443643311911
0.41659103017659
0.418205358795249
0.414926825767482
0.414413520985828
0.414662677749772
0.416147559561045
0.408072141210953
0.412255249832252
0.40970140341169
0.409988726633995
0.404930725446469
0.403060852065671
0.403713643554217
0.400894961639512
0.399824542775555
0.398591612302673
0.395478420338862
0.398226633093351
0.399665166111702
0.399561600346869
0.394631770237545
0.391879108828562
0.388259209362688
0.390823021526912
0.387635601421217
0.3890021962955
0.381275977268758
0.382314121966156
0.377585756116084
0.377958465918321
0.374003262772361
0.37065536206622
0.367696045315744
0.3656695087055
0.360379382176454
0.36038594034146
0.355763125845595
0.352697516809521
0.355290486628689
0.354086713154733
0.352795904779219
0.351719413653897
0.350410291272696
0.352935336534602
0.345422519433377
0.346148725008808
0.343047032610058
0.342640648635981
0.343158810078669
0.339126378151295
0.334929180649802
0.332480260473279
0.329796715077416
0.327217365748749
0.320694106532822
0.316147716698556
0.314191481286686
0.307371983730802
0.307627702140812
0.305723304531467
0.30445364051942
0.305394832857237
0.308822272792907
0.309224497611562
0.316899838201942
0.321895218897588
0.329808920138472
0.337345127690526
0.346447493801758
0.360442068929244
0.370748906897152
0.38533633845553
0.397280616823182
0.4086506783449
0.42546070663509
0.441499887574044
0.454119771978032
0.476893840212426
0.482878283678118
0.501565836111089
0.512178557150247
0.529128662746122
0.541410009632398
0.553018819378973
0.567260033908678
0.581541959116642
0.59105799133702
0.60159863077402
0.615091592929277
0.622789124310524
0.62705406692599
0.634718015927163
0.650813790230469
0.654651533503052
0.66435034888046
0.67366719016164
0.675136067163483
0.679023991926107
0.683005562621263
0.684188484366698
0.684819890277658
0.693576880377025
0.686962942476987
0.698550898283451
0.689919164881217
0.693219211157493
0.691985515719484
0.696597928164427
0.694058147022601
0.696557876649767
0.697342907658271
0.699980719141177
0.712538840435744
0.710124170548715
0.715488788583324
0.724547356928587
0.728562558422776
0.736145127802844
0.736887843701421
0.751806614306153
0.746608501564861
0.757589010216175
0.767922473142143
0.790695881863209
0.782727684115514
0.798756087919592
0.804260302085904
0.819955632495588
0.832691232381692
0.844751905323047
0.856721087546845
0.867307276070571
0.87029913697256
0.876706355826527
0.887071292964894
0.895759826090293
0.892620646678907
0.889917911459239
0.890032029151553
0.881045016118085
0.879125294814292
0.878353544737725
0.879215516299275
0.887040052595309
0.869489579382019
0.871887874114396
0.877891835562878
0.869142579074157
0.877265465004389
0.885878026196022
0.897092440855909
0.903854036640995
0.910699066107474
0.935233707653207
0.939210379612214
0.952301512673514
0.98012212037079
0.987773595173114
1.0040223534803
1.02700607582645
1.03941147988478
1.05060746848372
1.04630635809164
1.07280479632
1.0846569367723
1.10108464971418
1.10167298910674
1.11932154660381
1.13102515034859
1.17769175019812
1.19495327240404
1.20491824151644
1.2253856153629
1.22419248401618
1.28480016283711
1.30179358366433
1.32827799666969
1.30028790834546
1.33003996951533
1.33259733592031
1.36005812101324
1.38138775168795
1.39385650571075
1.38910443803996
1.4356093688402
1.41196123319544
1.43421516600228
1.41789843804696
1.42003863278683
1.42891869579019
1.45764889024602
1.4218765959835
1.45518444526661
1.40757718240452
1.43157566845632
1.46721685036451
1.43922273955468
1.45023960262737
1.40251398561048
1.41791027759482
1.43610693179151
1.43937582268921
1.43399097461006
1.45758954216067
1.48058471396851
1.46742295481102
1.50236371702995
1.48485005954349
1.51848555551112
1.54509262223024
1.54145314909572
1.52974318355924
1.58358119419319
1.59587150051765
1.63557058456161
1.62867464903593
1.69179605990341
1.65384717909819
1.62214070569298
1.63095104247127
1.69271242052667
1.6205245520994
1.63893922579581
1.69292705535313
1.71444306634091
1.64970703817856
1.71636948680709
1.7305325013296
1.71846631938823
1.64482794470245
1.6494711457521
1.65697181810512
1.74334971357449
1.74216119191657
1.8449866649759
1.70502349131421
1.79052435076424
1.79005107715342
1.81217910618197
1.78013833819409
1.7408073299309
1.75539785222144
1.71617088571441
1.66885875949768
1.68420549324955
1.69717875016718
1.67451395114461
1.60653490006509
1.60742390365075
1.54376132249564
1.63059866841447
1.50893307383534
1.47324985062964
1.41102236720114
1.45653168931389
1.36521126951512
1.31198070666183
1.30804680490126
1.30590838703727
1.25804050133713
1.2779129470686
1.23508599705222
1.24367221109517
1.19262750746594
1.21129916801851
1.18394239245961
1.16777669903708
1.19162606830443
1.15382297792275
1.15252699487615
1.16606539227964
1.12218714123547
1.12487493860183
1.09500455155168
1.09437382193956
1.05370026973118
1.03790242065402
1.01344839007604
0.983320255459788
0.962936968478496
0.93863099770401
0.892298168743843
0.869257296827274
0.833809296792372
0.807336332997974
0.775048902020451
0.729470372649074
0.690776368238873
0.669666102589995
0.633439509542347
0.603790414946255
0.576845492153553
0.554789344264093
0.538467473819041
0.510661165377464
0.492778980488614
0.475278601150178
0.46436737707294
0.44721235055191
0.433268332367731
0.427924202841352
0.411544723726481
0.408833015745965
0.406530883034785
0.401761795553387
0.392794039619468
0.392484695684709
0.388409875378879
0.387041302118928
0.384600755815127
0.391865790206162
0.387991750067667
0.392051143144151
0.395787355042078
0.394120272205882
0.398299700844394
0.404007573248415
0.396553025669834
0.396624176996391
0.395468480784021
0.39313770172095
0.392866338459183
0.389286079017565
0.382478426729259
0.382292451844416
0.380932442872979
0.376830678268278
0.374348278012568
0.376264875037015
0.374008319845742
0.372514143367924
0.365993202255756
0.361529713338864
0.370957690229113
0.371234648334763
0.369783283038636
0.374025759625538
0.376742537375554
0.377678169757066
0.37965579182627
0.382875873114123
0.383028195935192
0.389643085481901
0.392799365426138
0.390871743852501
0.396485148476773
0.401280442818334
0.403081194012631
0.406401016420558
0.405729222003417
0.403589775366424
0.407703537566813
0.403596238295395
0.401036091565814
0.40062653273226
0.405067560107636
0.404931439025925
0.407036506480684
0.409861026720447
0.413349417746366
0.420709843406009
0.425911068226467
0.42923400061701
0.431690888221207
0.446373062334828
0.451430635138288
0.461394405715034
0.469998840264594
0.495305374390663
0.496920365133995
0.512023325127774
0.532325882184724
0.53078048245298
0.538577821104473
0.554486387825822
0.543851956592489
0.547637625854161
0.546843792995601
0.548855409267183
0.536009579176828
0.530199823229916
0.518673592254057
0.513067544739897
0.500198901957914
0.488113159561291
0.496179961000859
0.49521876504504
0.479449402747186
0.485004326569885
0.485852389826413
0.492663242221164
0.492850641279982
0.488649623087364
0.482629929971544
0.484175141059188
0.481801551200657
0.485879268549874
0.472513724252529
0.465346529532243
0.462245881452969
0.462065759277734
0.452016596186846
0.459435025009786
0.450954462376994
0.448314661323355
0.44488101749931
0.440238971823563
0.435652259236774
0.44260518562125
0.433473844373589
0.424387206821476
0.425943249553667
0.428487371697692
0.418538409369934
0.430281056369486
0.425340520301182
0.419157979867813
0.408522653015282
0.414528480602457
0.406899586563356
0.404169869910374
0.398213205312007
0.401503175612273
0.389185455034877
0.399979733715976
0.388300299904971
0.387161498211338
0.390477850651313
0.391222720421845
0.383985309417334
0.377719138391325
0.369913605905576
0.369468250170543
0.37664775741557
0.375322995450141
0.371273510396806
0.369763112761895
0.359804421285842
0.367072088606594
0.362430687377009
0.358451487307283
0.365302333723815
0.362870287083744
0.353666850887671
0.373703663835554
0.362635522624085
0.356241394045597
0.370140272860255
0.368619994388141
0.351781237395884
0.370024120590422
0.36430133129611
0.367772415608515
0.371703703879478
0.366558652039392
0.36032888147196
0.374436740458368
0.367662236542118
0.376859935856775
0.384051610102913
0.399112902892666
0.382524687748375
0.386700855427913
0.393616153748772
0.390233412984856
0.382439241344411
0.400145092993517
0.406612100394594
0.406252000959909
0.420024297603012
0.427327432704367
0.414532426852746
0.429247734563256
0.425739208989038
0.443298063399289
0.454429934399881
0.454341559798845
0.448388738771726
0.493791626475936
0.498708674037325
0.503427559290286
0.519125486819228
0.543352983542936
0.556043312786543
0.595642264998485
0.595671778077057
0.600637345153721
0.618365637086257
0.636928037059847
0.622811642620956
0.650651923062724
0.68546833367442
0.663197521618646
0.658354311513659
0.662992976959847
0.659417031327481
0.643464507184767
0.607796013806809
0.624370625550375
0.651156314811109
0.654062026992133
0.64827698480547
0.644522048852005
0.620011000798475
0.631333288193495
0.620349338475847
0.62926769152215
0.618422214037343
0.614092200089726
0.604128041379925
0.608974265195216
0.616866454321015
0.629104778462631
0.599369860521081
0.606009260040747
0.604427758683269
0.596899269524778
0.576027549847353
0.592344700300991
0.568338450665042
0.57347830964823
0.576429661361004
0.579723239313637
0.555811328173856
0.576425627207837
0.533051496803654
0.546378902019224
0.538819145887474
0.524411634231632
0.521740692888188
0.5760438231433
0.590324371833401
0.581600721594203
0.574120610349302
0.568009874208273
0.569509411005593
0.575929031219373
0.564537910153495
0.592552302071463
0.560822408160687
0.56832565043497
0.565204353134089
0.555845562525877
0.554413248086327
0.586267378534894
0.547588087010534
0.589234215135247
0.562492975787286
0.583176551530222
0.594642083785574
0.619224825230006
0.562401561435609
0.597290969668244
0.601851152566831
0.597737851922438
0.640270814594196
0.665257201919547
0.612450781188551
0.645713137959491
0.621362425873534
0.646979945810887
0.655028180307832
0.625834577927939
0.636554370143954
0.615788438736392
0.594353705118901
0.736368053880114
0.701724145850365
0.748379436724494
0.708730071336365
0.754391351219777
0.84399053841194
0.824135032594966
0.74777682275547
0.76818433304837
0.744368833305156
0.806936636612875
0.848918105304072
0.839420685530297
0.802370876676008
0.84715487491447
0.814994064904439
0.851104742127967
0.68544432969293
0.714081041426085
0.730814232164243
0.816247039436426
0.770357199049914
0.722920556497169
0.737441947981074
0.891491830186508
0.79977624123517
0.776847731356658
0.761014956595097
0.758993678434006
0.720825667707846
0.718159088780761
0.653988987646183
0.788050084660014
0.659613145539892
0.668080917871824
0.627026266404647
0.744934776790089
0.752657656645627
0.966531577553173
0.782159258570737
0.808632600855609
0.859951634123978
0.731247883474917
0.608738762150292
1.27308262762898
0.996657046930325
0.797063098584347
0.708553530266078
0.688837141612011
1.00405613724132
1.50490755410004
0.8223343071427
0.737752077216924
0.848678778268837
0.906619564805126
0.649413467541352
0.558162171083176
0.478935744766739
0.712162886212786
1.21184029856073
1.01305457422478
1.0409021651891
1.11276334703068
0.564845874467848
0.674847038208529
1.01366338580805
0.784557200162377
0.473404401443731
0.666541368679789
1.07858162043914
