3596
4000.36533379555
650.420452594757
1
2
2
0.0168836640539561
0.0155430328015453
0.0157620684848839
0.0124325044704641
0.0135883270720053
0.0117304832948364
0.00915739011524006
0.00897253996488003
0.0184148785649001
0.0149621387931788
0.0105354195078853
0.0193940833687139
0.0158038197388332
0.0176432858187255
0.0192834432101518
0.0124430615859565
0.0140857055089714
0.013620291013973
0.020869460230467
0.0177620816812223
0.0215625344499081
0.00922333211278648
0.0182307861222348
0.0167264082860735
0.0173851385256114
0.0173374368862804
0.0163319530539412
0.00726751947938589
0.0216840082121432
0.01492814296328
0.0116540738554146
0.0119165853257254
0.0176102524627491
0.0139294808839535
0.0148165313748165
0.0109586113772742
0.0108482733771011
0.00894942069097453
0.0112620885376422
0.0158113711690822
0.017731246240963
0.0123910803327305
0.0155169040588118
0.0220992599376921
0.0193009446966926
0.0109823107610673
0.0140930626065503
0.0169507969985819
0.0178212157444801
0.0212433336533007
0.013219444026895
0.0145642565908856
0.0146736659270582
0.0146092889121278
0.0254949668233559
0.0118449401910389
0.015112114980979
0.0126873928053185
0.0183340977660577
0.0168285563570613
0.016900195277404
0.010465411150819
0.0234491610554159
0.00767671533736879
0.0181032323646419
0.00896797255518853
0.0168385134918831
0.0123287941196785
0.0218536075285617
0.0146675842306136
0.0201932906847495
0.0191609737245701
0.0123783969381205
0.0147702322302836
0.0154966409408742
0.0142443142595929
0.0176609246565374
0.0136427645817308
0.0223052867005965
0.0131037504611399
0.0144361910307848
0.0163316342207781
0.0131215548025543
0.0112815297618509
0.035246570060104
0.00785757171056471
0.0172780862086726
0.0282973317669741
0.0117514997212326
0.0150964030695566
0.0172378787988018
0.0151529423464416
0.00995506611259187
0.0157607873384806
0.0150917965448537
0.0171597592563188
0.00344539310448376
0.00898808504925241
0.0164221377126507
0.0200870865431178
-0.00030480427940096
0.0521882322760181
-0.00444555555690557
0.0301764524775559
0.0224387167918778
0.0117282958515684
0.0415189364380772
0.00620701696569367
0.0181839687573373
0.00500786685714835
0.00963287754618733
0.00244405432604454
0.0185553827469118
0.00341516086732627
0.0209803634298892
0.0224896144865997
0.0202411645104661
0.0193348496378759
0.0139521137204642
0.0144050127668437
0.0201355837033413
0.0445723462478337
0.00582744059772325
0.0230244726197472
0.0128121430718834
0.0164471662417785
0.020999746028274
0.0370607377432406
0.000253069447300146
0.0223897570018099
0.00243305243091365
0.0147182076795474
0.00625684031219006
0.0399934397293851
0.00284481458599737
0.0214051823582225
0.019746836309142
0.0195777155550546
0.0259199106366941
0.000780041783199691
0.0137089570647271
0.0151055905198941
0.00729236594786863
0.0239538092956277
0.00530940153137471
0.00804522729715732
0.0160256250312975
0.0287709949756816
-0.00154725643844468
0.0127107176160834
0.0135145512718255
0.0229597810179591
0.0118499687107265
0.013329577849252
0.0213703027945037
0.0634254669840341
-0.0334729270117268
0.0523942671438432
-0.0155748003585866
0.0198109713539816
-0.00414155329530045
0.0163127007438293
0.015255328663255
0.0171148802885064
0.0159063892695483
0.0119514818031631
0.0327132988577305
0.00970711085224592
0.015501065610722
0.0221055204874578
0.018626863403722
0.00485753033161857
0.0285144415495404
0.0138092737075097
-0.00190032912465323
0.0356889322767251
0.00389626857252157
0.0191003527981923
0.000587717425052265
0.0260982499228711
-0.00108732355968644
0.0191381532288832
0.00324636429839627
0.0167429123940571
0.0201943284915251
0.0160811945586554
0.00531123798032811
0.0208159934859128
0.000371169314363551
0.0273716738077354
0.0175846951045244
0.0409138444651081
-0.00393708387214405
0.0187478721251603
-0.00271167132426422
0.0349649532668688
0.0291357577264107
0.00147582720614323
0.0158415090435593
0.00744615569358363
0.00738295587899939
0.0192404352328686
0.00622627212446903
0.0211767700873042
0.00698058952894244
0.0382467609704862
0.0209757940901374
0.0158487299628995
0.00327835672046968
0.00914047518256956
0.00452070044422672
0.0236111913651421
0.0312819658284202
0.00744178989309502
0.0151577530498693
0.00471230014968235
0.0247679216484497
0.0150017296773234
-0.00469843987007178
0.0178241016147069
0.00857215450366959
0.0165442075247021
0.0144666452551872
0.00852734537272811
0.0116852557561912
0.0174460032132168
0.00758894385365032
0.0128506597295134
0.00675895824859646
0.0181068351411863
0.0141441835036312
0.00836902597533475
0.0093083145860124
0.0147411468081937
0.00909869984885026
0.0291858107078217
-0.00340904616247621
0.0184922150334318
0.0113767758499565
0.021623870638608
0.00924286408006595
0.0165698638507626
0.00499008526837666
0.0206833709530945
0.00374452665253029
0.0301895962862605
0.00788351736012137
0.0184657528447436
0.0144989011951385
0.0187795072006168
0.0219369895811514
0.0103384668545262
0.0163003853152302
0.0123875884298362
0.017551653364765
0.0113338691286247
0.0268606351226706
0.0154081391445853
0.0146330375257532
0.0162079985477384
0.0234101464812866
0.0181803113608015
0.0157096106789217
0.00420511891512979
0.0466087982668407
0.0250699296867875
0.00329196919391847
0.0400394549932276
0.00603840093922082
0.00902608201324145
0.0216792196247609
0.00799153570920286
0.034261991536615
0.0516954728913137
0.0128221178509455
0.0169148772058131
0.0124371300417525
0.00892569970658659
0.0113250848879745
0.0302628762116936
0.00541926201823516
0.0451798698280768
0.00169131630848117
0.0472320132526264
0.00636226839797004
0.0203010424896045
0.0314693148618194
-0.00302443972391923
0.0200348499657203
0.00455638747326816
0.0152718275564988
0.0154004201381691
0.0229492258165183
0.000777897714704825
0.0291058084893107
0.00673747097095269
0.0339510644368572
0.0170930763792592
0.0189111324634828
0.0164996463478996
0.0203341743387387
0.0116318604861298
0.0190713132899927
0.0161893218612212
0.0172157111717567
0.0271704839865269
0.0105407100366559
0.035479209879647
0.0196959411055152
0.00934008623206688
0.025314596218758
0.0116466902942162
0.0149286806722361
0.0132150297379541
0.00952130098177458
0.011222561199992
0.0123938263375209
0.0123421822931328
0.0140442239552978
0.0264160830077796
0.0119089963832974
0.0211635701690343
0.0113944378044822
0.0211000021821964
0.011752720457372
0.0204523369862264
0.0143299502655146
0.0230576681959202
0.0127825791402941
0.0133136924423412
0.0281955630937719
0.0220516481759241
0.016442227741146
0.0446141277551732
0.00562018681967448
0.0247058973288086
0.0123725222738608
0.0223008224861026
0.00924357481521638
0.0201140162825786
0.0190765200136666
0.0195169441134985
0.0194228496953541
0.0257598734192948
0.0191528305617247
0.0247280595766677
0.0242953828707978
0.045909471723339
0.0213509452888212
0.0281678298939361
0.0201196450753089
0.0252570025516653
0.0556904162470178
0.00669795362578485
0.0493891269176749
0.0208922413260595
0.0229657673717805
0.0216151605076041
0.0237264246251171
0.0285012851728682
0.0200346619079136
0.027689772965988
0.0172009004450984
0.0301005700985177
0.0181602694613936
0.0331275788229552
0.01820366336763
0.0399302588590019
0.0254510343103449
0.0253321882939651
0.030753068943088
0.0308765725049483
0.0275007381038404
0.0649870897714683
0.0136776931845432
0.0822649107043255
0.0133609622067513
0.075171380897453
0.0206233776432741
0.0342728824181711
0.0302749138901597
0.0437003579310445
0.0390850195327114
0.0414111142231146
0.029643830743941
0.0466616290638965
0.0327669125953836
0.0474959803589387
0.0401213457524891
0.0521190318000415
0.0380039688397484
0.0494887410690391
0.0479607437961213
0.0424135243620683
0.0489043169384443
0.0467153666322064
0.0784341693706263
0.0509953138688408
0.0535905690671723
0.0472320327620313
0.064017903655848
0.0459372857644048
0.0621035140134873
0.0528493358861289
0.0571378749109589
0.0552136845436322
0.0590362003831722
0.0792205152298066
0.0436209307401451
0.0842656047000073
0.0572298669887184
0.0707964182765837
0.0771928935876458
0.0609030447067916
0.0800457035752971
0.0684579260147029
0.0699186608597845
0.0783586610804494
0.0897759800507754
0.069166615033015
0.094470702762402
0.0771039808688159
0.0711533175631805
0.0822653053657749
0.0817660864888691
0.0979028453155444
0.071160935013744
0.0971224210597253
0.0873831221377011
0.0979965058941495
0.0921785001469578
0.0913740152399211
0.0880826907924533
0.118914573689034
0.0810542098087338
0.117689506253748
0.0994278976166754
0.0972141312801762
0.102088489202111
0.105765518870599
0.124480780798536
0.102821782090814
0.139521241547563
0.115914226023903
0.106992889960399
0.110791485740765
0.103842060689661
0.13394725078159
0.120482192113626
0.137736763769271
0.122151888592028
0.135658366974087
0.117894792696534
0.143916381622605
0.117926397447656
0.144145113628528
0.138368240359463
0.147013531479228
0.140671682995157
0.141585174066611
0.13986484402232
0.146057671184331
0.161343680696647
0.142133112544109
0.15713310480271
0.184460703091218
0.160947017901413
0.169872962725204
0.167698596636053
0.182496456250909
0.163872132110765
0.191956621231521
0.172486371599022
0.185215142651198
0.171921200738996
0.200060227753266
0.182242436097366
0.198356747540879
0.179932671036082
0.208810960888508
0.195826143697532
0.216354836586249
0.194702494121668
0.210650279012925
0.207157188323354
0.212243268441403
0.187599948039445
0.235133838134359
0.202179294054222
0.221646027713088
0.2180910715357
0.233250765053949
0.231618912515749
0.232228612892061
0.220486790223849
0.246510646371527
0.223742624008774
0.254876580232672
0.227416510799318
0.270966784957402
0.227527994216456
0.277520507622441
0.252093452030812
0.268504442935371
0.264366202189179
0.286636109528732
0.261469894350833
0.271424098474461
0.265026688365911
0.286291357803216
0.269935239339234
0.299876055492276
0.284183087223548
0.301109645109779
0.27762836298072
0.323828897699961
0.273952169759372
0.320616266247205
0.295969303218826
0.316862967238937
0.303654885791735
0.333843223534592
0.310268453992284
0.339012399364916
0.30079055581989
0.346176862143441
0.33816707213234
0.346001094746255
0.328205809137484
0.34803288686874
0.325474409717461
0.376030212829235
0.324556117272826
0.348520973155662
0.358543707131813
0.363101130499571
0.33637941922394
0.363806334385743
0.360649361935296
0.389675118539521
0.358178531569932
0.368482358459418
0.378747441456748
0.383941216460853
0.374542712022722
0.405525738443832
0.377286498420358
0.420087323779638
0.377536453368377
0.411024720297414
0.411699384646854
0.404662976255922
0.39953992703625
0.4407600532396
0.420209634520238
0.432397227962518
0.419377600841317
0.430952637253129
0.413156132009772
0.449351076621345
0.421549421491622
0.439067458252254
0.428907859828349
0.460054065516031
0.460193698428434
0.462178820037272
0.439814232989517
0.469557205564774
0.424779163931894
0.46884557259225
0.445248361597432
0.494317211727882
0.478352403254522
0.515341350021174
0.475406925955244
0.499368780847104
0.467764433915267
0.49584417503855
0.468923985871988
0.518185629814473
0.484691440801728
0.50560507459111
0.484354537595942
0.515577334877658
0.495092015338822
0.543877141820295
0.49191252016242
0.532745459563113
0.50119031698669
0.524439738594524
0.497479880061297
0.519221788122514
0.509379193422884
0.554064238065562
0.533198948998974
0.572593863915666
0.54082115280561
0.586163667579039
0.519496723316832
0.546894583633396
0.52119070187911
0.558665441447975
0.515322361747016
0.57073455052138
0.539675530091373
0.572587020204593
0.523086839668595
0.593474223405077
0.533352755622279
0.576793615663281
0.558034053097388
0.59968298029359
0.563877917047941
0.597252167641343
0.592123311050059
0.601065055409462
0.579615859217763
0.626478626570424
0.599763967515165
0.604265616981882
0.568876758073329
0.615222367556377
0.606392616742935
0.606003275625746
0.593478358554955
0.611613771753829
0.592997974395923
0.61877070775494
0.584287028864506
0.622428964519435
0.587060031450659
0.632839678687196
0.623726057509112
0.62948020191347
0.610166478572726
0.629751023956155
0.579151095397651
0.628128204753064
0.611784549319169
0.632424392438512
0.637279488605118
0.636772905595231
0.630081720341224
0.650554931164236
0.63156853152897
0.651633329662831
0.626439789115334
0.644182636919559
0.615473332910316
0.647359103211636
0.638591679070025
0.667887319151644
0.633689727271689
0.680993450919253
0.666611059697262
0.652051729113703
0.642033807912513
0.683344785417431
0.649381232645484
0.69101399087975
0.657596952026039
0.690966407387543
0.640149962361561
0.687538228641377
0.653722254773773
0.69689078919711
0.669090724902595
0.671003650279218
0.654178398403516
0.659123002140427
0.647861318795717
0.699100810283962
0.655313079128169
0.689975638772771
0.646422343185537
0.700102521698301
0.655689668513975
0.693863375584977
0.660430365224786
0.674630676316752
0.685085538066337
0.712363948159602
0.681526392952543
0.704148999740975
0.677890098892152
0.685175418317913
0.671151459204646
0.721351675711971
0.68016881945734
0.704799100336318
0.683515499740211
0.723361849042172
0.656503908833504
0.691835940886093
0.702998814798307
0.699479659288816
0.681268005120841
0.699251398143014
0.677693773312484
0.68411013768152
0.6622920800486
0.704027733754943
0.667168171963358
0.712550826492314
0.653928852932536
0.681348250377007
0.700461252839873
0.683842441239652
0.676668984974141
0.69662043081668
0.691274566510381
0.691399413827759
0.687372618527733
0.698456944795406
0.683669489689729
0.711155025428495
0.683888414347251
0.725943554913123
0.699753402882636
0.703157278020742
0.682076263362948
0.678288795867661
0.649583231532026
0.686050841054809
0.682842128687652
0.698617061832885
0.678204821148929
0.702227841239158
0.673996352386897
0.706029826083114
0.678005063304099
0.720803326524104
0.690326716314643
0.678618299723198
0.663502839694588
0.684384801316093
0.660928943438781
0.711068769183165
0.684469656174793
0.700087767622368
0.662127757230624
0.683828001818371
0.671098679733519
0.683586279794692
0.688516296608747
0.691973138552019
0.654577211518328
0.693549064090768
0.665360080197412
0.685930916758652
0.656783232898181
0.67157938741552
0.678747707780416
0.685225451503889
0.65019780512484
0.687014377467634
0.667934785586989
0.659833197873124
0.660204200444551
0.687771981612837
0.647487179116301
0.678385234497963
0.65425579196991
0.671393046661078
0.676087968023645
0.680195768483862
0.643836832160333
0.670424992335227
0.653184335690332
0.668385420152697
0.649160129643645
0.66224881267348
0.651994134206179
0.682454315019353
0.663988734423366
0.660806514810774
0.656852855719989
0.662046968524817
0.629626358582859
0.636000455098895
0.633361189123286
0.654705635071085
0.629961563283727
0.647065289832537
0.630601288955287
0.658351216813108
0.637644614416095
0.63838647826742
0.626539481977698
0.64794360730599
0.631537979618897
0.649048148463686
0.615390983668611
0.632363049030915
0.617530738626871
0.618070459087711
0.611296598048592
0.626600448906104
0.603846873103162
0.622045186893316
0.630326311136182
0.628999430263749
0.601290451440555
0.614336314181054
0.609345645584032
0.622549887562719
0.59762891629199
0.590624904195752
0.596746688658528
0.597046676604669
0.580167366354239
0.620819166720944
0.582426883594024
0.585381338936029
0.584826086261513
0.585570760084172
0.578338772665674
0.577561403677941
0.573641584513924
0.58536172613075
0.571607401709203
0.569846242530962
0.56387754548072
0.593328367534805
0.555350553971533
0.579110238108826
0.569335825023642
0.581160740212362
0.551849292291128
0.560434237805438
0.552232032471858
0.569557955729964
0.553254012737865
0.553683124833124
0.552494960804676
0.558519243896269
0.54572232493606
0.553060671208726
0.53417507252347
0.554771720698291
0.530267413216184
0.551015011888906
0.548540971736209
0.545972986690538
0.536193565304375
0.56241425953403
0.534289466264119
0.523935712180146
0.497853029572462
0.51835222606932
0.510912440531455
0.522892775400136
0.506433117598075
0.514392704392823
0.511523334642072
0.513620046015178
0.503672624101808
0.515384430518152
0.501749725682888
0.5107300255225
0.485540073370724
0.49909594482226
0.492569508324667
0.49318039343081
0.480568034621489
0.495275252523131
0.478332687081064
0.481820590029543
0.477751742258048
0.484288585583454
0.46263977735967
0.472447856628931
0.467694612801491
0.468178018247942
0.463589070715999
0.466046369127773
0.453518638792952
0.465052618045844
0.453714325324993
0.468073981557543
0.455153649030219
0.457777603771949
0.44591350016099
0.444448914106984
0.438299860763754
0.443538743219196
0.439362042699312
0.448431411526902
0.423025223750294
0.431406426496861
0.433741634092779
0.436511107090512
0.41665041477874
0.429358966356546
0.423049299019184
0.421463948732318
0.416673117344614
0.423406259824953
0.408499647167478
0.40881269528423
0.405508206164161
0.410946118483793
0.403837686712852
0.409170916453569
0.405593198640139
0.402833903040127
0.388403773777373
0.387947690054632
0.384322710170951
0.395048940198472
0.3772301261545
0.388366752414978
0.382959318177027
0.389242827370394
0.37459090909975
0.384444684318006
0.374669780058833
0.374871876515768
0.367797230268606
0.370493793312059
0.366043292042646
0.369051386287833
0.358629585484814
0.371812825259281
0.358159235396664
0.358861983596306
0.353183059922657
0.353159058321969
0.351463997468611
0.357842272901844
0.342172364736265
0.349408811752489
0.335001758909063
0.344386384739086
0.343483880172487
0.341895556579605
0.330602849386042
0.335764297781837
0.325695580512984
0.329810963434469
0.322933508235194
0.330918673510857
0.32386882857659
0.315247618140169
0.307147929273058
0.318027355252367
0.316019389515217
0.314560588603937
0.311691885682839
0.31640278077355
0.312478584871256
0.313623665217125
0.302455346498639
0.311754915725161
0.305902619586217
0.303410496234684
0.290769113723402
0.305575349478645
0.292060641297573
0.297735098324603
0.292743375171362
0.293171713750762
0.2875897166058
0.299308845018396
0.283325879023551
0.286007808903134
0.281169575708419
0.282906222684767
0.28292634747004
0.279908061498967
0.27207676225419
0.2872705582745
0.263609592080325
0.268672035916548
0.2681235027294
0.268036841873848
0.264839699305161
0.26997081077432
0.262278164261081
0.260853696283907
0.256003693708969
0.264206631642335
0.254108782333053
0.259312004205343
0.259215017620117
0.254706362751646
0.249580016769721
0.256808239020392
0.250459683313718
0.255013448788097
0.248469192771176
0.251750167748431
0.245176344309602
0.247506800838719
0.243293472006119
0.241528320351036
0.239172004248122
0.242124813247027
0.236634587773497
0.23957987021307
0.229426474675628
0.236216590855997
0.231002470705525
0.230217832851907
0.227084907700253
0.230028509556026
0.223555330696349
0.226087258697603
0.218711825266033
0.220138964839672
0.219125816336108
0.222417852657631
0.217631798292412
0.218376181207374
0.214658738324168
0.218667224267685
0.214015374588434
0.216035478585584
0.206755360288392
0.209544821706737
0.209843185268103
0.208534602475129
0.203786184491732
0.209017082881311
0.200921697286814
0.202492735633004
0.196953129531807
0.204356125622939
0.201246676313167
0.199339212371899
0.19411275192095
0.194282643050525
0.193068844428323
0.194513930869502
0.190851520927148
0.190855625331915
0.185371812522611
0.189758606550083
0.188930605173662
0.192421167545259
0.183152863103687
0.186013711760685
0.181438912578089
0.18601123054085
0.181692144898048
0.182214099305471
0.178468881883511
0.182115604899252
0.177375896857635
0.176732149416387
0.171446245352784
0.172556888272228
0.173019851790059
0.176782055331726
0.168957516523806
0.172615339490871
0.169268115098306
0.173273516926126
0.17023410717814
0.171187708897277
0.172018773676892
0.16807629453496
0.167762287846729
0.170543388616067
0.159931885400272
0.161259863805096
0.164249240468503
0.174312558570954
0.166501532254145
0.164352681178099
0.162490026596846
0.164106570631683
0.160792748215201
0.162360859313398
0.164968739183861
0.164522152973512
0.157444497162215
0.167199923869081
0.165276092597223
0.168641292315027
0.160367924758261
0.160894585266695
0.165778844275807
0.169101832637891
0.162814297736847
0.168185958860663
0.162198211999802
0.166884762526513
0.164872123329404
0.173016503807557
0.167294484845373
0.170052337445626
0.169236811094482
0.172401764462083
0.170552184446478
0.17688111558139
0.173692560373359
0.176009700227789
0.176216629069953
0.17309999944095
0.173737607148972
0.184239545588954
0.181870885373124
0.183465154894203
0.180484785238499
0.183602652766446
0.187504762062628
0.188469263355858
0.188296231934133
0.184703859610555
0.187652950434111
0.194434073483552
0.195769776969391
0.19475509783019
0.198248127932475
0.197620575350494
0.1930725958499
0.203162446205992
0.198423737326031
0.197784963998272
0.198812055565347
0.202227554526408
0.207720447654512
0.20484716868923
0.207302532938806
0.212344345568727
0.210665825764764
0.212973556332059
0.212057315303509
0.217038937583158
0.21433972126088
0.222703165190269
0.218190925351647
0.221524504577285
0.233566482475128
0.234808944804164
0.227949653296518
0.23297421713646
0.235704121837773
0.246477818885822
0.23846985281961
0.242600250095136
0.243059930731803
0.242100764676734
0.246739335632663
0.250194024685481
0.240907490893014
0.249394183441689
0.250306987585547
0.252571507653564
0.248465733433343
0.251274480662127
0.249290446474505
0.251918049666664
0.248730020429378
0.253334153069728
0.253598707047267
0.250233341509466
0.24520947671148
0.245990332829459
0.244773371460573
0.249021162333537
0.246529978960941
0.247814198082609
0.242588022064745
0.249397663595959
0.24229114694786
0.244557305614741
0.251088528153195
0.241318199928994
0.249176531063436
0.251120280967385
0.242687400133252
0.245708103324336
0.247052013685166
0.248281617260721
0.243239114777818
0.24398993531117
0.241264024526388
0.247481465190789
0.245442937165147
0.241206679407661
0.244913325889831
0.244783893380774
0.247406617664342
0.244870044137194
0.24139549929304
0.243809192378418
0.252999310775928
0.247375109765963
0.238945626979391
0.243757684240361
0.245969284462263
0.242727116645772
0.245684139243693
0.241410504715389
0.239049988338897
0.247133554537979
0.243284078226402
0.24121818423945
0.242987692729733
0.241515473207792
0.238926227198101
0.239611316725077
0.233197312859389
0.23622882342941
0.233640727897192
0.234283891037739
0.233019912060631
0.22921344904858
0.230290037000772
0.23089868754349
0.228867972381504
0.228172367477181
0.22391748974417
0.226501764734762
0.220072153951299
0.217439857605661
0.218011543362355
0.21306290615891
0.207255512999481
0.212889414902562
0.2084108914273
0.212714445688707
0.208828299066481
0.203423181011318
0.198179063065493
0.201621728896878
0.201832875765754
0.19475265744697
0.19663625417892
0.192762976942683
0.189263596259447
0.189758843464862
0.187765709290751
0.181367907745343
0.181621335588689
0.184910137207423
0.182906872980899
0.177779109936109
0.176396450835672
0.180410905867028
0.175220491258817
0.173192127903871
0.170964756860574
0.166952157931469
0.171563311720077
0.169723543027881
0.163764831758926
0.157100671344184
0.159899492124027
0.16238169968019
0.159590141159194
0.158571948036075
0.157804794646705
0.155963885076937
0.153945661357194
0.151651574584091
0.154417275955674
0.153477035590593
0.150091323553426
0.148168438515774
0.147617247084091
0.14707467196707
0.149084270108784
0.148565329093969
0.147105585318442
0.145650475890668
0.144458810784313
0.142654760859634
0.142590519434695
0.146062257493425
0.140332226906165
0.141459413611108
0.138179935358998
0.139445190592237
0.13770102214948
0.141575981787244
0.13707890501717
0.133452099793266
0.132383385205828
0.13890024187882
0.134854273689236
0.134064927453626
0.136166980297542
0.133295188809772
0.130146976794227
0.131105374644451
0.130092697420312
0.130677838009148
0.127070942160577
0.127005524147786
0.126142021452369
0.12881891572576
0.128985713355004
0.12488966232996
0.129633620994227
0.128350977288744
0.125263612550794
0.127376581206395
0.128483299387556
0.120569322562265
0.125291756229612
0.121948367525184
0.120613281557767
0.122733343229268
0.124838381255721
0.122222822381677
0.119142526911088
0.118043948217147
0.115925281682154
0.120965532367579
0.121709394569478
0.119027419951982
0.117762627721179
0.117610826150056
0.117370163783655
0.11200409118296
0.11178022815101
0.117780836954722
0.116244893284076
0.113470692826371
0.115987633762309
0.114113602898325
0.114792588006759
0.114126013380357
0.113602494841488
0.112128731320526
0.109471229276523
0.111386120700193
0.109857426828201
0.109252692632738
0.109883586469153
0.111461167281785
0.108203779522217
0.109559561357783
0.113035772624714
0.109246303560896
0.107951156169754
0.110302931652743
0.108668299574186
0.106776129380689
0.105427281404445
0.112858148564042
0.107730223498649
0.105266556469007
0.103412341638218
0.108743440425198
0.104044484310356
0.109925039821404
0.107191121476488
0.108970074619183
0.106369517795674
0.104888863490092
0.106632704607386
0.100772666988546
0.108385563785718
0.107621884382099
0.103500934532108
0.104675852127849
0.102872996589302
0.105896457520622
0.105546436247397
0.0994439792447284
0.101260353276968
0.100659011497764
0.103919334883882
0.104378902794917
0.102448752905398
0.103676772402825
0.102710757071253
0.103505908678513
0.100047362190587
0.102845455782508
0.100647572576766
0.0982260751505651
0.09942500591548
0.0980140720583438
0.10102375352974
0.101756906405654
0.101232916053233
0.101649595180169
0.098262152214597
0.101404382582159
0.0965619704735788
0.0966192810607317
0.09518001035284
0.0978417661669203
0.0969245219743105
0.0948674142085515
0.0948671826884994
0.0971753822018539
0.096553562008787
0.0957215166019882
0.0943330870942201
0.0970782778853696
0.0941744325409194
0.0956614268992098
0.09379588285609
0.0891097281578813
0.0901228577006605
0.0949288940103209
0.0928037907229166
0.094892804468655
0.0937358421915388
0.0927087985448013
0.0933388513052019
0.0936033942741941
0.0893898980443272
0.0926280964566084
0.0936035516639811
0.0893312403545633
0.0941614554668805
0.0908973735151253
0.0888929269868169
0.0883399275544642
0.0895131277046982
0.0894196859129215
0.0875291030729384
0.0883862249507699
0.0886353694873734
0.0852320340384297
0.0900669872381071
0.0892233831341552
0.0850611478582382
0.08435642118989
0.0847469250898696
0.0833408757088163
0.0836924590117367
0.0870792231410995
0.0831923525892027
0.0808447385651346
0.0832523875754904
0.0833827396270926
0.0842773787419598
0.0844054493328839
0.0815257731611118
0.0792617952111905
0.0800181248161811
0.0782627710158049
0.0831753763943118
0.0814380403497301
0.0797146593785325
0.0785945774336647
0.078193661790204
0.0741630709874714
0.0793449782396998
0.0805282726775772
0.0780898990915227
0.0791048666208915
0.0771397050652398
0.0737170796912176
0.0779074293752649
0.0753186493065258
0.0770468677819489
0.0767321947397435
0.0732296869242728
0.0744746926026591
0.0773973783068495
0.0772053360062041
0.0736167029123068
0.0717093318270091
0.0699822285525209
0.0729837419960159
0.0741106605351183
0.0740167150820597
0.069977003707783
0.0724997053021374
0.0715440279984701
0.0692441537011999
0.0657586938530394
0.0675217413160735
0.0687062590238149
0.0662447910228152
0.0695842586139625
0.0668987981151207
0.0706537897533411
0.0632085211369699
0.0638566847053073
0.067140480062211
0.0664398736817769
0.0687452744464665
0.0656871913284658
0.0634893938086482
0.0675339137178182
0.0654164166090443
0.0613238076708077
0.0623561281908638
0.0666198514924067
0.0665647481966655
0.0667630448777838
0.0636787454759039
0.062540465720108
0.0638887830092473
0.0645538830851317
0.0603250670499746
0.0587767954144935
0.0628095843707649
0.0599505706572065
0.0613710081189023
0.063077338519503
0.0606874646267992
0.0616539570410991
0.0616988992778516
0.0618911380090016
0.0609623108805977
0.0585981728586481
0.0582376677214869
0.061627660496538
0.0598864010465703
0.0585332536526837
0.0580860598692048
0.0600486872214542
0.0584162482979779
0.0573611937317048
0.0542183859693912
0.0584026866494257
0.0564510245885245
0.0548457813616658
0.0587655152220501
0.055498861414568
0.0582333102078345
0.0546657711092196
0.0524225818285114
0.059964066495193
0.0553191998519583
0.0567934693729478
0.0548962310921817
0.058794453909698
0.0542075664671921
0.0551182057503221
0.0551269472135276
0.057156204517349
0.0533525172144782
0.0549197684856529
0.0518741783254782
0.0563573237938941
0.0517175558199972
0.0570504998888045
0.0547574582527735
0.0565270300340944
0.0544209743482848
0.0546695893038763
0.0514587887733494
0.0547555445465219
0.0546012456405571
0.0518773239167856
0.0499615995953325
0.0545784129902589
0.0522874264590667
0.0500254890309301
0.0549179232582757
0.0531710717261728
0.0520536323256026
0.0519643366029046
0.0515057407570734
0.050479609048424
0.0523772369965295
0.0544436780111103
0.0526310751805755
0.054475112180653
0.0531732597028493
0.051132076240142
0.0528911058879255
0.0514394464048499
0.0488907079339925
0.0511616853445382
0.0508542636762258
0.0487087646159872
0.0472808175440416
0.0526531153445887
0.0512888255670821
0.0518835400047397
0.0486115932994518
0.0496594012031803
0.0531391427952949
0.0481886163004324
0.0464466843951365
0.0529716678527982
0.0489523511155641
0.0506748196915577
0.0482775570444621
0.0470769324457077
0.0469367073071137
0.0503363148349571
0.0457680127048989
0.0481647418003578
0.046493246860749
0.049220394065077
0.0456335008894462
0.047057927848481
0.0464946377755772
0.0471594400356708
0.0479864283780924
0.0483911949572051
0.047334560752642
0.0470292629998908
0.0460831289501766
0.047531107954481
0.0468988760323727
0.0487923726164589
0.0472826897881162
0.0459239440816008
0.0447253993615291
0.0461851683698094
0.0489418776406902
0.0434894472883703
0.0455362822574519
0.0472349209843243
0.0427600176595946
0.0471458202920107
0.044928275092555
0.0473498183790726
0.0424678862961902
0.0399062435196189
0.0414387940101502
0.0440719177700787
0.0476031745298401
0.0467230676060139
0.0442774500754713
0.0448475484703792
0.0436213132609026
0.0431958052989194
0.0387379640854747
0.0434256127133811
0.0403459441401559
0.0426602571338435
0.0411143896831486
0.0447418697318415
0.040495655640531
0.0443564911772521
0.0444714300979538
0.0476258850622513
0.0418718497983711
0.0411903835402476
0.0426624156409634
0.042525801932776
0.041316728134762
0.0421570156002027
0.0435810597884005
0.0390884195795128
0.0426335334358147
0.0407838139851961
0.0368909529690365
0.0398981728223035
0.0393262036164915
0.0416989235389849
0.0383963316000521
0.0403084077027681
0.0353954978792281
0.0416946601588713
0.0402117903146597
0.0406656679902548
0.0370552562068611
0.0390703618510371
0.0388576897819033
0.0366041245437355
0.0365480651014404
0.0365761719008261
0.0349457166700153
0.0372113030991759
0.0366833815310694
0.0380210001205968
0.0365360555165297
0.0378272277257037
0.0359272820554214
0.0386227120453004
0.0345905271971036
0.0353607516744183
0.034896827562476
0.0366372278807222
0.0350423401786618
0.0346359204869407
0.0351069283523907
0.0379592687504967
0.0335819044158802
0.0352914945611945
0.0329727182091373
0.0338193804878889
0.0354156323863054
0.0325865423820123
0.0334606892463012
0.0357158154207934
0.0332228178769026
0.0339448570748125
0.033469290643087
0.0329381863821364
0.0326241644863111
0.033330049169067
0.0294232569755465
0.0334525248057033
0.0312905391333066
0.0315233084169372
0.0329419482590863
0.0355530714037618
0.0293487072603342
0.0327567348143681
0.0313580784600531
0.0307972967259858
0.031390898600229
0.0322513016013815
0.0315931719519586
0.031728469265148
0.0303628944008584
0.0310128216967325
0.0326356329892656
0.0309845778469088
0.0305888401220551
0.0308703780873031
0.0269423119040283
0.0287893136796527
0.028963192988433
0.0294067033047312
0.02984322783281
0.0286747948392576
0.0283553680049894
0.0304277991023469
0.029478152194554
0.0307858776821476
0.0278437073080913
0.0294011517857681
0.031341859870551
0.0290684613581933
0.0289687799218983
0.0281282665076919
0.0279653418035102
0.0294294627641504
0.0276749987582497
0.0276342150830008
0.0293373253988445
0.0271244645908787
0.027537157377835
0.0306037923666857
0.0257162283585445
0.0275040829337548
0.0254656855810766
0.0296673623064836
0.0285365602259557
0.0267568952483111
0.0299451861977356
0.0282648835212872
0.0293929265718747
0.0300871133991996
0.0271765695656585
0.0337945966069824
0.0285366237832521
0.0240935813057277
0.0276765659518856
0.0290769361861247
0.0224234578744495
0.0227615882015239
0.0220802921710809
0.0252135523880508
0.026261828923719
0.0265597207943171
0.0211340688830943
0.0262320516224429
0.0301371165830362
0.0206947769809422
0.0280189033320589
0.0265357538962558
0.0189301042095267
0.0333876351603422
0.022705490745066
0.0175380029166347
0.0244470017961252
0.0238671402405669
0.0301647463287842
0.0242009959514938
0.0234602318044381
0.0222044267858232
0.0248592889539494
0.0204525383106319
0.0272635442030988
0.0243853132119935
0.0224188638272397
0.0213982763119394
0.0268997458853507
0.0176000789569808
0.0285320446487143
0.0132863807857652
0.0301661873694427
0.0138258006484116
0.0305316184530875
0.01990548512665
0.0351562633394227
0.0108474239432437
0.0363307036382355
0.00616764195692445
0.033945532211062
0.00726231230887501
0.0447590354199588
0.0112474685127228
0.0474332219371632
-0.000710863842717833
0.0423661739427864
0.00179304215899876
0.0549420650012103
-0.0027330455638458
0.0464065227463336
-0.00393082530289727
0.0574460673566092
0.00200965718184765
0.040337492761315
0.00932191847766609
0.0400948235493739
0.0156508404810734
0.0302361861334237
0.0262268314620648
0.0240748730045921
0.0320134754227527
0.0149092433611064
0.0376832193258551
0.0111082965701516
0.0362083234387412
0.0158443325145851
0.0332660475698871
0.0187561719764193
0.024072113632483
0.0217360899439088
0.0218787393048847
0.0218372203779208
0.0202258186995854
0.0233484551207364
0.0251726280795913
0.0227302834377229
0.0235818143974227
0.0217564083568392
0.0274127911285332
0.0216160443375118
0.025188405333047
0.0214975491335243
0.0240455133715191
0.0213350592167007
0.0263634178400735
0.0250364371050218
0.023262312845641
0.0227080315285567
0.0242311290986008
0.022205923564397
0.0254925510370904
0.0215886075974946
0.0230698868261705
0.0220896493785282
0.0252902586809794
0.023889161332745
0.0229123652043965
0.0217420532549245
0.0234338673290696
0.0208172050268459
0.0240393469223322
0.0203446832456389
0.0236728814797416
0.0216981897775456
0.0243604232755844
0.0214774650122148
0.0262815106784087
0.0219963787838135
0.0227196690600763
0.0226443853792221
0.0238927456589779
0.0224884071891359
0.0268970603110357
0.0213530732883761
0.0237754338593383
0.019901934553419
0.0243563045847714
0.023076715092314
0.0240851945107636
0.0229045542279223
0.0254114471187106
0.0219040259907774
0.0242987274538514
0.022148963017581
0.0239990985383572
0.0212674345159496
0.0245131438861697
0.0207171100842606
0.0222247398318007
0.0212953427599575
0.0244885601569934
0.0216784612619045
0.0245920955564429
0.0246551357108086
0.0239054271863922
0.0197873413694858
0.022189588547287
0.0201676806643567
0.0231333325216349
0.0244404080650787
0.0211115304070385
0.0193872426217144
0.0254585390169614
0.0232109630744483
0.0237704572495123
0.0213068244874278
0.0215624658931864
0.0213624960654651
0.023502278890173
0.0211843494801153
0.0245752233222716
0.0217058406299317
0.0225326707307601
0.0213576292677842
0.0239792899750971
0.0216525644274501
0.0232566360650601
0.0210277142555047
0.0239606983573053
0.0237312292373828
0.0237315885881207
0.0225583109943517
0.0236035363859088
0.0228934242211551
0.0242753102850003
0.0208236021582293
0.0237754893420914
0.0220585372911899
0.0240800694830862
0.0229627796375119
0.0238717927644404
0.0221489426418874
0.0259244965433868
0.0220808823091848
0.0263917860143774
0.0230085506583614
0.0219828638776992
0.0230608363589797
0.0253588125337394
0.0211716719657492
0.0261298132132318
0.0234311294304087
0.0257454266768414
0.022898768306466
0.0219788546971672
0.0222579513451159
0.025692209442941
0.0224424721703749
0.0237932622354854
0.0215453727600697
0.0231892511002361
0.0201624454075913
0.0232635239129158
0.0237021401991919
0.0263831417216503
0.0240380932140317
0.0232242333529027
0.0229913551276901
0.0248872545420596
0.0223468105635179
0.0230763410208303
0.0220318202723784
0.0243713522698799
0.0252688894543288
0.0233511200442736
0.0195205227070613
0.0259415372378881
0.023565478104969
0.0248461280864181
0.0239283822651124
0.0257245391074256
0.0213207839713907
0.0239840591469105
0.0249316674690521
0.0270392723368685
0.024349836410231
0.0262427284501217
0.0237266467198904
0.025363310482785
0.0226408948004344
0.0246483711337416
0.0243071868156533
0.0257959400179709
0.0245353175744026
0.0257170882161636
0.0257154893218521
0.0265655708323692
0.0219168194330827
0.0230629963735139
0.0226552285366771
0.0266622404367607
0.0236970982649632
0.0251492418887912
0.0234111679733473
0.0269817222035178
0.0250075223095651
0.0254766763151708
0.0240816077728612
0.0270725990725739
0.0221979747461745
0.0253943120717642
0.0233215047025328
0.0247206567039857
0.0226874005871541
0.0236622318926353
0.0224991123258488
0.0263363461694012
0.0233881203338053
0.0244508414863109
0.0226092945879119
0.0274485484750994
0.0226931197928044
0.0242796452143681
0.0207169025389513
0.0252670668305698
0.0223962024413286
0.0231465221915369
0.0230960238472318
0.0251460220890243
0.0248769576253285
0.0262678446721921
0.0226195382971016
0.0252043685883517
0.023710797797013
0.0244865616164147
0.0214354217470161
0.0215940121026798
0.0214449391310447
0.0277542378826582
0.0221523650884248
0.0246478456044806
0.0241718128944069
0.0240400083935295
0.0233729419015631
0.0245238643377365
0.0230662795615735
0.0250169829492539
0.0213177995483856
0.0216202141230122
0.0219229809322044
0.0234498567999579
0.0220097168045221
0.023425925203101
0.0238872238434437
0.0227136942002622
0.0213985995919826
0.0248230332759273
0.0209099830112341
0.023850859784069
0.0210244158670354
0.0242137695221038
0.0230419894900448
0.0219289089044029
0.0212841716575158
0.0225358354078523
0.0216588871483865
0.0253601924246832
0.0227686236979492
0.0239237978530758
0.0238985167447863
0.0240598513230587
0.0217242378942283
0.0247870607755367
0.020671023701101
0.0216381086542989
0.0189415622797259
0.0213221032516086
0.0221264171534446
0.0243998018240265
0.0203586849704891
0.025047193455571
0.0210407620645482
0.0222072989604635
0.0205197728006902
0.021930121120748
0.0223505172840516
0.0225585538797191
0.0229734205026654
0.0217374050306862
0.0191785539233421
0.0213852450875831
0.0212365657045098
0.0233220398962019
0.0205695711439641
0.0228572776417572
0.0211839255612555
0.0213152929666035
0.020526866335606
0.0233340823113875
0.0242148017835345
0.0255662796896746
0.0233663358975019
0.0229635448890188
0.0207924616352425
0.0221961206925176
0.0203946996516014
0.0246356520236473
0.023338508374277
0.0235014915709167
0.0216661236670238
0.0217481128179312
0.0191194262201883
0.0225852604002998
0.0209371025484993
0.0217723526531583
0.0224574450567034
0.0236384789421103
0.0200713931806618
0.023189195255613
0.022171085273022
0.0222603514200695
0.0202182951423985
0.0243623334095273
0.0207689337689542
0.0239423794292552
0.0220368397353527
0.0232792144779915
0.0225479238197979
0.023338708839574
0.0219742209579043
0.0231413743982894
0.0202976318438421
0.0224612389806355
0.0206435580889124
0.0226759258732591
0.0203858276761667
0.022044384936053
0.0202892003553493
0.0210024917370821
0.0202164899968905
0.0201998806547353
0.0191919535123894
0.0232029119537722
0.0192815156609556
0.022139491704548
0.018426078118798
0.0233025302605583
0.0190300783997435
0.0215787377391348
0.0184563535217075
0.0197844664737638
0.0190208737070425
0.0210744510586335
0.018300129033319
0.0214162381804857
0.0184106992418294
0.0177796998649767
0.0193110444669408
0.0179922143828825
0.0175620860395065
0.019805017140017
0.0162268966509951
0.0197488222611881
0.0183923205336934
0.0214533474135366
0.0193900476964678
0.018894007956945
0.017072418176178
0.0193125314240924
0.0177449835384639
0.020255241296633
0.0192591253989009
0.019209450589185
0.0200861079852882
0.0210463316857598
0.0264903393479812
0.0203785861066282
0.0209274187465789
0.0195016774466326
0.0197283399192706
0.0170047355453139
0.0175807733449298
0.0182574080472328
0.019212385044916
0.0197505134105288
0.0179334788249289
0.0192945227877034
0.01757177219056
0.0178261988729584
0.0171169857339056
0.0170316744405968
0.0141042631394324
0.0205993401062215
0.0176980639130311
0.0185633234994694
0.0171622348383629
0.0203000225203368
0.0192354342938791
0.0195157473695459
0.0191744942847926
0.0168201178889146
0.0208728252441693
0.0184239371603157
0.0167013242914115
0.0178540607934205
0.0158767564228098
0.0195088271904123
0.0180703482749975
0.0194223215368767
0.017157018340364
0.0193705308742956
0.0158031802166607
0.0180809273822451
0.0175203621268358
0.0193148011224933
0.0162702969159851
0.0194459530120982
0.0182592680674197
0.0178238017025595
0.0144449374930368
0.0189503488581724
0.0147001315474022
0.0182528246254987
0.0183135890719244
0.0216563369880687
0.0138188641534717
0.0227013590242227
0.0167716706022852
0.026326786394218
0.0167734375112187
0.0217809813152203
0.0171430001959881
0.0178239233200134
0.0203464470430723
0.019446662235826
0.0156541144725776
0.0173278763184847
0.01798145497256
0.0189580462875149
0.0152953656420123
0.0194092777145318
0.0171836594022292
0.017089070000283
0.0136394943958487
0.0192631411211435
0.0175112936084509
0.0186743357219972
0.0189211987082788
0.0178278956721864
0.0214485929393615
0.022072628843627
0.0138795765870213
0.0218489781313127
0.016399765351027
0.0249313224813176
0.0232467517834056
0.0155225928897262
0.0207483532964965
0.0167005706977273
0.0203726612048678
0.0127023883296409
0.0188748791256804
0.0156049003483655
0.0226265377742696
0.0156137243996704
0.0187658431355902
0.0170900355055996
0.0177782947876117
0.0185126751737485
0.0186634377929639
0.0165197558667747
0.0171113953424226
0.018445399484589
0.0173265538615904
0.0174603824634773
0.0177510619821818
0.0179357733999094
0.0197337000398554
0.0187968549972028
0.0220525868478936
0.016119489181052
0.0192160702309629
0.0154559488919229
0.0215567747349912
0.019843996174356
0.025885467271244
0.013952211904419
0.0175669706134307
0.0181641621326081
0.0159439902929705
0.0181184926927987
0.0171660754195665
0.0185196669535362
0.0154587177781366
0.0186507440217187
0.017700597355358
0.0194424333812084
0.0167726705667431
0.019027803380039
0.0176408438014021
0.0189318761279898
0.0172124614390739
0.0207888732387455
0.014482858004127
0.0158406990746235
0.0198699855182069
0.025710126366257
0.0284990463456741
0.013629227746338
0.0224216610760067
0.0162892911342271
0.0204853928222249
0.0176591856926359
0.0216484061438212
0.0173234842872086
0.0196374310506483
0.0169479811180673
0.0191281748252234
0.0147972330857723
0.0177572552025269
0.016116269081674
0.0192320874186184
0.016406751740137
0.0187527019357407
0.017477880273217
0.0187642050938721
0.0156945875891691
0.015989685481453
0.0177137253909019
0.0174840755871541
0.0215730622874885
0.0172097333497231
0.0286009423959324
0.0129044690974829
0.0345125066996361
0.0140749328791748
0.024973800487462
0.013389042164425
0.0216106442895223
0.0176944482916088
0.0217980589125061
0.0207893219357517
0.0200160334382613
0.0162776812338251
0.0189380429801175
0.0180101011276072
0.0188968943538777
0.0193491562257709
0.0294033207368076
0.0287932141377838
0.0232320222450801
0.0143790017956696
0.025305713639247
0.0182596320115804
0.0313375124511973
0.0227274880294573
0.0183317662454163
0.0209266075471059
0.0179733831347143
0.0221602033568366
0.0187652114915884
0.0226851184427912
0.0211618117695358
0.0192079419904575
0.0168686807121189
0.0208031355473709
0.0200345230365505
0.0189934570973188
0.023444775066389
0.0208214420690325
0.0217779904568199
0.0209536726935486
0.0196944544341955
0.0237027509161667
0.018944773573858
0.0218436917842301
0.0168841753309754
0.0223659525725977
0.0212485385081977
0.0256965656113151
0.0223034951051705
0.0227733226162423
0.0249567759476896
0.0229659185595677
0.0247297763950378
0.0280101689000544
0.0152671654371322
0.0319612719216532
0.0117022493654157
0.0373571301209797
0.0208592673922897
0.0260100605063631
0.0199864310630954
0.019314064315232
0.0226456911829528
0.0218218389783331
0.025808962892942
0.0178277502217751
0.0303873630543969
0.0108457200612443
0.0325098041090938
0.0140253215096296
0.0308747180280215
0.0181860859560674
0.0268893166777862
0.0190862154157665
0.0268748177756992
0.016366588122555
0.0314184613455503
0.022984829580823
0.0393298238779319
0.0294520266828486
0.0199856676680441
0.0307384323758663
0.0285185517586613
0.0260773668933688
0.030715976142759
0.0177826563586336
0.0287699902801449
0.0177737744538516
0.0318101999676886
0.0234103813171748
0.0349421363694521
0.0271676553375109
0.0222629071900687
0.0271609090667066
0.0312171801023059
0.0281053766411597
0.0348170438178394
0.024211889776785
0.0327105273574205
0.0227061998188316
0.0434526188708941
0.0166525630050571
0.0524899238310448
0.0176619667025444
0.0482813891664419
0.0282637377706613
0.0385924725665423
0.0271871037673073
0.0387669324844179
0.0312616212228565
0.0384973708145121
0.031125961113558
0.0420568995835056
0.0291781487419256
0.0420456227488421
0.0335524711152197
0.0310870012518521
0.037319041619352
0.0411310066991402
0.0485817288501652
0.0491218886829088
0.0368454313367872
0.0418148734524271
0.0423942074101476
0.0418132331887257
0.0426344377705931
0.0355756743115012
0.0405448243075705
0.0366485994567225
0.039973480285872
0.0469127887733046
0.0399192921625694
0.0486913137501408
0.0387202245364067
0.0473006616587068
0.0427464924323636
0.0674809307189003
0.0482951827288276
0.0530117323821637
0.0550481766550587
0.0357720865458591
0.0575489960846141
0.0426989055273649
0.0524693676302946
0.0494225518721205
0.0472741112012134
0.0485248412428476
0.0475207157889356
0.0589754781900124
0.0460378271280246
0.0654799149150775
0.0574149848393544
0.0626443080441801
0.0538680710926197
0.0627094825948563
0.0832395730289388
0.0314972975037458
0.0912943825511134
0.0438858330015336
0.0837323153971924
0.0614624460262841
0.0800540742249875
0.0732330913443779
0.0747115097190016
0.0736286870178606
0.0813780707457305
0.0769749970756582
0.0856796733309929
0.087704770013827
0.0913075557043293
0.0876582073543993
0.104315387600409
0.0980559564706279
0.132679954900399
0.104016664594654
0.107966440986069
0.109678976760098
0.120016199757337
0.111356955140076
0.120684892699845
0.108136344554885
0.13169741487183
0.127623355573026
0.141734321083159
0.133984003792166
0.135059468429772
0.145328757330761
0.129189493537334
0.166503656383438
0.127959549068767
0.176127964926877
0.141210209849221
0.165765447168927
0.152510742054763
0.163221589426517
0.172997542425165
0.166401391505002
0.173708183241893
0.172436430687514
0.17851143133845
0.178674528359111
0.18158998581651
0.180900212525599
0.18433796809912
0.197694834118778
0.18887208635999
0.250259191013389
0.146159928438776
0.204658000486999
0.181293408580748
0.196890145820881
0.192902563054061
0.194132472828946
0.214517046978172
0.19480021460004
0.202058315589697
0.193805025277058
0.191635877365492
0.191863554938245
0.189414728646797
0.198219646777059
0.181039612245937
0.207901724170966
0.173575293425314
0.213267866087211
0.183254229361201
0.207954608448244
0.185312437101476
0.192404771311313
0.187611537882788
0.190657176766203
0.186073226646366
0.194223351827702
0.193264511953623
0.187499276169731
0.191528496207317
0.181558693025563
0.201954759497847
0.186418234458387
0.188371120687184
0.174565270299959
0.173128199826952
0.183335464086115
0.168933067626998
0.189716527994058
0.192321028863715
0.185889497738857
0.185815150320598
0.17383135764056
0.181840218452802
0.177743213539164
0.177397138332453
0.177988719941279
0.182753739114031
0.178124356720702
0.185172984686128
0.172966451414861
0.179862154963301
0.173620979346291
0.186308044866859
0.178059394344263
0.182554144900807
0.17998234386942
0.182379727035579
0.181548575527801
0.185952580868774
0.182914645166883
0.186187349340251
0.181710459727338
0.184522828868369
0.183979866353983
0.187883180843484
0.18191845266394
0.185423348375907
0.184531216019014
0.186723682570639
0.180510229884983
0.186237623496997
0.183558337302621
0.183971646574864
0.179918232828002
0.182392942548146
0.18094587472509
0.177936564629132
0.177872415462377
0.177512938114877
0.177586903292517
0.169097183692998
0.195426260009183
0.166267381259779
0.189005546800652
0.1664490340057
0.169454137695465
0.169784847529291
0.153583010880376
0.17718633286913
0.153926114263359
0.166515842068921
0.154244869031557
0.15460100240994
0.153585006279333
0.156925525709063
0.153531943402802
0.154071346743389
0.136271359479868
0.167372936336044
0.131276220809391
0.19812367751526
0.161479767070543
0.157027563169126
0.145404263037175
0.14466219569364
0.156098230986311
0.135699727205289
0.146869057866544
0.124072533675382
0.148036950853237
0.12591969761619
0.14451297034395
0.134209809467175
0.13099863813858
0.139348432831157
0.136784005232545
0.13236598150843
0.139386670501341
0.140393103336538
0.13008255690588
0.138893765624086
0.13591729341032
0.136822942730926
0.123393968702611
0.130875070730353
0.120593445635572
0.128318155220053
0.139087829390897
0.106501568544349
0.12923718323448
0.110515199964565
0.116406357086592
0.111246957886694
0.117234523283918
0.120463636337108
0.10781283897644
0.127927421066654
0.101758013861248
0.125186589635976
0.0997241106252236
0.134791925407709
0.109133265448131
0.119060726399103
0.0991224115823682
0.114031336155974
0.112158378180914
0.111381995272171
0.114869816835625
0.097719508817521
0.104315746003551
0.110217682787146
0.0940464240977649
0.105702759714482
0.100116578278671
0.10896960828577
0.1176239428222
0.110060964705989
0.110813327220481
0.0964725116284925
0.0967129641120921
0.0958121038092442
0.0916733161785589
0.105132321644502
0.0861568893766985
0.108764963284711
0.0836109936726227
0.101028467540199
0.109865377981043
0.0944844676138851
0.10166995902899
0.101075838647875
0.09972936804501
0.10350151530192
0.105007843189218
0.120820578924285
0.110424236296377
0.11148168487988
0.112824958885126
0.111033175772435
0.119997885415021
0.108733554899613
0.116116444219739
0.11022454945738
0.127671370814703
0.123791266098543
0.129450113392524
0.127438716895512
0.127270037891291
0.134322872447342
0.151918348437299
0.130147943041593
0.158229977581476
0.133697607017459
0.177978367102815
0.142663926758531
0.163140832362072
0.159055462729488
0.158956050640392
0.169040776323641
0.163402898244305
0.173869937403674
0.188498827408483
0.166469739052962
0.179693326482131
0.17192334082145
0.188218875395743
0.174531103318205
0.201230584604709
0.182813559731508
0.221454256815691
0.19391477422496
0.200366172033393
0.20439929579061
0.188830057990022
0.203313079758748
0.195296593364657
0.202516648964307
0.197874662973008
0.196545294730787
0.211956738696614
0.202420143997447
0.208756753390677
0.200317258448584
0.205592396805871
0.20560030142757
0.207398985327867
0.212773630717885
0.205749894619951
0.210775148416971
0.212539185342057
0.210980175746035
0.246509145028059
0.204717905048941
0.228513530734264
0.221468148048915
0.22623177333241
0.230565645938261
0.227899061189031
0.237211547133328
0.237050215679419
0.239653992903644
0.233720852808036
0.238346992561233
0.244089308579561
0.23394793810294
0.253897032676338
0.235806774489081
0.255480780331882
0.238563309694089
0.258420877139423
0.267226530125969
0.249615714657447
0.269421492703065
0.252185748230665
0.260825096408393
0.249558201418329
0.257167199555854
0.250145814208349
0.25911009580888
0.254824490651723
0.258012863473488
0.24994513857908
0.257271307276823
0.254952149859673
0.25580945726826
0.263572890378946
0.2575059982185
0.25579936674055
0.251796962640792
0.253501469532756
0.24829752318249
0.255948237228602
0.253200853329537
0.253625335381169
0.258870824324164
0.248128228215072
0.264995202989495
0.256374570998024
0.248461620455996
0.253874102465493
0.250596457669898
0.250842270157498
0.251912646550166
0.248780674421285
0.26157043171926
0.247570209381266
0.262551883559099
0.250153037929935
0.259202796187729
0.252689657944643
0.263118601312702
0.25270706418897
0.262222837887091
0.254735273721842
0.265093374560796
0.256514484199486
0.262652391758522
0.258997478994455
0.264905550771849
0.26931772878298
0.263786744373376
0.259960333664854
0.259418872653795
0.252561681663491
0.264049843549746
0.251747026249425
0.255950421360688
0.24431804618246
0.252507271283925
0.239241049496026
0.259937440722118
0.235243192196099
0.247995763849102
0.239483526425414
0.236255846491607
0.233968559931908
0.231116706705147
0.232060739849615
0.22987197301843
0.228233614654516
0.221207802650576
0.223778411666876
0.222742165674872
0.220657550032876
0.224627771321851
0.22149936601541
0.222906092607121
0.221228403637075
0.218012409875191
0.216708842273109
0.220890585608811
0.214276531866411
0.221489927795271
0.215533715136607
0.221120207244017
0.220525965178333
0.219581210869788
0.219248032686976
0.21724747816779
0.223468857094163
0.214542492205367
0.217113380407283
0.214423453037462
0.216842758366001
0.216325751863122
0.217034809640588
0.212506256813538
0.216784958818412
0.215864100614185
0.21502804427433
0.212215495310027
0.21262692309485
0.214268529335879
0.213242318433089
0.210729224816912
0.212036223159735
0.215864700378361
0.216236973829038
0.215500638024608
0.211693017700738
0.216567788006281
0.212583475540846
0.216233367157036
0.212888701421895
0.21775470635319
0.216220008696537
0.214580486962799
0.213631450852342
0.214800723865226
0.214141344527761
0.211261951212353
0.211384191025425
0.212491960252765
0.211563088057959
0.212500641542474
0.207015418266533
0.204395024631515
0.205102256900604
0.202128719168581
0.202177683894659
0.200017438298768
0.198429153425998
0.194893314720419
0.194170102078761
0.193235070696268
0.19091421191797
0.187828922421039
0.186687592895076
0.187871249255135
0.186316363101001
0.186027771145667
0.182495718376792
0.181664242851378
0.180541101973192
0.181377314577403
0.180637451051374
0.180663161039295
0.17572654179476
0.179965337959428
0.181510453902412
0.182244710909868
0.18142569940398
0.182048499814435
0.181370254916112
0.181335623191533
0.18223119471121
0.183658538727758
0.182603919676354
0.187159146840395
0.182791890232148
0.185799324540822
0.185804524512323
0.188649180012473
0.190935764825527
0.189641887578719
0.189402023729364
0.191339036030193
0.190852878043904
0.19140461414062
0.191555297180092
0.193734929835786
0.193864969891725
0.194320840738766
0.194374575027451
0.193682031286815
0.195881070613076
0.194224561932176
0.19377469896835
0.191830407839434
0.192468316611275
0.192063704383708
0.191631016937619
0.190196314700802
0.192029936571905
0.192859663423269
0.188598488588082
0.187564309191053
0.18919982319371
0.189954703806871
0.188352157473893
0.186240673349568
0.186488200190102
0.186143560051265
0.185356954870113
0.184696147105993
0.183573035587608
0.184283738596657
0.183265175014491
0.183949700497438
0.184538339247473
0.180688712980164
0.180764883819931
0.178368234505354
0.179414452689866
0.179925797261807
0.178599784630918
0.177164472720034
0.177329962912534
0.178690727161749
0.176263299820234
0.17735348695944
0.174604479732396
0.174408907531444
0.171627522905379
0.174193079199096
0.172480609760748
0.172819594621636
0.168923735035784
0.167915984465335
0.167762767107382
0.167336849437076
0.16508799892376
0.165223619646549
0.163429362927969
0.164711885482015
0.162373598726511
0.159517465274174
0.15846312108762
0.159476735139883
0.157956671357387
0.156528122773947
0.156224216308555
0.15699208907216
0.157396650775563
0.156427566570436
0.156734005310299
0.155900782690206
0.154001365672707
0.155940475821472
0.153231804892808
0.152628943547259
0.151149780878043
0.150212737957582
0.148506315193055
0.148746820366167
0.144463513587585
0.146073536357722
0.145113181558009
0.141358861685302
0.14152027029266
0.142778487629835
0.142959911273263
0.143655951496639
0.145776295269751
0.145848622077773
0.149531964079687
0.155371503460335
0.158855303607644
0.163487701396193
0.170504768086755
0.176550529082262
0.184214442108821
0.191964786718713
0.199120226618032
0.209022889073833
0.216726753906882
0.226936289410119
0.233097043609159
0.24243335918446
0.249946577556043
0.25848951589559
0.265862138048175
0.273812989287502
0.282302471611608
0.288881026590377
0.29526728328224
0.302161877523107
0.307591996737415
0.313273950404698
0.319929699437279
0.323961785934679
0.326660143879726
0.334311883990404
0.337958345649011
0.341862048192137
0.342279637853233
0.346572783431298
0.349456463713545
0.351545840992107
0.353616378754047
0.352971448738596
0.353838068611065
0.358517636722779
0.355448564069657
0.358792362323313
0.356317774801538
0.357092337794364
0.359016663900498
0.360174679337219
0.36069059670435
0.362378983629074
0.36274180958008
0.371269186408599
0.367193524223894
0.372028971414334
0.375182866165295
0.379115695299267
0.380720277427072
0.382943166942937
0.385981870813083
0.392270565590992
0.397119723927419
0.399413129292765
0.403643106383704
0.409960197817938
0.417927494524936
0.423897373177466
0.428701415933947
0.436709146692876
0.441242644047323
0.451223320010882
0.452818898344162
0.45778877698508
0.463869053149203
0.46233215225156
0.463514238326504
0.46948394751704
0.469952521162961
0.471142016922831
0.466858167294947
0.463345794271717
0.460672674722835
0.463615298596146
0.459377847667423
0.46292444249591
0.460342043205414
0.46304557042972
0.463243197221725
0.466867953521663
0.470959647931577
0.476279709297778
0.484770245585141
0.494511878816554
0.499779493456038
0.505084896908817
0.510435530059678
0.525698931311708
0.5360120530164
0.544791375456357
0.553751263177193
0.558939070778117
0.566323221095031
0.578502449725118
0.585891040968901
0.592747566486896
0.597093652791501
0.610734481716357
0.616914041187566
0.629855472524574
0.642541213894578
0.65437972220787
0.660442603215548
0.674139043270469
0.683860170118714
0.688277007998566
0.706949372638107
0.713148026537067
0.722501102779614
0.731854082135422
0.736612655136513
0.744412151110831
0.749056285191348
0.749336481470294
0.759525399076245
0.762786788405518
0.762816348584662
0.765408369041857
0.759546563827256
0.756187956877348
0.752766650878122
0.765001599478416
0.747972031918984
0.759719993637698
0.736776709945447
0.743939391212714
0.734719633871441
0.73469621516953
0.725849325990506
0.722475450868983
0.725359306841251
0.725948052477769
0.730329825523855
0.735038870660035
0.74133331984979
0.742254391305161
0.744594537851496
0.756298540660044
0.759931620621151
0.769833398016332
0.771182650472879
0.774830448872696
0.77126422385665
0.792237890965283
0.787581576191087
0.788347586520742
0.780782712226633
0.786083274962409
0.790640926872667
0.805453940440806
0.798677835906969
0.788571191050454
0.790730961307659
0.798891105466674
0.783300171272132
0.780629218070693
0.786877527750801
0.770141921953094
0.782425950832356
0.769411271319
0.768264222943714
0.769185024330051
0.755865639591626
0.756713078734813
0.751582596564523
0.745601197237826
0.72789670474195
0.735679415561811
0.72169810355776
0.710699596678903
0.709694912935794
0.69502082112056
0.688143925573983
0.671259022868412
0.658994821638798
0.6409263762058
0.625387447827331
0.606495469125624
0.588316683682208
0.562710585693487
0.547392197102406
0.531697670825647
0.505307555788187
0.48286932920729
0.468088617792977
0.452811017470719
0.431025777076303
0.421496036620697
0.410688678329625
0.404455712247641
0.397086914444277
0.388718396292096
0.385408741612492
0.382159929554677
0.377382232956887
0.374902945001729
0.371364810665884
0.370279867861858
0.366538738737808
0.360485542816187
0.351567011763662
0.34932687215174
0.343916218713097
0.339476260145204
0.332764325096057
0.329164302117766
0.316142458428771
0.307191733679095
0.302981314313173
0.292877972282638
0.280659552201029
0.272589541632959
0.261975182742494
0.255359481036851
0.241015569704195
0.231176174505685
0.219791657104823
0.209798825565819
0.202544853513081
0.189967331278288
0.183935767422949
0.172564482674147
0.164590065896028
0.159219272250879
0.149064256841571
0.144959064580839
0.138349488919086
0.134777609828955
0.129514598178363
0.126798094215839
0.124233823637312
0.119057659698983
0.114340727332186
0.113182245603829
0.113955527509616
0.112349893651466
0.111918400827315
0.111278704426676
0.113744515336422
0.10820519895077
0.107643329896862
0.111634548155137
0.109630144798115
0.111598488262353
0.11478035905174
0.115463873089121
0.112888363889519
0.115198497729519
0.117394799006352
0.119804882858141
0.116542172795053
0.116361556581169
0.111744397640372
0.11725319020746
0.114360325401216
0.111943685653782
0.112519495278446
0.112347553964598
0.110625769263438
0.113704070176618
0.112733524657682
0.111382465426273
0.110702325933124
0.1111982434749
0.108372322522423
0.110006958420909
0.114156468459687
0.114025372899463
0.112365179448309
0.116062969445228
0.112315601887044
0.117580698124854
0.119290087428413
0.11772309961376
0.121167973336038
0.121056417323832
0.123303327945784
0.122991752553944
0.12425996222723
0.122996799646455
0.12543582708803
0.126501184754692
0.129543909929889
0.124405243662839
0.128236663666486
0.129017026481279
0.125993220126421
0.131159161257108
0.132919603292491
0.131768659924567
0.130645972881228
0.131254974736247
0.132407765776734
0.13394095963604
0.139026202352787
0.144103031107069
0.144918954500307
0.145366819771361
0.150991876092969
0.15651036869039
0.165918115766611
0.168701564299244
0.171481790141424
0.178823507891809
0.179562921501167
0.182818519540501
0.179759519008407
0.17733328632863
0.18016846895628
0.180121570272779
0.180794928536051
0.170345192213777
0.170169739162776
0.164553226933161
0.160231963744937
0.157308383074627
0.155243148998088
0.155447330090907
0.151338507668245
0.150812635712702
0.153215795651466
0.153226460378199
0.153410268970905
0.157211575518012
0.154451902334513
0.157245752010763
0.159689381626925
0.14914776744005
0.153258268218996
0.148098674975526
0.146938881294246
0.146363794575411
0.147236286452462
0.139401793224701
0.141943125249856
0.140651206546084
0.140490815430416
0.139361218268627
0.139464659803781
0.135277559866948
0.13094599149572
0.133545194987244
0.132908378243629
0.12674130591362
0.126363682752135
0.127557858368502
0.130093451936491
0.126450090312548
0.126205124993851
0.126552299581809
0.12629597457671
0.123827463248942
0.122818004229871
0.116783017647218
0.12574675163196
0.113863316341577
0.116445590343614
0.121474473656582
0.119105954455407
0.11914550836675
0.121524215692828
0.110445273435871
0.114417461557516
0.108149625259136
0.109710768887027
0.114369612666592
0.105955613711162
0.103757767867492
0.11313025555244
0.104728587360011
0.104607417802593
0.108525754016668
0.108405082514266
0.107747005086824
0.114813847384621
0.106701172276503
0.110797859011105
0.106994362881611
0.102754021403332
0.106358908264183
0.114661063170512
0.105376593688833
0.104596391067908
0.107374374561069
0.109399389825904
0.116317565264867
0.115639165370608
0.111443512726611
0.105790672422172
0.106741309611616
0.108975192950858
0.107767632210715
0.11822371326234
0.11459512992342
0.120563427734247
0.121390584443357
0.125000473805643
0.128196989209799
0.118971926569506
0.121477935110755
0.127031412809232
0.130887460880858
0.134568581072414
0.133327646026402
0.136377113989241
0.131779988299951
0.137514304766829
0.147991784642586
0.148658464210004
0.152104330990442
0.166556146309228
0.161671755703451
0.170054664514782
0.171864652593378
0.176761366075865
0.184657336597061
0.193266241089212
0.202545234232468
0.200636778455571
0.205358902958362
0.213856117449099
0.214919445721157
0.224451324478666
0.223499908268127
0.221969770280781
0.208248343362179
0.227252466544477
0.226902009932126
0.210030734844738
0.216668710257206
0.212643200388989
0.215881664286658
0.208384862771754
0.214641681262706
0.211559291329512
0.200738791906507
0.202330379025628
0.198395909567598
0.194535329907069
0.206896000128065
0.207527698425587
0.194734680154257
0.206519661290001
0.205124381234298
0.186744116418305
0.170694285398899
0.186728589659909
0.182874876925804
0.18560783355428
0.192217926772589
0.180484327485426
0.175012716711449
0.177011663232534
0.172101298087482
0.162811903092244
0.175007192695259
0.175673199385746
0.174864623971949
0.175882458327325
0.179296287164612
0.174169968039131
0.166720788061058
0.178264896144028
0.17127519953352
0.178325603037164
0.172855384778561
0.170615277459298
0.183220828245866
0.17370094384564
0.172673830173614
0.183715070736782
0.162109192125459
0.172596738839767
0.158937572038117
0.175736291742004
0.190271728813743
0.193939580997468
0.185352945164649
0.187030033552092
0.178634353688867
0.196381876470455
0.187026147070249
0.205098677786424
0.193331848801198
0.179053051123207
0.190759502124016
0.197946667875955
0.187327375311167
0.194216727584093
0.200058154561007
0.220895226664551
0.205573806678723
0.217640254052667
0.217205833502479
0.227141004917604
0.216402557080229
0.206064027806524
0.209176829502115
0.215386879369212
0.23124141989541
0.245848244549494
0.245489848895865
0.237884132997126
0.224227007937242
0.262159087011818
0.281619552752572
0.235116068062107
0.242211620743383
0.297577834511533
0.282824123511382
0.288379840660969
0.252332924075044
0.247265654972262
0.263442621604219
0.263728869538364
0.211472867790371
0.248638003553617
0.278342470742888
0.260864320895478
0.222161973306364
0.235275150110328
0.244131119085057
0.280087606030319
0.235379036483213
0.228615541697054
0.258229641588492
0.231351496791885
0.204300535056202
0.237680872346914
0.267265821330134
0.25087401154752
0.206950915176406
0.22438480590295
0.266897122297598
0.244695001672554
0.300752016317601
0.292666660989835
0.248353993580713
0.278273701704436
0.219672967226915
0.264620881838424
0.269997860034232
0.281741476446669
0.228809441859804
0.25039941552636
0.307889079198155
0.244445442676923
0.158824477973519
0.247569339074341
0.185023505801591
0.268677269425198
0.389220522779156
0.208713361227861
0.226132305460735
0.311933317985018
0.217346556029078
0.273960444436274
0.373114671712901
0.273223745560946
0.169308923257492
0.348905543099477
0.247433967105084
0.234837256184268
0.331770249753816
0.289511703829861
0.239308275658097
0.256354715583524
0.242073641365357
