3596
4000.36533379555
650.420452594757
1
2
2
0.0161170085175066
0.0173243415013859
0.023674116173897
0.0136740474337539
0.0163635655146819
0.016617691210466
0.0132435445416597
0.012072566287303
0.0262446005965774
0.0132763501835161
0.0116748729878876
0.0147549800261597
0.0118722802102156
0.0138009608045297
0.0251164725172034
0.0143250987536069
0.0206594130791009
0.0112611970204683
0.0192163143796811
0.00802856240465294
0.0186350630772423
0.00636956997558636
0.0166681735382052
0.0165358691160037
0.0211816297087827
0.0133720748776878
0.0204630913494802
0.0136059474331938
0.0234293245138247
0.0101423174150898
0.0136473003814268
0.0115581576955504
0.0136182244924168
0.0106341693178933
0.0181160855571467
0.0066871228039563
0.0164801025401559
0.0119269495918885
0.0180074122014153
0.0116820454488073
0.0174100400809805
0.0152780311029574
0.0131672120904451
0.0167163961169914
0.0228101228436941
0.017915080704322
0.0177738340542065
0.0166677790925272
0.0211681144693177
0.0141214484370838
0.015704955745168
0.0227840798349651
0.0114994173275289
0.00912574050805516
0.0260170191870851
0.0113875773229779
0.0191857964626544
0.00864529983515558
0.0203068893545658
0.0167352761771387
0.0272718658426652
0.0142501385814213
0.0208953641120972
0.0114837722191958
0.0195301655613159
0.00519782440379721
0.0166412931808064
0.00462233423625856
0.0192087611424087
0.011577370904178
0.0233416577690523
0.0207860445046092
0.0210503210583878
0.0152910678116756
0.0193343347944142
0.0157008273615283
0.0234839012586063
0.00735358831242509
0.0147528681965847
0.00853518004088315
0.0201202906535966
0.0113129759975198
0.015193656653316
0.011512556174631
0.0347214771112942
0.00826704421680568
0.020463058412995
0.0226177399986151
0.0181413610990661
0.0183216402449766
0.0145195858368467
0.0148661152843901
0.0279027035958568
0.00962397824519979
0.0114169516215101
0.00628813644858309
0.0102695860848605
0.0149066318452302
0.0222901326765012
0.0144371225960187
0.0103548375494194
0.0441771486428946
0.0075796453205718
0.0298453998785833
0.0139024807639539
0.0206010429368399
0.0374253361609057
0.00560370995650035
0.0231352140452628
0.006697550955271
0.0216979408852067
0.0104833472839007
0.0217556909775082
0.00541419298971088
0.0245931993456973
0.0206952744201349
0.0241098070477511
0.00662504871620037
0.0146525636513228
0.0175122128347129
0.0259364687348332
0.0400576006661581
0.0173411502970902
0.0210805224268284
0.0103452580942924
0.0168847514709958
0.0306723176901314
0.0297787997863081
0.00625038422915307
0.0143028586865953
0.0083502356396335
0.0177727545835608
0.00747806626395114
0.0333367951161308
0.0166228353074972
0.0236638690057227
0.018386117960526
0.0218843196886258
0.0333661090367294
-0.00389814568369422
0.0157093234331328
0.0183300287704728
0.0146390464936757
0.0341503575075402
0.0125721640189886
0.00269142881454457
0.0187293078710196
0.0233789009726338
0.0109777242812096
0.014992491170121
0.0168187639823766
0.0238925650793233
0.0196971146263863
0.0145932081926356
0.0309733847203172
0.0553116321743467
-0.00909878128203246
0.049818830528785
0.00106913424243707
0.0158985707593242
-0.00810697523352428
0.0151872953355005
0.0163959010094765
0.0202529491195991
0.0104139800516671
0.0188853949938659
0.0278595193643129
0.0126499060869995
0.0222924444484012
0.0274286920258599
0.0169242883452395
0.00551382067768972
0.0349577111045195
-0.00356786281067324
0.00266560812103803
0.0322977310802345
0.014153574384305
0.019046799898265
0.0083273772229913
0.0232985356226601
0.00145615927074366
0.016476187151783
0.00735810758051485
0.0171553819155608
0.0184331935655315
0.0259440472635965
0.0113630960959742
0.0176074214342532
0.00725898849115724
0.0256765334045105
0.0159810465992847
0.0320911743936124
0.00333112480923048
0.0213376791967462
-0.00212650932898968
0.0339620482928762
0.0312708355442036
0.00722333317622535
0.0160290571159375
0.00776325242707118
0.00806604196590217
0.0208115012963101
0.0162238539107252
0.0247434384189608
0.00658836663195449
0.0318867269112509
0.01651173350702
0.019345633278492
0.00599782624542939
0.0131230069475342
0.000155262918845221
0.0248998667681079
0.0272049173955422
0.0122416319330266
0.0136299688175374
0.00484187840425778
0.0239769131963009
0.0131567220231894
-0.000589614228675494
0.0183490253769686
0.0124186847144082
0.0215517277817212
0.0182774134760616
0.015899307709227
0.0149188307798873
0.019388750386639
0.00946852776637627
0.0132969630104622
0.00340627575112028
0.0177474840587652
0.0147359198775922
0.0097928670724017
0.0122568154274463
0.00825570515437426
0.0066849525398861
0.0331819848817696
-0.000276463923992309
0.0187437355630764
0.0140601095794629
0.0231362601552772
0.0109180096309097
0.0169697316208579
0.0122015617681149
0.0236384739512115
0.0064326195802385
0.0326365788022404
0.00213103507241878
0.0158417714098812
0.00998611742400911
0.0228663521261981
0.0258481792637754
0.0165826425751546
0.0128654437956542
0.00899702938728848
0.0217376608482172
0.0112359040577825
0.0256534624393792
0.0155179039905112
0.0170316581592838
0.0162987908000884
0.0158170258606898
0.0188730574644637
0.0220725074880649
0.0130131689023306
0.0442751260305406
0.0222483211183011
0.0147935515098224
0.0378190923232229
0.0100319868989633
0.0240852718569814
0.0198561929136698
0.00493070303501534
0.0469161297641042
0.0469037587009939
0.0212711725066451
0.0173260802691321
0.0221003500785864
0.0133060484008437
0.0184644363056445
0.0264321239424
0.00958137119157766
0.0441307803831534
0.00851311648229769
0.0485949443144752
0.00082431944800468
0.0277889989927789
0.0246174724603121
0.0138974742925693
0.0161617495809896
0.0112942230269729
0.0142847104872503
0.0120439766483079
0.0168212702728241
0.00602797883621505
0.0227064005376154
0.00649523763979146
0.0377386990746937
0.0129442076828057
0.0203533600559893
0.0114120468503866
0.0229523586546319
0.0150537565274232
0.0197276658903751
0.0120172993861933
0.020382095425792
0.0272655527642313
0.013817810084423
0.0417070797794631
0.0165206714545182
0.0119810442394823
0.0223431844046603
0.0175789765362775
0.0205254437125226
0.0134941027173078
0.0150343204922321
0.0156204528108912
0.0193305031900525
0.0127413330939157
0.0247707878780466
0.0259792587657388
0.0123307146986298
0.0223750643286973
0.0121458832397635
0.0192766788581859
0.0149330969518193
0.0235227663556377
0.0169088013608687
0.0288367409664935
0.0186269689980402
0.0234705272078601
0.0331696738252437
0.0213371062639332
0.0277283959013058
0.0327644302889357
0.00743964039378776
0.0210478373579918
0.0102878874240139
0.0279191269721939
0.0131337545964388
0.0197599470598453
0.0157449612660781
0.0159625815576644
0.0229461707863332
0.026945966631522
0.0172842258930096
0.0330080258223467
0.0220132993595235
0.043410239286354
0.0227500811335626
0.0381710985601915
0.017144589074185
0.0301298778723634
0.0505633383774827
0.0112339697838343
0.0550121929954656
0.0201531329073083
0.0233995353413866
0.0191282430031575
0.0275543127995391
0.0246357824029712
0.0296419456834436
0.0318295007061354
0.0189424672843956
0.0290251012729005
0.0245222251722402
0.0335872951178635
0.0176131591281161
0.0450263498389825
0.0219900729474667
0.0322061657638442
0.0340736779293952
0.0263098126961328
0.0348635743892365
0.0541443249591355
0.0171855147069656
0.0868236847281946
0.0248377233332005
0.0806965687062801
0.0301647761528357
0.0462609854309891
0.0327894850127702
0.0484247911302902
0.0322927430330325
0.0410726405692487
0.0337330771164946
0.0389222478796316
0.0287646609524236
0.0549454999540717
0.0404949747551999
0.0538961359782113
0.0327525037908223
0.0544256804311667
0.0443829430503742
0.0487883288394626
0.0441286859301905
0.0521894487172883
0.0768062903059113
0.0711683405056782
0.054604399191075
0.0473584255475905
0.0567646676582677
0.0397263069152402
0.0607060166066904
0.0561279016199357
0.0569509945443752
0.0529541149095792
0.0712950130562341
0.0841702158130117
0.0490743384581982
0.085991450755249
0.0554103809650295
0.0768874161682063
0.0755638036089657
0.0545696563527384
0.0802969541612366
0.0637365618451141
0.064124093238443
0.0799047234125292
0.0908990152023402
0.0649528865986659
0.0856202531193663
0.0742572056041724
0.0686626465349157
0.0763941190912392
0.0777471643879071
0.0814415426449867
0.0670969403331273
0.0969751141636431
0.0722107909563937
0.0885171727861381
0.0859195211247078
0.0825970208000513
0.0839137406647337
0.109726902878416
0.0769279044397472
0.0992889021828409
0.0917027972859757
0.0906301166798717
0.0823062804412309
0.0964573766772163
0.112691950755684
0.0914465044930081
0.139969703572984
0.100609790746695
0.0944041580808217
0.100471187791728
0.104109560369281
0.117499414318314
0.0998203293136792
0.114165725939625
0.105541125048253
0.114275132171761
0.116303960302891
0.124593186465049
0.104777640213928
0.12856954160722
0.118363458096309
0.128383537543332
0.114826909692244
0.126933929486523
0.12820115697924
0.122462655619556
0.140895547811265
0.12902360755013
0.142460150455628
0.143950252153939
0.122954073603052
0.140513360641236
0.137824922032979
0.148158303475121
0.144000310315705
0.149880142519806
0.141243201098368
0.166621839517782
0.144632326765487
0.164236887400536
0.144568570654939
0.173606692793751
0.160486094802013
0.166153611158315
0.168968967301711
0.174767909345937
0.149976904398075
0.171375052956514
0.168596542992205
0.184300888456348
0.15473586069574
0.17248326958446
0.161374829058583
0.191491166831451
0.173592737064362
0.19013896343673
0.171351119756704
0.194647061101734
0.18168427940845
0.196689807616002
0.200545485809544
0.204420985533044
0.185964642024954
0.209517533758376
0.194244657776895
0.218547370856358
0.209328749420626
0.215013479795925
0.209039088553788
0.232371314225241
0.211055654451509
0.224639797923183
0.209102753063055
0.238340803254258
0.232999688579563
0.24136879881925
0.237982270360868
0.234556778527493
0.214855086516799
0.243200465883344
0.214369643435733
0.255202166925894
0.23676261746598
0.25199404372712
0.229878804316233
0.264319189849818
0.242844088559261
0.266759599053179
0.248510748871401
0.278117117243153
0.258697091142639
0.272125717160422
0.259238180335552
0.275817173623419
0.264636827505614
0.297091162144741
0.271619605933377
0.293808442078062
0.2782525064758
0.302788915651382
0.265433142151393
0.288054080969686
0.270889098337859
0.30687760962233
0.293083491376588
0.298227041219755
0.290691132437253
0.316668539186811
0.295775742926384
0.305503244466571
0.30768850821545
0.333478194720483
0.3070120758396
0.318829253515071
0.302996149882265
0.338873798527296
0.31461094733945
0.335071315461437
0.318987383156182
0.339508360912144
0.323519421642935
0.340977085269637
0.325776762000611
0.364886010287795
0.320999840665614
0.365022399238376
0.347715611983645
0.36824913177691
0.335123949030615
0.383498490387519
0.347744629618902
0.362695981234866
0.342902272059267
0.381916025403166
0.347115391288442
0.386441336306831
0.35165523913754
0.388441531387258
0.35977439811281
0.399020963917438
0.3632953954328
0.385768285982037
0.356767441209815
0.401958569789195
0.377059588168793
0.394920608981699
0.385257160572956
0.40950471451002
0.390345958745457
0.405597559982962
0.393256579272154
0.412624698900694
0.390002234770518
0.412086256484939
0.404955851909248
0.426755986522821
0.416057607406733
0.428805370149853
0.411839087128236
0.433833020559969
0.4152307792882
0.451853705623414
0.417530652837125
0.442088429992644
0.422447294062581
0.430180268159871
0.409393370309551
0.463762862667416
0.430993696195386
0.437598614447669
0.433276520904794
0.463586598853768
0.423814955641945
0.461293569999945
0.441310687459818
0.479788510046384
0.454642293102085
0.46266669006111
0.458489044850886
0.474041824061191
0.453451302516547
0.486696796975767
0.434040654395873
0.480007719537418
0.437800432619088
0.48810683315397
0.454992817276555
0.504691179437531
0.479646130527327
0.487723554593368
0.482279123011053
0.494411784537287
0.484544604676416
0.516899504913634
0.473779412787368
0.520045028476823
0.473466031822442
0.518212170566684
0.492055819510194
0.503670729421546
0.486369795632903
0.497794788537819
0.496649442051407
0.508842861307438
0.490207062220013
0.520072373124382
0.486043126071744
0.514275736791903
0.520818047109956
0.534119260205416
0.503499061156435
0.538560526453232
0.495364541441568
0.532259244148542
0.502935498646785
0.549740036536828
0.505858925432402
0.53985740207208
0.497879182597802
0.556687642712767
0.514387071194517
0.545620243212048
0.526721613528109
0.561264162433019
0.515441088705535
0.534911370505256
0.515041123608596
0.562821692767981
0.524764036894605
0.548170822200817
0.529072416330707
0.544922498259803
0.52942348086792
0.546163281856661
0.521537648966348
0.553294748547691
0.53551879258115
0.567271327012411
0.502726443360025
0.547004944028649
0.558976636176078
0.554086278068528
0.536032735639042
0.561475554055876
0.554305132193217
0.581792967068868
0.553193899446752
0.55489329105369
0.53178154741057
0.576413865653905
0.533983817616963
0.578296472832992
0.550708959191717
0.569851071776195
0.540566080473286
0.558100656510704
0.543878636291465
0.55453042936138
0.53736582311688
0.569646727491528
0.529978407228968
0.561882651630877
0.556771156904428
0.583738523476971
0.55451740887967
0.573935116255766
0.567472583626141
0.584250492705655
0.547543025062709
0.56739542664428
0.537912301229933
0.579888844789332
0.550044129590466
0.590688249850808
0.56817488046872
0.576962233121465
0.544645523838161
0.587566303593954
0.562410208162031
0.573445130055567
0.562530452591909
0.581251844672068
0.552872372432811
0.576954448561044
0.563519871200817
0.566015699984046
0.550591915787507
0.578898042870921
0.553861855658171
0.56263467871103
0.556712610789452
0.599166621873931
0.537249419553286
0.58064367605097
0.572001327765796
0.586904198439301
0.547586362858907
0.591750272090995
0.563883779644174
0.564447080873362
0.559077080587247
0.583115670164976
0.56147802371502
0.573861544255083
0.546456982470883
0.589429587440178
0.549782182641837
0.552750052437762
0.540339576306286
0.570437702873895
0.54449325508109
0.602781055953203
0.563663922009057
0.566274249591683
0.556421662377982
0.560653171693072
0.542987106839293
0.572768820926326
0.546744362579087
0.576490821855186
0.535644968415923
0.55858439612559
0.542588961514698
0.55634672341325
0.549595843698979
0.567849264383075
0.552257059471695
0.58283184712347
0.543920973195428
0.5675642762019
0.544320085091071
0.560290317609934
0.56030977776674
0.564318429864588
0.535748793345697
0.560093873930536
0.554731340694406
0.563297859617048
0.540959801030733
0.553951278127321
0.535166842433725
0.551322206930746
0.52557350285229
0.544506579352115
0.533077374401534
0.546339938768677
0.526838340199645
0.537594553518861
0.541857219104618
0.54383828846118
0.522152849038536
0.54949045674162
0.522654871104936
0.546236005932828
0.527877852697532
0.548794159532984
0.517888405015536
0.547490582850769
0.515316613771486
0.540006460160827
0.514711275815173
0.531463233737412
0.515323647302548
0.525002703388458
0.512750296868056
0.515151417913116
0.507867028695847
0.509898356055049
0.493580196592565
0.523468943316476
0.506885539514495
0.523406164331162
0.50546028782106
0.514385261082577
0.495170490201226
0.515533718441824
0.498926306617792
0.508155150007171
0.49366181694187
0.512800327854893
0.492096498437059
0.50239889204709
0.498666698154889
0.504507683023696
0.484402666635837
0.492406473069266
0.471943155072378
0.497982302323578
0.486353160842761
0.490287472566611
0.486392212551528
0.497717597047954
0.471447882930121
0.487453176596593
0.467281897542342
0.480269881955742
0.47340197681333
0.477529676307048
0.459793718509443
0.483210899889556
0.462581222669879
0.4716455345712
0.463713059098033
0.478396327697916
0.466939555111469
0.473334978699112
0.452708719410755
0.46377858320305
0.451962558630654
0.460647965460179
0.447491881764263
0.46870211159604
0.446956901078445
0.455388931302433
0.445021049380247
0.451634084239252
0.433823098325344
0.451296377318199
0.44159700744102
0.443867467152923
0.433064343318164
0.453133616936029
0.438763063831951
0.448062052032446
0.418558085843852
0.446921974020552
0.426509441240853
0.43051645846307
0.420719082546015
0.436254310843424
0.411901867722542
0.430724150192949
0.421633513165382
0.429045915488653
0.409068490202756
0.420009239314002
0.40711253624862
0.410262800461191
0.406205212958986
0.416178602325109
0.403106862184745
0.397480378648152
0.389698847598698
0.401327713373049
0.388393941207633
0.396891416970071
0.38676184345828
0.400302522731545
0.389462110924285
0.399268828596007
0.378127951672758
0.383332333486375
0.378470207390308
0.384565841244401
0.381772577461948
0.382463378405905
0.368461140368386
0.38707644482466
0.369293002279176
0.376593043570649
0.367256335099372
0.373262298307597
0.363748616390255
0.371535448992368
0.36096529909443
0.366636915853994
0.341445384183901
0.355716600559324
0.349026953414647
0.363135599105529
0.346940761602586
0.351430917181475
0.338084423612595
0.349138790168471
0.333809091861801
0.341951531317295
0.329929330501264
0.350397204680398
0.328378565036977
0.340404998730842
0.331586688919963
0.335772255322452
0.328678775444026
0.329768613745299
0.321837858934021
0.324882780638337
0.31979600169442
0.331574390631855
0.311106094114885
0.321513811238099
0.311584570146633
0.325870697191207
0.309076729382431
0.317206028698427
0.303122584767777
0.310038102061709
0.303224282631054
0.311740080673092
0.305854631190415
0.303329765222051
0.284382914924556
0.301456123349772
0.293137259294934
0.292467432960309
0.28690207212405
0.296198247578225
0.281376629461924
0.286856474599364
0.279434436434111
0.292115589254471
0.276910954228719
0.282837730936228
0.27875627812899
0.28252240664099
0.277624417794743
0.285941780013341
0.272492016800957
0.279558016029011
0.269535524996763
0.275990206408728
0.266358034653309
0.266539764400494
0.257194310576447
0.269736635759495
0.25894387840063
0.269219516684111
0.248813017142445
0.260428633352114
0.258080392741043
0.260330452633254
0.260124942321894
0.257365401413419
0.255664742745482
0.25939467346746
0.246083788375122
0.253178252474822
0.240630196271175
0.250055456689264
0.246099341387477
0.241068282154597
0.238396208829451
0.241470998501733
0.239124998945788
0.239295437046509
0.228169176666516
0.236093859713529
0.223751912525788
0.237625745586289
0.233540284134317
0.229895295949726
0.220226112503037
0.230495882682704
0.22452164851289
0.223809157304143
0.221903744134916
0.230615194844615
0.216196252809106
0.223828061967224
0.213211189442527
0.219609941535433
0.213248410425133
0.218131283595135
0.214579989231337
0.218857293230197
0.209729279018803
0.212133176961896
0.204505271262021
0.213060030926805
0.207203892200677
0.20725066260877
0.202387811830632
0.208878600966159
0.203923323241738
0.209060235223095
0.199957286774558
0.20303007611871
0.195973203925467
0.199780602814298
0.192162659691576
0.19356433664128
0.196418183436568
0.197919528912304
0.187621288963376
0.192228662858601
0.185534348360486
0.187603329008693
0.185217149719666
0.186514415859219
0.180148294976629
0.188555506915738
0.180361885534283
0.18723314647285
0.174763891843627
0.183180293558931
0.17595640901418
0.182595691826372
0.175833090511117
0.170623991370254
0.171244829232687
0.176872363172407
0.169997088696809
0.172001842079678
0.168203743789648
0.171328403298321
0.163714913375405
0.170164510794682
0.164932082888938
0.172263834666734
0.160138697592932
0.167307916465029
0.161749419165892
0.163320982690436
0.156298621728585
0.160940713562313
0.154659715869577
0.161783899122985
0.157701984117136
0.158575685418662
0.153958769287258
0.16088430314924
0.154459861923598
0.159672383032557
0.157484452342422
0.152498615493933
0.149471399892899
0.157988714727246
0.149223397485868
0.15087621597175
0.150833483213087
0.151187665285204
0.143408178503099
0.151466881026325
0.147825825140862
0.153334517580649
0.14914398644384
0.148273697368335
0.144675783494378
0.147949824602315
0.142512537644896
0.149827601748112
0.142002986763991
0.152202428270244
0.145543016868737
0.149931245376697
0.145696924301063
0.150724370185621
0.149895084192701
0.147587973553123
0.147257787495302
0.150398418488852
0.143245135611743
0.152963247828044
0.147193005173118
0.15242206289813
0.14726309193988
0.152793229705124
0.152945304220309
0.154977815638926
0.154693966252348
0.155714364433671
0.149756015458761
0.160624853663693
0.153738924172606
0.155131555115642
0.156266992242706
0.16503221550489
0.163204883623137
0.161585117357328
0.161582126146842
0.164518515171934
0.165026530555412
0.166019607323027
0.167123520092483
0.168026290104137
0.166867217313814
0.17273400140957
0.167945545452783
0.172871010673713
0.170267654593591
0.172335911173784
0.172420012772851
0.178292684166949
0.176356818734106
0.181701000278131
0.178602246973142
0.183782647800973
0.182869725473695
0.183107656202251
0.181310983326234
0.184996582988186
0.186443307003239
0.1952689722526
0.188209171730346
0.193192762387565
0.190288719505109
0.195043720972727
0.188914815079408
0.200053585471737
0.20363137512915
0.205688107436089
0.199163813218985
0.21093746686077
0.206853138338279
0.211858589909428
0.213378754227397
0.219474130210393
0.216047617738253
0.218434998040835
0.216275100016688
0.220398910589302
0.210600767958823
0.216902750734471
0.218304770205425
0.225245471807994
0.21568149681043
0.224549107938782
0.219360768014892
0.222243721027351
0.220837291567102
0.224981896357788
0.218166857251315
0.221396821928551
0.22312082782335
0.221906869458569
0.220757147645247
0.222174700902293
0.21294445972032
0.219279837976019
0.21158155194236
0.214515464338946
0.212879867697434
0.220319849584268
0.220597350551953
0.215705324618101
0.217418583122585
0.217581623883355
0.212343963005556
0.213664870329168
0.213521593508114
0.217814948240674
0.216812846621287
0.216903830690915
0.208730646873775
0.216429537476074
0.215030421390802
0.218677547109144
0.218739471591569
0.218126248539052
0.217832088285443
0.212997564462347
0.219178813721898
0.219498722627097
0.215367996345404
0.216962625873043
0.212864955809521
0.218404370249409
0.216788528014694
0.214616620923732
0.213110368883347
0.215923819133559
0.212693542710882
0.21416303380245
0.214882989708281
0.218393995369336
0.212453539396574
0.218455482455249
0.211840202562598
0.210635621653851
0.207335381911644
0.212782753949489
0.210692065215045
0.213834300903204
0.208337414198996
0.207034040325577
0.205589618548066
0.202422152481403
0.201542226413034
0.206245966655157
0.19867154750334
0.199673090225636
0.193942249631191
0.196832510960046
0.194049367647689
0.193006667856545
0.189581353437434
0.191519694738676
0.184687718843376
0.192163657773437
0.186430471820625
0.182722252068517
0.179496535824158
0.186190985955663
0.181454282987758
0.176028610714311
0.175463969719789
0.174774771850371
0.171405442768516
0.169080850923974
0.163853599648733
0.168103915102953
0.164487639819688
0.162774993944313
0.164869592447828
0.164123872552869
0.158301039816161
0.159597967671546
0.15542002048815
0.156402583291452
0.152313164126122
0.149023120927387
0.150681732975171
0.149289321079147
0.146378968941397
0.147573735135418
0.147958534589822
0.150209922623379
0.146238791460108
0.142105217669462
0.143523909918719
0.142246778070977
0.137422341209114
0.137154058982167
0.137036529553241
0.138603694220926
0.134526430070045
0.133795068513522
0.135382031521752
0.132873114722054
0.131824602684674
0.134778584204806
0.127992621831868
0.131423029617236
0.131728649205563
0.133438603664039
0.130311456605384
0.131057673214846
0.129352638246038
0.130169256851554
0.126815185540959
0.129487150105812
0.121336755599634
0.125943250526998
0.122987485379248
0.126049094559825
0.120381899422306
0.12552253585667
0.122612231130834
0.122354942967426
0.122275166130757
0.118958840515214
0.118350530749857
0.120418575507884
0.116728639079724
0.119865069493712
0.118227131036291
0.115881966539753
0.114568202375366
0.115432024836188
0.113624809120871
0.112443955080609
0.111085834282414
0.113850396694847
0.112457645713869
0.111128359923764
0.115221268623235
0.112306886205393
0.109187933560513
0.109789510103387
0.108618786231519
0.109849948989031
0.110178313743965
0.110402764870543
0.108444435039545
0.107739297441046
0.105040544460172
0.109658105775237
0.109727979033418
0.109382489061918
0.103950642813116
0.108067721010457
0.107520719587383
0.103731571100138
0.103747344408138
0.103453754044472
0.10602209926748
0.104277227647711
0.103250132413883
0.102619068126501
0.103425454004179
0.102443869328786
0.0991902155929391
0.101626130970388
0.100163177661696
0.100206346935194
0.102743047144259
0.104369776726762
0.0963499855495629
0.101179080886214
0.101390781829466
0.0970980488789459
0.0985120165309335
0.0985115688760199
0.0979690870827722
0.0970495776741838
0.0992305173719571
0.101769450120166
0.0954994256199482
0.105180942532083
0.0994047421224807
0.0965496090745301
0.093331317430155
0.0990249745439794
0.09615892792351
0.102536339944421
0.100178776664624
0.0985967216755261
0.0996166276370713
0.0965558537325702
0.0941843961534724
0.0955746852894837
0.0962808135493556
0.0969186915992235
0.0911865645719475
0.0936382631042791
0.095891444670745
0.0968416971518457
0.0968614049736618
0.092112743012024
0.0925718208052623
0.0934213375066995
0.0920519153213794
0.09340102805474
0.0953779408397456
0.0954476918476598
0.0941212599430265
0.0958484881215816
0.0893642910363169
0.0927722311317348
0.0930034589114058
0.0925363255228367
0.0900450623086057
0.087550356902889
0.0884790716698222
0.0906994386586462
0.0901181212441692
0.0901686595982885
0.0884140224463428
0.0907921568575071
0.0892976221731504
0.0900841682815434
0.0893434109439964
0.087963634651247
0.0894317561105945
0.0917780677837892
0.0876810401248916
0.0873989208896727
0.0877145975854043
0.0870296586599393
0.0835889553927044
0.0870445283098614
0.0884061982802432
0.0870903370586814
0.0855951144474878
0.0844494269587231
0.0835695709293887
0.085583167069774
0.0838519871909831
0.084506088074903
0.084537978718198
0.0864400823600946
0.0841944137989279
0.0838319205467039
0.0885148630176301
0.0848875024359945
0.0861345782697625
0.083973062659786
0.0859713155453635
0.0839302542008247
0.0811187498196831
0.0823323733697519
0.0812529896878382
0.0807312291367068
0.0820298314666115
0.0796870116652928
0.0802096309481201
0.0804163412309417
0.0808866776800035
0.0811117836120454
0.0778215830969104
0.0739528961286861
0.0766026637610741
0.0770513345168221
0.0784417499309706
0.0793031879222968
0.0771889452630267
0.0741624316573711
0.074430482745321
0.0776284894862423
0.0792424557076242
0.0779666646970773
0.0769359666945472
0.0740149335448801
0.0771231781296844
0.0738954902077988
0.0725285197725026
0.074399301681626
0.0724562550931422
0.0675893061511574
0.0714844010956749
0.0705880388441007
0.0708218321435755
0.0723929980453135
0.0661479781526023
0.0683488418153636
0.0728641235163036
0.0675025370429021
0.0693425958285787
0.0721003621488024
0.070783369660471
0.0700644947361672
0.0701289821014406
0.0675896996768713
0.0730522020371625
0.0689058514994753
0.0706982153838568
0.0705047354708539
0.0675427371548804
0.064633609798599
0.066460819562291
0.0701594192758456
0.0671075336403436
0.0624890845046784
0.0662188931895201
0.0658483869764419
0.0634370973770642
0.0641808677410277
0.0636839870270505
0.0610015672396642
0.0648718837196859
0.0624336778497756
0.0638411560150686
0.0590923228693215
0.0596286919802656
0.0642518410820158
0.0598390962999583
0.0636155254284341
0.061446318584986
0.0613152810949332
0.0613918726139862
0.060057437992007
0.0563978625034232
0.059899947457691
0.0581917733044477
0.0605669342552452
0.0616197117573629
0.0594769748804797
0.0585904086927422
0.0608418335159545
0.0595292500147179
0.0567038219578954
0.0564574511432991
0.0567301149114798
0.0557629275755976
0.0563450963303319
0.0590453594150291
0.0563585864778681
0.0571718099817156
0.0559418020223503
0.0570189896095282
0.0566807791626763
0.0561225087675783
0.0526276908360467
0.0577816395434693
0.0550964213104242
0.0549170642516122
0.0537748275901242
0.0567446394108664
0.0531850514821883
0.0531072793532045
0.0520026350975083
0.0536749927877982
0.0514231769513823
0.0519552249168979
0.0548088047043403
0.0546733138703972
0.0532338890631808
0.0529377703642651
0.0510666440105936
0.0534212625033469
0.0523292025203519
0.0533833667895137
0.051747315875837
0.0532411764214456
0.0522135128499572
0.0521573814792915
0.0522973391079294
0.0509788010110739
0.0526818594465191
0.0525012887375724
0.0464169539897693
0.0513503398288461
0.0479369786807245
0.0543096104422768
0.0515348133095421
0.0497351831490485
0.0484370955163469
0.048799017921088
0.0489754755969641
0.0500803795259549
0.0509092977036736
0.0492887734546924
0.0475639944689423
0.0508121650315195
0.0493664872050224
0.04663300401448
0.0466039563862725
0.0474590572757476
0.0499370447480921
0.0501642788969987
0.0492728176857352
0.045789125105365
0.0470541479868055
0.0475598433634634
0.0482605172157541
0.0509873412262931
0.0491661888747996
0.0496527226550159
0.0470983402541844
0.0454998223345508
0.0475091867192214
0.0463006969352667
0.0464809235277042
0.0461033835132588
0.0455031489756764
0.0500104451394157
0.0474685601118761
0.0494316999816156
0.0455089870032995
0.0458873778153173
0.0477638735051264
0.0460668086569584
0.0436854108538262
0.0481371451836862
0.047342764574747
0.0457553073122798
0.0445736264908072
0.043822430344282
0.0436015628475974
0.045168968847922
0.0435631757209914
0.0444076563263833
0.0431287602812048
0.0443812448647636
0.0433980169166365
0.0438227782661273
0.0414221666833146
0.0447494308960157
0.044151587921229
0.0450165343018359
0.0437645461242389
0.0440998558894403
0.0436093395916043
0.0439565991924863
0.0420155967794702
0.0449216827705162
0.0392148107497787
0.0465808109667805
0.0421927550797581
0.0441979687850076
0.0419511454899467
0.0428285093721518
0.0426682830749339
0.0437909946754104
0.0386207399399757
0.0422645422872802
0.0420761962171646
0.0449867506199781
0.0417001936669384
0.0407382517464171
0.0396961359377885
0.0432464284944075
0.045455188432636
0.0452596013543118
0.0414077377963336
0.0398639029094261
0.040976768622443
0.0415637265980834
0.03777719946401
0.0415982067372842
0.0370884240604804
0.0386653848640038
0.0390672431624905
0.0397531736926382
0.037370749708525
0.0412835445097301
0.0391412709110921
0.0424818379266759
0.0401815387085898
0.0377201681348551
0.0377340657831139
0.0380789312094528
0.0377426071437257
0.0407426072434003
0.040619466303082
0.0382414980242201
0.037983966535109
0.0387164854665852
0.0350732842721507
0.0374801312167079
0.0352059220038333
0.038613973447327
0.0364105534236134
0.0381989599343087
0.0358421662732935
0.0377503397506489
0.0371925199772767
0.0366611122893703
0.0323689758673501
0.0380031936466602
0.0359402103128982
0.0329253848176178
0.0327436667849885
0.0364890668441325
0.0321983178527688
0.0358623232418967
0.0357506249314234
0.0353060475053508
0.0337764522971685
0.034642750562651
0.0354377979348391
0.0354375233341581
0.0314882070396171
0.0318064195420654
0.0308439021301412
0.0355604910539093
0.0331949708001341
0.0323886029936022
0.0337626297791365
0.0355239603663533
0.028621222680558
0.0318386358110715
0.0295433533146263
0.0351545721747984
0.0315103489190091
0.0287973382062396
0.0295280586701387
0.0344263178023204
0.0324133864943786
0.0307397180956479
0.0328727719741321
0.0315946170772805
0.0276179839562868
0.032048153772531
0.0286647943027274
0.0303376712389538
0.0310731760224805
0.0288505377847875
0.0298903257332182
0.0306642491464625
0.0275451389951409
0.0321583193551764
0.0299304917729052
0.0299430472523304
0.0264852017152612
0.0318123663904213
0.0309578459265633
0.0308037288568785
0.027415218306861
0.0317696565287018
0.0277858861686672
0.0311910343122285
0.0274120480986402
0.0289684690041688
0.0239250224705087
0.0253606702717541
0.0270637694437155
0.0292535678006142
0.0285948983763375
0.0276495087885804
0.0262188561964507
0.0281681318059311
0.0263334333826531
0.0285709442639756
0.0260296479641222
0.0276906439149895
0.0280944507256234
0.0274543493458916
0.0255879472459568
0.0269956728910725
0.0249684171707275
0.0284542629554752
0.0237289110714921
0.0274756675233918
0.0263971280402987
0.0281304734851783
0.0237390402619841
0.0282207043946598
0.0244582234668165
0.0253674169744523
0.0253217367459793
0.0295910462908332
0.026092433993217
0.0254812269239259
0.0275130442613803
0.0292732406351419
0.0258292070772315
0.0287821397071748
0.0269382307450958
0.0316107647601917
0.0245689501265381
0.0273419146132814
0.0259027020124675
0.0285201758037751
0.0238788849508766
0.0220848282104069
0.0184317896560721
0.0235544599960919
0.0221793118000742
0.0283970098469194
0.0170337994703959
0.026859752984312
0.0293270709857201
0.0201427645384472
0.0248321614198422
0.025821491103721
0.0178756012355837
0.0291313147509039
0.0194884645294086
0.0159143617594367
0.0219724865850488
0.0277201182082216
0.0274689124668838
0.023521602552764
0.0182598085158313
0.0243423521553358
0.0215877178290506
0.0223428487581033
0.0232957352083778
0.0212929992274515
0.0192472256650867
0.0183012982292116
0.0219301516478867
0.0154071172282932
0.0242685169612659
0.0112104778368623
0.0257778366702881
0.0155325863938507
0.0280142492841402
0.0156467945949542
0.033195499823287
0.0106431050712071
0.031033713768547
0.00843305721272537
0.0288053759459592
0.00773861476462156
0.0437148727219526
0.00943258294642293
0.0467379964282397
-0.00295184547986346
0.0408077584226444
-0.00103722882807402
0.0596323811857328
-0.00804580899817882
0.0455976350953434
-0.0127171222384295
0.0629777544598517
-0.00623813474429125
0.0460921728588582
-0.000844718882895941
0.0447920851936655
0.00571072559647539
0.0325072099873345
0.0193878043541658
0.0250814140718465
0.0268809589571087
0.0158107895222421
0.0317804069208302
0.0114842220429073
0.0346091722024299
0.0133056850731697
0.0305036109413214
0.0185670907303996
0.0229738977266502
0.0185377996553986
0.020909137528384
0.0234535131835766
0.0165626775519325
0.0222225639685805
0.021060506989498
0.020409606681966
0.0240574765040152
0.0193271786527781
0.0230342661991969
0.0207239757972232
0.0248017934908427
0.0178386680670043
0.0244781839543502
0.0192112676557908
0.0220523566328517
0.0238705534185375
0.0205465184547354
0.0213879407712417
0.0199433486338206
0.0207974468475806
0.0210682386767666
0.0212776235029615
0.0211902104078895
0.0221659773184031
0.021319192225477
0.021989793821192
0.0198489182865828
0.0210787979901385
0.0225268374058865
0.0188280303616611
0.0206961573592403
0.0203870822655795
0.0227021215291551
0.0190878840515009
0.019958051196844
0.0202143227291547
0.0239470011606623
0.019372077228374
0.0239942606659348
0.0218196671515534
0.0216030987495956
0.0200856505132103
0.0230723036296976
0.0183324531570593
0.0227915053391121
0.0173830309565545
0.0232561036941598
0.019701706207131
0.020049670588715
0.0216070288814933
0.0241096058566271
0.01860249044927
0.021173957893148
0.0190665709833361
0.0227941340876652
0.0189756245399462
0.0241124041300407
0.017515671909874
0.0208447911243226
0.0167923824162553
0.0223405743655243
0.019252368897528
0.0228589578430762
0.0204847748973164
0.0222441205278171
0.017712298657015
0.0206286589618714
0.0173536008898684
0.0196129130926908
0.0221030183482901
0.0198418137740124
0.0183450442917458
0.0225817641942292
0.0191606940094361
0.0204311058684706
0.0189841029853203
0.0208692893993849
0.0190709934729707
0.0202120097290542
0.0221381815480595
0.0194604314421393
0.0185262543631593
0.0223969607209412
0.0187362886989955
0.0204875268386925
0.0190340214622675
0.022458690821506
0.0223269794630119
0.02127536390842
0.0207160301281465
0.0204817537664352
0.0182637617058277
0.0209934197493174
0.0199098268611033
0.0206102569628223
0.0202660072087152
0.0206735503676112
0.0192480990373395
0.0223782040471613
0.0215564272244339
0.0208192507500137
0.0203568622485934
0.0218672639867338
0.0205266845378689
0.0225332295337466
0.0215904064115037
0.0219814229949129
0.0203853683988431
0.0220024456061793
0.0209313043981709
0.0227052048115746
0.0206908189322999
0.0232005636315233
0.0170534777097131
0.0211565498075088
0.0204365449618265
0.0230800345095511
0.0202338160140131
0.0213814196072368
0.0176584740739895
0.0226147021107068
0.0202280702811593
0.0217650342919536
0.0201292391284406
0.0219876956283255
0.0207452245823807
0.0220581424116471
0.0180587183748517
0.0228263944384375
0.0200524612124007
0.0218152976777405
0.0211674136476713
0.0210889614844303
0.022244942121884
0.0216202995774279
0.017745367299399
0.024030177641115
0.018333749123732
0.0224677237703311
0.0218182902990356
0.0232078950270488
0.0200003417760406
0.0216599872395497
0.0226169737928966
0.0232000348679774
0.0211559203193963
0.0237206609764086
0.0195732982807445
0.0224643292122356
0.0206389066392799
0.0228342562706183
0.020922125734125
0.022955187696002
0.0222188260819182
0.0241153857325573
0.0216930525037928
0.0237114119085967
0.0215394321910707
0.0221442847884348
0.0196322655633611
0.0232159903433207
0.0215125069187454
0.0233835243733842
0.0219482176944498
0.0241440399021902
0.0208013357339217
0.0219965669706299
0.0210459253361567
0.0233746266985351
0.0216700579615878
0.0218712734563612
0.0207436783454309
0.0221679772245716
0.0222395420919811
0.0225480080467217
0.0220177255719378
0.0229350448792645
0.0219375718560777
0.0226141191147466
0.0197968739827949
0.0223734447764267
0.020059309238631
0.0210872591777063
0.019617670576694
0.0223198751308523
0.0201859758144312
0.0219693938284533
0.0204166591994914
0.0216547454438997
0.0211914711031491
0.0239426950398264
0.0199610312180319
0.0226658271146664
0.0188192674916608
0.0185369233811889
0.0202993162297414
0.0196964754285647
0.0181466822945783
0.0240799379954359
0.019957499228428
0.0221223977602847
0.0211363467952608
0.020193392986806
0.0183942922690015
0.0208497158547095
0.0203493299006537
0.0224821999436134
0.0211815357895377
0.0181836047275096
0.0198007606854333
0.0209222350057312
0.020156190997666
0.0217690587417638
0.0202293223214438
0.0203033493978082
0.0182018724126296
0.0232406734580633
0.020936126114704
0.0202797657861752
0.0176693444221708
0.0202145076546598
0.0183437566915435
0.0196513855890961
0.0201599340344969
0.0183508604314847
0.0177278910194141
0.0221152187866532
0.0193778966929967
0.0198382807269846
0.0223888207851771
0.0226771784008195
0.0191368310031745
0.0209227644188591
0.0201827060153198
0.019734563865715
0.0157246245609678
0.019664059198877
0.0193754535931914
0.0210282504995404
0.0173057904139716
0.021188422450473
0.0201722458705095
0.020221710579461
0.0163376246947151
0.0208646881661697
0.0177921617908782
0.0219385446675373
0.0200677232894954
0.021263894614257
0.0182231138476739
0.0189980364164955
0.019311381035461
0.0212151184918036
0.017901159196868
0.0221329712481318
0.0169549229283762
0.0200377604754049
0.0201716520518372
0.019874739484504
0.0205271130266012
0.0210299755822301
0.0192615188499854
0.0198579707976338
0.0197759923088518
0.0210774523333662
0.019275503767182
0.0213054073839501
0.0204897426421237
0.0225581814972137
0.0174252211484873
0.0182847710830962
0.0156228268050291
0.0192116004294446
0.0173881316233534
0.0196587884439022
0.018608825937425
0.0200210439532152
0.0183890942454295
0.0191140581204311
0.0194563474044046
0.0196992779078291
0.019264648941277
0.0236511595130535
0.0183062908013398
0.0212296824433516
0.0179322333238608
0.0209060026221736
0.0166833049516936
0.0199729109328971
0.0182275372896541
0.0206876806905816
0.0169715972146837
0.0186797109070761
0.0158314883597629
0.0177565615398915
0.0184005404868196
0.0195660059461114
0.0177770226414466
0.0187537324601521
0.0173212975673691
0.0174187486750941
0.0150988745910524
0.020782545378598
0.0152831559833462
0.0183213396294958
0.0170565504577636
0.0198158449304567
0.0160764243482914
0.0205184032501366
0.0152422876029192
0.0187102119634022
0.0180114061051074
0.0181625519554019
0.0159338593833401
0.0187351656333597
0.0146784172974154
0.0167771624523843
0.0191595831320399
0.018738362287021
0.0137113345467918
0.0172215305502282
0.0142866141938678
0.0174102189050262
0.0168953858318947
0.0181515392850932
0.0178467363374975
0.0175019760540109
0.0134584103762646
0.0181565698610676
0.0166937055852651
0.0189831990961829
0.0157151269919306
0.0171791272104842
0.0180444355232662
0.0174863928611585
0.0205864698022641
0.016815398980785
0.0176529097519907
0.0174614458262349
0.0171080479215653
0.0131684267317428
0.0150160708389311
0.0158330307896845
0.0166676873782149
0.0159262098517133
0.0149761455993325
0.0177484562850693
0.017833817330832
0.0146813475301465
0.014879104629613
0.0159693834115209
0.0126678496695369
0.0170414042446126
0.0163459250387615
0.0171631789445157
0.016201628107696
0.0153781491857128
0.0155638107047433
0.0170173541386128
0.0185727629532862
0.014049151373983
0.0193447793099289
0.0163984085494938
0.0147058667679249
0.0140591533343015
0.0138229027165316
0.0179312461924484
0.0149572034493971
0.0164994914190905
0.0134088623089367
0.017473447080882
0.0148055885107149
0.0170425857037233
0.0130316251858844
0.0144838134559433
0.0155109340569398
0.0193958634713056
0.0168395162900947
0.0156667224925242
0.0129504082135178
0.015117787799149
0.0142355688282006
0.0172866553634651
0.0140589261411434
0.0183502641972865
0.01307891225555
0.017214774635589
0.012922824223551
0.0292399143996793
0.0120073546676568
0.0190831506729549
0.0135647353780718
0.0153543371851585
0.0144110677896535
0.0179270684122733
0.0137913258081841
0.0152093640349332
0.015164608855094
0.0169881374774798
0.0128323755050557
0.0188602252185546
0.01467157675315
0.0148675742306053
0.0113861790430154
0.0156881972632426
0.0136307613937461
0.0160508558307775
0.0139817644943123
0.0174672710027465
0.0200617198889587
0.0194963579366084
0.0124810199876537
0.0203486051438679
0.0112886641301419
0.0234034161309032
0.0201285436586687
0.0113232938483908
0.016291351629102
0.0156194271298643
0.02003140452799
0.0118478047445856
0.0159356609176589
0.0120199482078663
0.0206610891915243
0.0125941707432327
0.0175427092987257
0.0141813450408961
0.0146845267397217
0.0154835214652124
0.0155531202196102
0.0160486370247424
0.015045456512369
0.0158196381960513
0.0139691431690745
0.0154397656306997
0.0150629610616174
0.0137715603809841
0.0156378760074812
0.0170953161766773
0.0213946273560972
0.0141063443312496
0.0167277251604435
0.0121317789433571
0.0180068103073695
0.0168419862914775
0.0263716029613527
0.00947749710511493
0.0150891331859421
0.0148092753075275
0.0146077963499209
0.0147129275217628
0.0157409175309153
0.0172484336239754
0.0151272466370022
0.0170691891917983
0.0159979247512039
0.0169370199775054
0.0137607184274036
0.0151419980776408
0.0134939501311076
0.016262054633401
0.013304507625829
0.0168962243354027
0.0135824786374124
0.0172843382738898
0.0163761830873632
0.023338243850855
0.0271413488360997
0.0123939396135245
0.0210570853302201
0.0124360837892202
0.0187273957412623
0.0129741242504624
0.0194488426032949
0.0142753258744484
0.016669789545072
0.0143083424815025
0.0163526971819098
0.015107333558315
0.0180160213673261
0.0116758915041582
0.0173607779584607
0.0139493488230934
0.0169044496372318
0.0133136284546146
0.0172446065094038
0.0126121670722993
0.0157015616219515
0.0141372533205417
0.0155023645712564
0.0199815901331482
0.0177312693828419
0.0257349768074912
0.0108219939594327
0.0327638290614897
0.00893729044086228
0.0241150965150567
0.00842096690154096
0.0192901644016695
0.0148146644882978
0.0168565327403137
0.0168164630501609
0.0169193584571887
0.0129828975460926
0.0170302499791394
0.0135869207751235
0.0162586132041532
0.0161560759120455
0.0245867128944631
0.0283933408158747
0.0203165385739193
0.0114047871830201
0.0228095220546056
0.0120755489541565
0.0307640354605361
0.0151963382984973
0.0160689104873126
0.0181721012415097
0.0134305388587387
0.0186467097159859
0.0158190498041334
0.02028164376852
0.0172961299008591
0.0183186941291958
0.0153705488960155
0.0170486545319149
0.0158691927927642
0.0169331391063979
0.0194284735499327
0.0187944603678321
0.0202654435618633
0.0164892359619993
0.0163247972319745
0.0211897490397571
0.0138683953516925
0.0183549878240868
0.0149350653339635
0.0206811729600196
0.0194267101301617
0.0223206921808814
0.0193284940066166
0.0204830079823281
0.0230581331000683
0.0184365205648231
0.0214482338226477
0.0274355724432864
0.0128514599393528
0.0314116823767668
0.00982689382349743
0.0383579167509381
0.0130110339492404
0.0273362008681723
0.0162566157982232
0.0182167765157885
0.0170275455767875
0.0195658231871202
0.0212411336679228
0.0170467846375702
0.0251374354649271
0.00804850281409868
0.0293191309378532
0.00766371409897125
0.031075772166519
0.0138581796828555
0.0233595741510534
0.0173327047878467
0.025048239626385
0.0129193871205365
0.0304138421025808
0.0163377079962165
0.0407685234276933
0.0270538030583379
0.0162763407577931
0.0292723332555761
0.0235018542015147
0.0233866033941789
0.026628381952202
0.0148959776167925
0.0241534360094747
0.0122985038352323
0.0287161847392356
0.0187810517358277
0.0324371919681138
0.0231115830544166
0.0174660160076064
0.0258303317116695
0.027809648535142
0.0256000589807504
0.0318637699579393
0.0178734236332883
0.0260485075046329
0.0196440518765281
0.0394050497745336
0.0110734803703024
0.0540557982623173
0.0120359424185841
0.0498090808308356
0.0216497168149713
0.0383429845393223
0.020282625783265
0.0331812370907428
0.0243352030862378
0.037137057480399
0.0245609860029384
0.0380255417673593
0.0211966345457232
0.0421176885244258
0.0263278608859221
0.0278393466802699
0.032873774940722
0.0377616605685063
0.0442686296953002
0.0531415608822171
0.0275704515617057
0.0364832767703217
0.0351122983834435
0.037975176978212
0.0378109661140545
0.0282645100768752
0.0346690128972243
0.032620746532311
0.0336259872299297
0.0394106475746023
0.0352846298507288
0.0416985096580448
0.0294960797105684
0.0410400436010786
0.0333589883911536
0.0657136219662552
0.0444955557921126
0.0495747383734787
0.0453482155119849
0.0340803914647234
0.0505150057933133
0.034397993284168
0.044459023776693
0.0399719233009708
0.0414603333662281
0.041023560417532
0.0405048257175618
0.0517687486661564
0.0379213581220722
0.0602969444336513
0.0443294532141639
0.0583714857921585
0.0444497286825531
0.0553444408408877
0.0740779991108451
0.0353368089015639
0.080788595316389
0.0340794092032893
0.0786540407254689
0.0444439971176157
0.079106819953
0.0622950052488855
0.0630265529221044
0.0641641745695219
0.0676853819030669
0.0654439492942319
0.074984157523441
0.0750301547483
0.0813847398820119
0.0751515544002439
0.0903833677205152
0.0824815557870722
0.123885956778306
0.0879676997384516
0.0934550735102305
0.0900128852464864
0.105920796541434
0.0949802567316622
0.101996237735548
0.0881297816600538
0.114360200764337
0.101095278078044
0.126727843336592
0.11051928373955
0.113504292460213
0.125774154772326
0.109084664267144
0.146683813154861
0.107029928851746
0.155331151813766
0.115069379937465
0.141646068647553
0.122895127502817
0.139820409495007
0.146037154447457
0.14383570921384
0.148780315551423
0.145415424597748
0.151282485124845
0.148486894210584
0.152668039092493
0.153067585493035
0.154460369394578
0.167921232426616
0.160046348820952
0.230620139551274
0.12791007619217
0.183802371686493
0.146803856724095
0.170066143389362
0.161451172359685
0.168774640363333
0.193154648572005
0.160268706261021
0.170701679422534
0.158445780752703
0.159868345841359
0.164180972251369
0.160114790742274
0.173560916305645
0.156472148423504
0.183739208065391
0.14972030740911
0.195886248133321
0.148304881752372
0.194994762086677
0.161472992233536
0.163112522347337
0.155617418994145
0.164374243715683
0.154972096607722
0.168034326945797
0.162992908596643
0.168547070624509
0.168823383994527
0.156161647971158
0.170316177914664
0.156940451976394
0.171407392462269
0.153162530815218
0.148720123763957
0.160914380909535
0.146171782314943
0.172184140952988
0.160291459428635
0.167158228496498
0.157347185536616
0.145219580328063
0.15456228209707
0.152591105969674
0.152839570383052
0.150654954677928
0.157032065303175
0.152657607013086
0.156779675923766
0.148365814442708
0.156318688510562
0.145137064681794
0.156481921719739
0.154787598652193
0.156551612750332
0.149302337805501
0.158007952118679
0.157277661693568
0.156823121610779
0.153766000922849
0.160345804992622
0.155638198482254
0.156283625548304
0.158649068152867
0.156043952767514
0.151503058371546
0.158788716041679
0.157399040706721
0.157350997257926
0.153391980602025
0.15779274182285
0.154590701360274
0.156988454896036
0.152510785218983
0.152988571924968
0.153555188161475
0.152897365311789
0.154571041668
0.153664339104581
0.151313093315627
0.143098669632891
0.171890137283329
0.131118240857314
0.165869061220501
0.139048516885781
0.146224111825768
0.146587958972328
0.135790975280349
0.154813485786675
0.137695512590495
0.149918692728322
0.132241743800871
0.135367897188893
0.135584560577695
0.133462380562837
0.131032551127815
0.13414867807489
0.120418291174301
0.150477471702848
0.107097437537269
0.187196018533234
0.136823091460187
0.144594009065041
0.122879590327535
0.127467255191291
0.139538884956194
0.121470251786303
0.129877211159861
0.108672626070636
0.137566147920349
0.106591565779433
0.126404819537549
0.115880424151435
0.115822245464595
0.120548258202381
0.12414221150165
0.122506444545505
0.125416988153415
0.121889619041767
0.122503288531954
0.126747846944248
0.11973175173944
0.138362614285433
0.110186666477672
0.113319228730785
0.103228452592789
0.114129542956358
0.125723070722443
0.0928336111483579
0.118886681469585
0.095863791845256
0.107365596543063
0.0966361168493087
0.104765983772239
0.105765188437277
0.0988131760435386
0.116484927588771
0.0881882166259298
0.116745193891444
0.082265661253041
0.123132305236535
0.097186856824277
0.118341105254993
0.086843784999343
0.100207623009578
0.10077649387186
0.103100631683765
0.102654605229186
0.0860130700652851
0.0937104188882146
0.098309213292523
0.0803956557540013
0.0962281592293287
0.0864660871071761
0.10296619938308
0.111745427003492
0.100573388844661
0.109771877877966
0.0811111244669411
0.0825967443790054
0.0825302420162408
0.0780852593436944
0.0877752020657878
0.0714428032651314
0.100306084545639
0.0648898683824628
0.0899555679452658
0.094802887622265
0.0719513152927448
0.0897419690999993
0.081244833618333
0.0809795763093161
0.0895606909755075
0.0852767363841411
0.10811540732157
0.0941376429251796
0.0968140489384672
0.094938842507699
0.0938377312266046
0.100147680196056
0.0885628797704608
0.0990516411861056
0.0911869682142879
0.104385309390865
0.10010702591229
0.105756509868227
0.106948451583116
0.10326219294799
0.110142013910824
0.126784021126766
0.106583245038731
0.135259131790713
0.103334663979018
0.159550466838977
0.115600924754217
0.138211378975558
0.127736054457931
0.127905781327228
0.137824968108837
0.134105600822274
0.142587833132618
0.152540793450447
0.136033673255273
0.148211735197301
0.134677536833058
0.157233703180733
0.137499185483708
0.169165306459832
0.146725243592551
0.190153981082939
0.149846019919693
0.163262025224291
0.16643185141216
0.153592070725197
0.163224917337572
0.157641549755732
0.167437534533665
0.1616329635135
0.159016197194868
0.1771609639008
0.166332164791771
0.173589619523455
0.161395927931718
0.169269151758326
0.167757713528318
0.167979090079928
0.17421066754977
0.168837803185738
0.173989484847549
0.173147773739916
0.170350296825744
0.204197283324014
0.169604472078803
0.194518888594923
0.178364409150907
0.189033587804661
0.187421245310397
0.184418294872947
0.196257655010706
0.193023418863427
0.195854702761967
0.194437382627565
0.19402141336678
0.199482824025428
0.1885221881652
0.214762878578978
0.187943449298368
0.212970026463409
0.188692468142906
0.216646900802104
0.22395704418733
0.211317156694698
0.218522087796692
0.204228774229084
0.219109780959122
0.204340923669388
0.213452407180972
0.206179979661089
0.218005785763735
0.209586027730923
0.21792778456085
0.208250447570183
0.213966536847075
0.209113771682058
0.206781513116241
0.21854369604437
0.208012324951916
0.214181313275571
0.207715692330603
0.211060814362829
0.208326356447914
0.218257374523891
0.212664772371314
0.216688026160912
0.214186189496697
0.204026371342452
0.219212184687431
0.212778681245686
0.20725270814703
0.210028070346587
0.207055346535266
0.208472815744466
0.207109533994258
0.20428017146427
0.219426641914655
0.207325899523236
0.219696774979285
0.209311045946946
0.21221733545975
0.203427489128187
0.212254486981555
0.206972968501003
0.220037471712037
0.206668746928392
0.220839602763397
0.215703810366253
0.213770167408678
0.214135446664146
0.216870047142449
0.22279782687147
0.215573532958545
0.209751017818246
0.208943537174104
0.206132257684934
0.215481448660153
0.206892729964081
0.209406265373042
0.201763337652981
0.208426760507001
0.193569060344991
0.219232881370666
0.192495002379666
0.20899918525751
0.198076907394061
0.192138905078737
0.192298333361858
0.18907962616598
0.187290099967739
0.188897597126727
0.188045152677545
0.183809935643536
0.183934835262339
0.182340616763131
0.181681144544167
0.18282944499829
0.18023670289816
0.17901844703659
0.179524364583144
0.179054599141457
0.177472748369609
0.178917851114009
0.176279893182508
0.181719673548462
0.173944107009824
0.181374198329528
0.182445091209847
0.184279802482546
0.183996985929869
0.18001263104701
0.186157495153146
0.174524167270852
0.178203147450501
0.170919680993274
0.178797581295975
0.174024390342234
0.177522783079058
0.17350134839337
0.174922007101844
0.174991767569029
0.175413610527979
0.175867905393158
0.175009050280788
0.171324109535584
0.174032202299404
0.171726801104548
0.175064047114077
0.174178097614771
0.175056534634666
0.174633978884815
0.173480922036843
0.17656075342484
0.171347703427927
0.178275167587776
0.174257175156186
0.179350245975475
0.176443829419864
0.176064151991465
0.172721561404534
0.172378448195115
0.175471389197323
0.175206488164217
0.175759829383637
0.170577955761534
0.171432155006972
0.173352860155586
0.169108732674074
0.170618553910902
0.16571317360003
0.167499101013405
0.164245221785722
0.164321133329454
0.160452389305504
0.160147717184497
0.160405735728407
0.1595591101418
0.157795390134964
0.156080018117185
0.152626845709381
0.15471798633766
0.152653261177118
0.150535037694937
0.149818302275636
0.152232923023239
0.146771958029895
0.147747366367503
0.147273617937544
0.146281030115464
0.145604868447443
0.146902489272765
0.147708457441724
0.148875425696851
0.14811076591647
0.149607092407276
0.147665566224347
0.149407576915784
0.148566467818971
0.150613467721569
0.148424181609237
0.151963477201229
0.148826371705279
0.151625181246269
0.152906258801547
0.153835261456811
0.153142133076904
0.153641115552892
0.154049335468089
0.159231095399219
0.155420116053535
0.155532445753719
0.156413256398525
0.157350798126718
0.156889075881232
0.156644638758646
0.160183837206393
0.160114353821947
0.158162388013155
0.159490157744792
0.158097781781066
0.153925656810563
0.157054337505985
0.15651405287983
0.155612499842786
0.154404199192946
0.157002061252757
0.154960613107163
0.154846583241978
0.154469133019103
0.155201082210259
0.155750222148833
0.154354648943471
0.153464286303348
0.150361956358156
0.152075893849916
0.151206918236217
0.1510644650973
0.150962152223531
0.149088051347096
0.146899605353308
0.150372020711289
0.149118346260756
0.146088690706327
0.148499208939099
0.145415179297615
0.144700609715641
0.145176935458004
0.144705189848858
0.143222526613471
0.143527117944851
0.144117504185925
0.142378573714858
0.144109643494272
0.141570949255168
0.140803599930357
0.139056367234968
0.14047912546374
0.138861175724709
0.138498675245885
0.137306033524157
0.136675351612689
0.135204086530647
0.136247549604512
0.133406788902213
0.132860957805451
0.132823117917687
0.131626521620751
0.130320479216911
0.128321285178467
0.128674745395468
0.127370977952208
0.12718434728826
0.125940046516483
0.125316746673322
0.125642479557581
0.126208370687116
0.126012952743314
0.126240888549252
0.124035342167151
0.125128678769628
0.124856051771002
0.123843493382597
0.122140963755153
0.121281559527414
0.121680331195603
0.119770412019742
0.119258671022125
0.116030542633785
0.116055275125343
0.114211252474285
0.112298549687066
0.113058621100778
0.112817195996114
0.113025318609266
0.113601796762929
0.115305769791671
0.116811347272449
0.117216629651003
0.122411700666071
0.125126583071459
0.128291638928957
0.133498662760522
0.138733354928577
0.143953354610884
0.149318663308035
0.156692696003693
0.161877314886875
0.167144926796895
0.176913999291823
0.181666201574056
0.189966577980619
0.192989911091873
0.200889552994052
0.205025058771644
0.213303505545501
0.220519494378341
0.224938862895685
0.230724450471326
0.234122267173754
0.237715834498368
0.245240774127116
0.24892498829679
0.25258058743139
0.257734515749887
0.259981538435951
0.264378017105828
0.269161181752809
0.270261018332643
0.273273222004405
0.275865661837237
0.276112639287237
0.278405856822491
0.279337989181419
0.280288550175313
0.282015440355806
0.281305883327545
0.281809408838507
0.281230843552545
0.282282849233644
0.279614316272771
0.283410501880487
0.284692477310572
0.28392684604902
0.285195357274886
0.288712291225508
0.288993722737918
0.292194270544223
0.293792394760538
0.299346460132508
0.300483143350839
0.303547937493429
0.302839349483668
0.308007664145714
0.309111001942524
0.313552228541631
0.315677048325844
0.320956160929658
0.328054278059785
0.330209959660513
0.336942093085539
0.342797781565888
0.346491090552597
0.352534912358197
0.356993681020554
0.355166069137069
0.360054606919536
0.363868233706622
0.368667620667876
0.369277731527146
0.369727074355218
0.371036709356555
0.365795043781829
0.367851265140074
0.365413496427151
0.366217179147815
0.363158562139424
0.364284923710424
0.361403670281146
0.362572516732685
0.36756429303627
0.365952128374254
0.372266785125238
0.375845008439425
0.381959423544146
0.388139976452699
0.392909296448701
0.400115691259198
0.404226225185899
0.413266270663657
0.419676170275457
0.427917612776849
0.430399243723982
0.440299231606777
0.444623478912247
0.453524401110412
0.462583302390279
0.468856115250388
0.471963562184659
0.485716740677331
0.482713794969143
0.497314462116393
0.504464068559932
0.511545075847725
0.521935654262095
0.530265844398724
0.537963476645903
0.553532986549103
0.555809048764724
0.563266397779042
0.565570831273376
0.578947714267904
0.5893931671393
0.588244329626845
0.589896753121878
0.597943592092502
0.602937585328588
0.614123740923776
0.613022834288647
0.617475559734927
0.611827345614998
0.618503242938201
0.606853636192275
0.616943474952119
0.608108349422247
0.608285664890958
0.599540522617145
0.596819032882622
0.591565472696497
0.591457581703014
0.594004686473942
0.592732912922401
0.595182634823014
0.588598464159871
0.589885039687254
0.59134707927774
0.598461096446145
0.60580095052433
0.608980368577487
0.616655463649037
0.617581834778997
0.620140863187722
0.625443891217074
0.631686035628536
0.63255636411381
0.645602359015424
0.643018726452499
0.647503355049834
0.650404687731226
0.645614605447636
0.649184325361474
0.653817278471812
0.656172334518959
0.648409875384388
0.653343568764581
0.65382816901899
0.647301834480188
0.652683472097217
0.651376870982817
0.651719502944797
0.646782582592233
0.644771996673583
0.644736600487292
0.638848188050837
0.630665432127101
0.62901108530621
0.626799995818909
0.61962203109802
0.619117576916308
0.616767924560908
0.608433188038999
0.598944800433528
0.596270309838439
0.586181295025966
0.577042507201988
0.55972478747016
0.560266390350991
0.54097416732297
0.530099541601815
0.518833558628198
0.497817750439835
0.480754520698055
0.466039722155388
0.44985331588134
0.434787164659291
0.414364932963315
0.398559171471184
0.381216054147494
0.371195647505346
0.356787232580938
0.35317819519685
0.34390284777514
0.338880307421311
0.333608108011953
0.326093501901286
0.323741920117839
0.323672749171422
0.322219369322465
0.316985313191412
0.313952727583819
0.310644893217713
0.308206414521879
0.304233631965508
0.298577874134349
0.294276632760707
0.290999791773522
0.285556891168361
0.279136773369013
0.272228726104564
0.261248868751637
0.255756818218631
0.249186538021463
0.240684547892615
0.234760875654712
0.224881872711228
0.216023706937065
0.207084205743854
0.200487869225469
0.188455342467113
0.181095386245155
0.173040478528313
0.163160965565379
0.155442932077813
0.147939872421254
0.14264885873488
0.135043040352498
0.128740833834472
0.125502307668098
0.119109401781684
0.11440630785687
0.109003304642709
0.109577321974541
0.105272591909304
0.104028586098421
0.0984295049188077
0.0945523537992896
0.0971306217474398
0.0968352820448661
0.0969548753977518
0.0951642451243456
0.0956115559996063
0.0942618931519569
0.0947100571762171
0.0925505840531345
0.0932266174902492
0.092248779178892
0.0956133952994358
0.0955023018757457
0.0964031788416636
0.0963092687764247
0.0979759658844768
0.0999949389640262
0.0989982728919209
0.0946954382462722
0.0981502750765026
0.0969699207314829
0.0938129168835754
0.0946885262653207
0.0954924656242567
0.0978760063228841
0.0936643635026887
0.0955629249796712
0.0933374893422938
0.0912203255456411
0.0939453455256027
0.0921318526607441
0.0905239607527243
0.0930802797237636
0.0963557132072183
0.0949504974396785
0.0924517581167242
0.0970345475869833
0.0987384029389598
0.0966393884830521
0.0977350390876028
0.0979596330526003
0.0988583119548965
0.10023747256557
0.10067513775404
0.102022908724132
0.10278070871771
0.104219607414356
0.101961932923141
0.105253020331006
0.105184218557557
0.106202798620952
0.104496777497922
0.10426306010083
0.105868106144409
0.107453115794523
0.108299637042879
0.108751144300895
0.107787258842141
0.109518938440604
0.113312528642164
0.11262767219159
0.111659774257462
0.113791416431756
0.122164644116912
0.119114086430079
0.126000879276597
0.13187348074213
0.136141559792367
0.13889767715271
0.142239720384185
0.14176655746736
0.143841815438122
0.151140118253554
0.147917153907895
0.148596947860161
0.144927408483735
0.146613112083704
0.147129496940269
0.142386526228766
0.141026659315976
0.140082492985532
0.129622374909468
0.126151103979087
0.125558519143971
0.125145958168367
0.130289566903537
0.126126125828503
0.126077722250588
0.126978989367832
0.12691509970897
0.128916205511324
0.127643725371734
0.127471087412269
0.126354198657411
0.12315030249618
0.124544994031418
0.119131184973021
0.120614798246935
0.125354902603442
0.114445616692292
0.114701406314952
0.117221479735035
0.112912386132934
0.114559705705789
0.113567085768547
0.113540226015898
0.109660447427627
0.111172824513904
0.108414754028735
0.106343403064755
0.104602929282027
0.107712108558744
0.102974070003958
0.106693257920766
0.104453807652218
0.107581684747635
0.102870342145936
0.103399101082517
0.0992420607552597
0.10093021592361
0.102600006412785
0.100833298204496
0.0953458843170584
0.0996608236756033
0.0984033969448575
0.0952929785984501
0.0968336299400138
0.100234663864303
0.0949544877454269
0.0949053400616615
0.0884013167356516
0.0928123624010786
0.0925681043487255
0.0895344588300578
0.0902327576972786
0.0939067433713042
0.081156519037747
0.0892037869068005
0.0945274366922036
0.089276083080659
0.0837129472299832
0.0878714482634102
0.0813495673480177
0.0927058599264266
0.0884201056325572
0.0840139406557076
0.0900483448695511
0.0926637828380013
0.0870203021445126
0.0889711972382924
0.0922808115224805
0.0918836665262249
0.0926122912393762
0.0961664110893678
0.0877994911002247
0.0936430802146845
0.0920724290620682
0.0923093067867354
0.0951341102136864
0.0976459190171671
0.091839122367189
0.0926431033517113
0.104922166064702
0.096635866682489
0.0993070919402155
0.103295441696486
0.0961564841012061
0.107372577997772
0.106003435030924
0.107157312322741
0.108802010794575
0.111181315623326
0.112740594853254
0.110542598583014
0.123822374681274
0.126233252111733
0.121407839166267
0.130172668436851
0.143237131773816
0.144713756599529
0.128742655335461
0.14014137258248
0.152962746231352
0.163661480920788
0.157923591164292
0.158218556880068
0.172405402088962
0.177822838202138
0.176194712155037
0.174422334200862
0.17200863564514
0.175527779171652
0.170434303934141
0.178708303655409
0.174560291789828
0.182692015893881
0.166437601523315
0.166222936820176
0.174120361272178
0.174070906303735
0.17590529802382
0.176287743733811
0.154535691471177
0.171682649281918
0.17027514498144
0.162281174114641
0.162258560631675
0.164029124264255
0.155312357139979
0.166539645475646
0.166018213693603
0.153154499201997
0.155960470878542
0.159327062133957
0.148756574456118
0.145554031401408
0.152085311834265
0.140755986533784
0.148343303380983
0.154718444553733
0.139201026020445
0.147565352352667
0.149230350222299
0.139880392118057
0.136571889752626
0.143839128718568
0.14105947893122
0.13457221994151
0.126848654746988
0.150402654350692
0.13452014876191
0.137446701962957
0.139869702489532
0.152216920242916
0.142801469282298
0.160581927898393
0.162433352653258
0.153212678944977
0.139782238012318
0.13156877507462
0.130886639256078
0.132131219494368
0.133736609457918
0.150242971431662
0.143757877192235
0.143556403250497
0.141224819345792
0.158727422824088
0.159205193307763
0.162747895295852
0.16269471409722
0.151900059241961
0.14616912558005
0.156780364251321
0.160039858864784
0.182614081018028
0.166052168388816
0.187676314029639
0.157204665927823
0.190768036066918
0.186415379423446
0.17057728710188
0.183637525165416
0.171406121217936
0.169271873469247
0.207479626419779
0.197681442401725
0.195488228096147
0.209637739053969
0.219643381476248
0.185198208958608
0.197743951717598
0.223391936019814
0.226672068386221
0.200784108527401
0.219881123254541
0.196291812102914
0.218391341411713
0.231950063624326
0.223602353800181
0.203598269878471
0.214886588495788
0.199260336363428
0.21100452507816
0.226024889801868
0.194624038740287
0.189860417616111
0.199906371262482
0.17786405313894
0.189255446736657
0.191032279922532
0.192679764657533
0.187929187474948
0.167227073891929
0.184954801254516
0.236833310773141
0.205511017140035
0.214981404858625
0.158963740674002
0.184425138320165
0.201844650619009
0.22164916348043
0.222095392215171
0.221951336292354
0.168732412616395
0.229550805740312
0.197684002690853
0.202877432144178
0.205423071824355
0.160939524156259
0.10428619352684
0.129617028763503
0.172741992681767
0.190663621949593
0.172375758605322
0.370681200111769
0.230913164062748
0.221509327254464
0.25089689753132
0.254708027047059
0.212807603303042
0.240316048019118
0.260076071766218
0.259636443168204
0.239305144498685
0.198709042578368
0.147555018377854
0.24890450253674
0.0796325933337279
0.0443597199234372
0.209625533059184
0.167163989497348
0.193344244018499
0.276223872575308
0.253048460735222
