3596
4000.36533379555
650.420452594757
1
2
2
0.0407339388472543
0.0355079042556403
0.0348545541791162
0.0329293101500835
0.0353739473342963
0.0351124724185354
0.0403351269305236
0.0276228677170498
0.047151514299079
0.0381732396315152
0.036433010259345
0.0414125443379555
0.0391078674946081
0.0394705056828072
0.0423055436417365
0.0258490474250294
0.0401420904208673
0.034962136457483
0.0439271735807842
0.0404316079672539
0.0426559291325498
0.0200904230443459
0.0375468590347541
0.0322689039788944
0.0402503332015291
0.0329578774993664
0.0358740268211465
0.031450689503342
0.0409054240682438
0.034986862094349
0.0381269372372823
0.0261973823703889
0.0380794556471745
0.0312991311469277
0.0402851528455745
0.0325905883121839
0.0385773632818046
0.0341506080764159
0.0376224793386621
0.0369203333410438
0.041061094957577
0.0299603694862478
0.0417602094056151
0.0452940417274166
0.0459493249277112
0.0340458309466071
0.0380405390790028
0.0368434953210891
0.0408339902413072
0.03681756123775
0.0387691675948277
0.0404354229769051
0.0410863820192218
0.0299505937394143
0.0459985629055041
0.0308533697883425
0.037722831425447
0.0338739317145839
0.0460132981544351
0.0331836966758486
0.0410268508524354
0.0400216326209172
0.0381839417249676
0.0379134407405324
0.0404237799101704
0.0230263568462881
0.0408177732693918
0.0328389558604716
0.0469071101307868
0.0302665568967495
0.0458768318656222
0.0369130600004907
0.0414872139353545
0.03067606114718
0.0384121148740674
0.0301773026379963
0.0327179475263085
0.032041475034079
0.0455018619160306
0.0301793704551388
0.0435829850340817
0.0313852345350817
0.0330723521720397
0.020909288265101
0.0488110701240134
0.0340366409944358
0.0385909039207726
0.0408830553159681
0.040116577984626
0.0271203774460652
0.0364156771676217
0.0276725977043947
0.0339452904733094
0.0278639552008556
0.037403922288052
0.0288124265482809
0.0333151770801133
0.030741130158273
0.0382974089609811
0.0328967145623405
0.0319014446965386
0.0646594991653727
0.0213753344573625
0.0452203483756954
0.0327578385221258
0.0335121187928496
0.0610772970113983
0.0349146803696007
0.0394603677210435
0.0229143043310434
0.0349392155339682
0.0269540935069694
0.0346403948274676
0.0215686706406532
0.0485029056987912
0.0421821018768729
0.0438975366849258
0.0321256877975242
0.038482506245863
0.0257021424591268
0.0422472483016597
0.0538451309797756
0.0288330513272233
0.0392531683361934
0.0286531315107848
0.0275082268688984
0.0471482971784613
0.0443869056665157
0.0340995900322105
0.0393246243002758
0.0246291216149511
0.0285090701593131
0.0281867185441586
0.0550306303595374
0.02506860522409
0.0373417321430093
0.0367682424026949
0.0370438003718423
0.0509379742701605
0.0188032433575426
0.0370331480722962
0.0252995551429141
0.0315832609007193
0.0489216573623921
0.0329242732762746
0.0224411162348642
0.0375653974760727
0.038386902324064
0.026058288374663
0.0239850797144343
0.0305361086204088
0.0366950574209384
0.0330555421748719
0.0300745686684699
0.0549418224019444
0.0629587972815147
0.0133322031529759
0.0563293080096373
0.00414786824683335
0.0375792733387702
0.0197296428017955
0.0367412776320748
0.0280752982300385
0.0336253453336079
0.0291410847580971
0.033088080062451
0.0461748309966347
0.0354699016227229
0.0348855924167016
0.0453081416697604
0.0465252350882722
0.0277425322423734
0.056165293000969
0.0181432957418653
0.0229893606837913
0.0414929539983402
0.03082548349986
0.0312191374814055
0.0228871283884236
0.0424131362366389
0.0237680305110268
0.0326981941168634
0.0228936246351506
0.0410393979634012
0.0414658126710136
0.0321983145231169
0.0226165032590535
0.035177982911306
0.0221022068604748
0.0451529711670772
0.0366724764877817
0.0419620205949723
0.0255059007231143
0.0391353791543015
0.0169842403540823
0.0582995337497586
0.0399922936491629
0.0214664505960538
0.0331919113126702
0.0254686078252183
0.0282805856877054
0.0326585148862986
0.0235030503228648
0.0343119445461625
0.0284253240924959
0.0511852103985384
0.0322468384242763
0.0383169149101337
0.0234593925363586
0.03357628009719
0.0202981760035662
0.0478092006246943
0.052526106109708
0.0333240685313809
0.0383195045153787
0.0198924211434609
0.0431446115687093
0.0397776803562238
0.0213480901270937
0.0351621557144218
0.0251800327302312
0.037698828779596
0.028017568529906
0.0261884566562583
0.036242225778901
0.0360836670070799
0.0307952536722144
0.0369860203750084
0.0259461731142627
0.0327714462400185
0.0328521385615184
0.0259951342197165
0.0281215413236051
0.0255275281086324
0.0306702206712566
0.0524994490964051
0.029612500663718
0.0424485186925805
0.0281121885752514
0.0418656016270301
0.0318142299061591
0.0324553961673629
0.0290677473396019
0.0433515060170756
0.0222559865035922
0.0507330274276542
0.0246771804590168
0.0428958003897494
0.0318628992277982
0.0408365930783542
0.0404081036062915
0.0353093881036727
0.030945436534525
0.0282223507410684
0.0356331284098429
0.030808523614303
0.0463718871987233
0.0401168165567357
0.0300757101783534
0.0328777451027495
0.0348334055898603
0.0387100334078903
0.0441109250113685
0.0316243832481719
0.0767005751874193
0.0478045649357178
0.033709904416327
0.0659146438206519
0.020566664017216
0.0410436890011782
0.0366474031770354
0.0293280063629157
0.0813718885296936
0.0526238562896955
0.035561837020528
0.0419453572407933
0.0369614554601261
0.0272846654580881
0.0394344390942164
0.0424020671135817
0.0396148971645335
0.054639843224045
0.0326975920217445
0.0684266977130693
0.0128308882099017
0.0506687396458285
0.0371177829458052
0.0262260876807327
0.0353371968766257
0.0285559315522708
0.0347606069491375
0.040871526448133
0.0422631071907829
0.027431874912761
0.0445644070001949
0.0320794994413579
0.0544241055164261
0.0403304608695036
0.0428187232302646
0.0303647632934608
0.0387422846599236
0.0329705776642673
0.0440404041338138
0.0320391575386405
0.0430598834444803
0.0477991813260202
0.0384373005970564
0.0695997416693468
0.0439736954112369
0.038309520730262
0.0562116760575313
0.030026901120283
0.0446641563147522
0.0383284740598194
0.0326421835974747
0.0340663833740815
0.0384525570645187
0.0358440372416861
0.0517525982241224
0.0465939757903308
0.0379892255653241
0.045156641068551
0.0359397157255123
0.0473959628645252
0.0408974505876239
0.047131575882488
0.0441018330427078
0.0524294050632986
0.0406706501221231
0.0465620494017058
0.055462362246435
0.0447562174320178
0.0558007179399198
0.0722567294049436
0.0323707774129718
0.0554261396156101
0.0341765048202025
0.0552436383673301
0.0424911025511335
0.0506416402762583
0.0471365728895586
0.0541643568030566
0.0550138754211883
0.0586470915417346
0.0496641305612744
0.0622032577531912
0.0668120785291216
0.0805877129094734
0.0550976830261084
0.0676847923675008
0.0509201180043392
0.0732511452456695
0.0834857190050145
0.0435287886978269
0.0881042221592512
0.0516440028241715
0.0677956451691109
0.0566356868748808
0.071260749189771
0.0707971475186007
0.0654668671981319
0.0674587424605186
0.0617481284358272
0.0706024935455552
0.0681688717977122
0.0829331308223082
0.0706259336613202
0.0885028131436929
0.0654695653464617
0.0661541525537184
0.079380955507601
0.0742777986975964
0.0873110102643016
0.102966588921653
0.0742927350636836
0.138162993931281
0.0695325277499014
0.139138233584917
0.080536456186519
0.0898566592632622
0.0782032251313535
0.100854250306227
0.089120195169153
0.0962636902447306
0.0877609367591333
0.100504125124126
0.0931382410585885
0.107004416116451
0.0971770170651526
0.117997523355036
0.0956880246920225
0.129833534160892
0.111514371009486
0.115821431194556
0.115515115091043
0.122841358609268
0.150084087648403
0.150737218899222
0.108044746181584
0.120054597680602
0.1318361267927
0.107809410735659
0.130495621396066
0.12225302909819
0.126934772511618
0.127474590621415
0.141546906721886
0.162886424310469
0.127211181502837
0.154671629913367
0.123842017366097
0.16158928626188
0.154927970979017
0.151573316042291
0.161239562528831
0.156990836809634
0.140584922894108
0.170968399960972
0.180836203790054
0.156052729476474
0.183552901936163
0.15970372068518
0.159482565624245
0.168047126195368
0.172833092998845
0.177403675427866
0.164247821778806
0.185818381609817
0.171940619981026
0.187636057910336
0.18438974350895
0.187814098854398
0.183463154727336
0.229140665564055
0.177685275099087
0.219535818336351
0.18553196693368
0.198012809778701
0.179363123537909
0.222032907182018
0.230273605346935
0.228881597378942
0.241975016407091
0.216231607835674
0.208425365606317
0.219935496604621
0.210999488082083
0.225369039618003
0.227525891641608
0.253231493918509
0.243607022230581
0.243999307429417
0.234562612837548
0.249326240512889
0.230677711931053
0.260959464324897
0.250491021635467
0.258039608133691
0.247015936391758
0.256411757741276
0.251410139353883
0.265570942687487
0.282144810382893
0.27339531171264
0.303634038260326
0.300208237740009
0.285193452367318
0.297924806476407
0.277478862258498
0.303918329684067
0.282171535056238
0.336916624551794
0.290311063565277
0.303777901899122
0.309848832815606
0.329776714962646
0.297083840962061
0.336133173645352
0.313038897697909
0.320915703754587
0.320537003969816
0.363159209203872
0.333264315259256
0.345513373328422
0.346669985973806
0.369165477612026
0.334337886666368
0.376742296636945
0.347975292550405
0.369927520964371
0.343419641433889
0.395164810678337
0.357065446877855
0.391435539675263
0.355983253289777
0.405548657516979
0.393200191225667
0.403260717750289
0.401789838333117
0.392837468281989
0.385182351380295
0.415957406851161
0.400530525322175
0.431176690383579
0.402973128275629
0.426751731083264
0.423517079766921
0.458028736915603
0.419805899695815
0.450700382149519
0.434400193570004
0.446531404282371
0.441324899838444
0.459095634935562
0.459204322988686
0.478712631418333
0.438767590053785
0.481349875506252
0.455684687085467
0.482288298205312
0.477844478578707
0.529028099029706
0.471344753141554
0.517312618674541
0.494487869411359
0.512418749343455
0.49214357084337
0.530706249407319
0.513554185124046
0.54660683927212
0.48930861284006
0.543453035790954
0.495100813756629
0.540650249445131
0.535269661410766
0.581470596162184
0.524303517623472
0.55994516033422
0.524621299013636
0.575075260810647
0.520938019734967
0.573739965698882
0.549385732601745
0.61493896944652
0.562264407572275
0.653719442510251
0.578423195477968
0.632465053450503
0.551630359404077
0.60065694716586
0.585785763825655
0.635636460991603
0.581448008554012
0.636240690424751
0.578267743939681
0.653156186515968
0.587071827050204
0.629794132962843
0.619924375057176
0.642839131367614
0.638008082508163
0.69843107594242
0.619633216231232
0.663605456391155
0.63897070931391
0.695684846199318
0.63777860363516
0.687225019801736
0.606252841268784
0.654884238808107
0.635702280014835
0.703923119166942
0.685687131717596
0.743104172847233
0.66632382380131
0.75887808350729
0.659041762756217
0.750000980614894
0.668180637222414
0.762674396605771
0.725057145366649
0.789322284381517
0.708597143673142
0.800476024396208
0.69044179104466
0.772022767556054
0.739134283683309
0.784008505015099
0.732635304625825
0.764679193077678
0.701539153369558
0.794454504167002
0.735559779824048
0.779013686751727
0.777954521210657
0.857107724278667
0.742576053687149
0.802197678930546
0.740983647204106
0.818520864951731
0.741281039835578
0.852149470201551
0.75505306809732
0.826256775690725
0.767959896164234
0.829454607308603
0.837506411148524
0.842847715123547
0.807163516164616
0.871770098629691
0.79002712456114
0.852919183674448
0.850744167071684
0.921307919565545
0.874055816946899
0.854569305128229
0.806897046056665
0.888637221514945
0.826099145438533
0.819587911340947
0.811261842396309
0.869112213971503
0.853660661811756
0.962539748886992
0.811327214544866
0.876524333281593
0.862723573194756
0.943081571212855
0.849812265662677
0.894485309520351
0.882839211941377
0.934716192046596
0.822064378902522
0.948211156191063
0.837380710259511
0.985895258141098
0.903409200381772
0.892457846016599
0.893052503228925
0.932464825927763
0.864124529904102
0.938886993101137
0.892196545314064
1.006950436325
0.913961133104665
0.996107889051128
0.931853418953194
0.9272603581442
0.909699348214841
0.99993518667176
0.930459376912003
1.03908561651183
0.918861158048247
0.996267510881721
0.919356468707263
1.03802212655274
0.956514225916902
1.02610268988052
0.982806195603643
1.01366622257693
0.932403917603506
1.04059989687518
0.927785145930574
1.00287404764902
1.01610247530144
0.988387471388044
0.947317445876169
1.03328894710429
0.96467546423504
1.08704003978594
0.969110268410436
1.07222251086034
0.965132466461915
1.01575727092087
0.923376406751561
1.03402327014812
1.02942644506187
1.06847321976857
0.992577713462779
1.08950294764965
0.966796581593968
1.05459861349916
1.02363106045917
1.02973597982808
1.02384716004456
1.07927665186653
0.948873893111405
1.07277443270015
1.04269631488339
1.03179078245608
0.985394144364188
1.13763973709874
1.02883573377772
1.04659994682712
0.954293579503495
1.02996128341976
1.04930188989371
1.11416212085084
0.992710771895479
1.12344501326474
0.980012225745484
1.11789013884752
1.05873585085382
1.07251992379901
0.986003812425143
1.10335213841486
1.02310702664479
1.12374984070259
0.996488389505691
1.14771521218232
1.02353188917185
1.08883694354018
0.983226145275947
1.09094497681617
1.04403494869954
1.10975710635164
1.11314944512791
1.12016330377394
1.04669113227291
1.11018209145431
1.03452280768272
1.16383990558226
1.0536919959
1.12599325163526
1.04195756156275
1.11611423932642
1.0448811482102
1.11065747890351
1.02161636310077
1.08764867819753
1.00415768329579
1.09034117482897
1.09934131591189
1.13065034398139
1.04551879318652
1.09294499422033
1.01977996430163
1.07930448361264
1.07123355881323
1.0495659553615
1.06730450928654
1.16121722590011
0.990565948009508
1.08344583894535
1.0458440676845
1.10972368913169
0.999339281253798
1.14309410216638
1.05816586292954
1.12031663263572
1.06332054638532
1.10729545131472
1.03290182689097
1.06667539422539
1.03623288303387
1.10274388545346
1.01931917102064
1.1269725458194
1.02936046658201
1.12161183359935
1.00967818396769
1.11379672109115
1.07437661306222
1.11411275802625
1.03866717097394
1.08274663373763
1.06401470815095
1.08694862032328
1.05428022630678
1.04683754508595
1.00896218652549
1.11832601305668
0.978012327860218
1.17692368502604
1.01999984202275
1.05797942221278
1.05398510311386
1.08731857539874
1.05648338744551
1.09145176135034
1.03785152405024
1.09008460139678
1.03010381074765
1.08254302573578
0.996810568704228
1.12087725942092
1.02730475439832
1.06435889426287
1.03370639580023
1.05313478673765
1.00294515294868
1.07996058088419
1.00532875667945
1.1150751545836
1.01187091165863
1.08209137515273
1.00896890283247
1.03176341839655
1.00374127245557
1.08859236987723
1.06717992369233
1.09784458527909
1.0642875574468
1.03769280154155
0.985926377040688
1.06243900125895
0.930267424937108
1.05530168595871
1.01626742991898
1.06036316064359
1.02158788600713
1.02230702209598
1.01411546044848
1.04599393026901
0.990041650457803
1.0473279409462
1.03884006222939
1.00398285534087
0.98560592680384
1.02599794495785
0.961395664745137
0.998662425845102
0.904436382158209
1.03156726601153
0.949979504693439
0.963412173646363
0.968875779921781
1.03588181655603
0.955497175417947
0.990881199989103
0.978696449992993
0.973910499171504
0.955364310931731
0.962714283776811
0.938933205884996
1.00231199614131
0.979433146126887
0.988588295331936
0.943725676040771
0.989277257432442
0.939119531503421
0.931259084296957
0.951501485762406
1.00072310877011
0.910126041126294
0.95595820003425
0.929158256491723
0.949762287757569
0.898687202401759
0.935144154115257
0.908605543691565
0.932887399209595
0.898821097510239
0.941166848879356
0.892113376035726
0.910607558622537
0.855485348720048
0.932162307467846
0.894875086572498
0.941182603168426
0.88171472008933
0.913468801546475
0.868545191384826
0.922426527465208
0.867020497197779
0.910145651804582
0.871392201624749
0.914912694360978
0.860841792155499
0.899496039137665
0.848893443245595
0.896706055027527
0.832939683813901
0.890656692382494
0.876972210726482
0.856850098639774
0.816431282879768
0.833712769956918
0.854403689466482
0.842889428801264
0.836380861079776
0.839918681522404
0.805924045090096
0.856576381358404
0.824303696066038
0.835533073200094
0.799899354095148
0.807092939804064
0.813615505176643
0.825899782299301
0.784641050349287
0.814998848564082
0.788202457017898
0.79509074303656
0.776845351738218
0.802896890525383
0.776202714635763
0.798149722894756
0.764831325481484
0.798374576320161
0.778885465201119
0.802168316475513
0.754771702062992
0.761794942961039
0.744297559502362
0.763557885052287
0.753256082770628
0.772589010017719
0.736422879877574
0.768272062463249
0.720628896870033
0.734026115404278
0.7222863094468
0.725749254979242
0.713300815207668
0.73411564554712
0.717267384153732
0.739043351167201
0.68919457104512
0.716634674594648
0.690638345757318
0.712375003988424
0.682910371223096
0.711509470069289
0.68985231745338
0.707169920562372
0.684364596689169
0.70894931799741
0.668224694788649
0.689226724551266
0.664929966921605
0.680557105485226
0.644387666647811
0.679219415017235
0.658074253785347
0.651928550527354
0.653531942778745
0.675264953922919
0.631634807846051
0.64206498015429
0.638407110723767
0.632259119090653
0.632830114453929
0.634155923644286
0.622738302521788
0.64711774804759
0.62063393551597
0.618859074829829
0.612035502569677
0.615742334077072
0.610545775777825
0.616866413667483
0.605349619233354
0.620396947565843
0.600520155098942
0.592747455453541
0.59251341291084
0.609687954683301
0.589790277966726
0.601989589405526
0.58830497082552
0.598469634883993
0.572505970519979
0.584604216085933
0.573175114824233
0.587740338237117
0.590941870510137
0.581274264227969
0.567298636878867
0.57407373862013
0.551543356818153
0.572137010401269
0.545998692721248
0.554112534728665
0.548730159740948
0.555639919095079
0.539236004850653
0.550264830584984
0.533964437175309
0.536414455517165
0.526602707517133
0.538504078958571
0.523199456852734
0.532621793771611
0.52659527293296
0.532551973706971
0.51078072464013
0.529587106600347
0.513367654388924
0.523070828052075
0.513871098460035
0.530162850245318
0.496538869688735
0.501880541579789
0.488454751056062
0.508877775910772
0.499289353623977
0.498278845759268
0.487588391028196
0.493454430018923
0.488325179950944
0.499158879927199
0.479954221807365
0.48344425124212
0.482235291944721
0.495187424147067
0.476412772385955
0.481046675697488
0.462000258599252
0.475426970764468
0.458980588145748
0.465593339199465
0.473367196175789
0.470059223508936
0.445154772116911
0.460287724407598
0.449561576716924
0.460684123966168
0.442433198591089
0.460998238842907
0.449261544033211
0.445317083885454
0.439619705695495
0.440585143652412
0.431372905002158
0.434726576869367
0.428464701729742
0.433258435222967
0.426542932498628
0.434035990930348
0.42795170545486
0.434045821736435
0.420246338031323
0.427751852679673
0.415269895348234
0.416730263537287
0.411411478485501
0.418304399251039
0.401892275571556
0.412959201101479
0.406676879642234
0.408837027535536
0.397273204775676
0.411695974583169
0.394816014618553
0.394097793274565
0.389976096852866
0.39778454551274
0.39190753529362
0.394982205629497
0.380984279646444
0.387124600305789
0.381736817964067
0.393885357431297
0.379714858461814
0.38398550761615
0.384493174141698
0.389591282532244
0.379057336178273
0.380352458443803
0.369375274643293
0.380470651436356
0.379969641905736
0.368504517407624
0.363551608768965
0.369790262864543
0.363770974507082
0.378653524589344
0.361641015612373
0.371688597759135
0.366044415709199
0.369691988032855
0.366097378914687
0.369182869675315
0.362026198484476
0.366326958706047
0.356771800621801
0.371289339649652
0.364333997713368
0.363030036559043
0.362587168384506
0.366743674848862
0.361214967279916
0.371368610564611
0.363274658177307
0.361840976689217
0.355888686029643
0.368823448169896
0.362126864597498
0.370876723734395
0.364041132664614
0.365754321124686
0.35839617965056
0.378730982880862
0.373414043492783
0.369846591145413
0.367323539451956
0.377113699216353
0.364641052239011
0.368749629129714
0.374927665553649
0.393167689600772
0.378150525450986
0.38953560081545
0.38256466223836
0.380552798184282
0.387519402261926
0.388335103601229
0.377086180943325
0.388936170747767
0.383805764565749
0.393086002758572
0.392545335674683
0.402127021942747
0.398886414990791
0.397222973310938
0.395089399039467
0.40899975751178
0.407201844982949
0.41201842427076
0.400505539315619
0.410018032584471
0.417597504055476
0.418428744054263
0.421076178172617
0.416289641769813
0.411960003915504
0.424631355626824
0.424477418953709
0.435366147613603
0.432921089473044
0.435402849490884
0.430687480581664
0.443057716327434
0.446566968322378
0.455945430714371
0.443880693858363
0.460901862318283
0.456381074834278
0.470224896977437
0.460798243749792
0.458902096482862
0.46910144738574
0.461385692242513
0.46935105385404
0.478478759314222
0.46859051756733
0.480525785239211
0.482776857750166
0.489364432433284
0.477775192993275
0.487125762118784
0.481018480799342
0.475538355203964
0.478767449075398
0.485765831648245
0.474099391339712
0.481418535696259
0.474940151438837
0.482867890244919
0.480698167032153
0.47977075235343
0.478484314528164
0.474951977344984
0.46828913308885
0.476960899579245
0.46862955869448
0.473703276179437
0.476343569014968
0.477622153659433
0.472726027335634
0.474299585309593
0.471163783238701
0.480637492990949
0.476915088510989
0.476966768448482
0.466875483297358
0.472243966574846
0.471766464233211
0.480418609010978
0.474499545919557
0.471116756291159
0.477744454093326
0.478719534231781
0.468498244048095
0.480516294491466
0.477638409710353
0.476119649241254
0.484473056756789
0.484017605318605
0.477579409462192
0.484362942626237
0.485190646194386
0.481217877528583
0.474404713918921
0.476281790975114
0.474781689173193
0.482967853445043
0.469399276458856
0.473818680150344
0.469108089399579
0.472402469997993
0.476771473360717
0.473225874507022
0.46195787013492
0.475643257075672
0.467253513850333
0.464989070392602
0.463902623554742
0.464323663147856
0.458239151588969
0.456903055887749
0.451016146168652
0.457366530922273
0.453969763541422
0.459058706564563
0.449309110771977
0.449341844192457
0.44546336588446
0.438599746777494
0.434703692772201
0.443053700370464
0.431269114083413
0.432153892640652
0.4298811928146
0.434393758390827
0.422284330433428
0.42146832670708
0.417715430287278
0.412463636828647
0.411287894669232
0.404383604147888
0.405943179263552
0.407180198915154
0.397064881834602
0.397294373176969
0.391747808281749
0.387991461338489
0.390468201392733
0.389253363933814
0.384981973462833
0.388291019224107
0.378770227343406
0.381711468221439
0.375256429202772
0.373893744621874
0.373924154840833
0.371867052033675
0.370273838616877
0.364166021450736
0.365816304089667
0.36829114640042
0.358358416678642
0.359045343961024
0.356604705784791
0.35538251084786
0.353496641415826
0.348509132642743
0.35221078247342
0.351339606970429
0.34522508952828
0.343330548689111
0.342327409884266
0.34350712524862
0.339664504390598
0.341834026596356
0.331809550738142
0.334441581819927
0.334657589954105
0.330445663250709
0.330387718726367
0.335487528003777
0.333499004438856
0.336295241931842
0.325374032768726
0.325373945067989
0.322588081212387
0.325536585105062
0.32198318505674
0.324534841884623
0.313044868422751
0.318047372910846
0.317975845646833
0.315093337093238
0.311419375040162
0.311745495669788
0.317199534968114
0.315286439373093
0.31106108057631
0.31195300954007
0.309280576778114
0.311303955140606
0.309280132962546
0.304863804814059
0.30442992047409
0.304561737367797
0.30273989454128
0.303159901700927
0.301127881772335
0.30122788263637
0.302013420012211
0.299631771260484
0.297905699617054
0.296845669338827
0.295473279056543
0.294609588376597
0.294638626365358
0.294397614775144
0.289347965141059
0.290871161948227
0.29075137937681
0.297284438427655
0.294906079569859
0.292944726869789
0.286108469363572
0.285832432061059
0.285577998861672
0.282997766116364
0.285739719319978
0.284468661439574
0.283295315774941
0.28197443493226
0.287695171102284
0.281923971302464
0.284084000031057
0.280519000400711
0.277589901950779
0.28221846332176
0.279106377488298
0.280543397973749
0.27929448845149
0.277269409770583
0.277291432618152
0.27931793011936
0.275153414863014
0.272743607551441
0.275748689614766
0.278200538872475
0.275656792098564
0.2704577424182
0.271897504531236
0.274870081675833
0.272248699385506
0.277387563370955
0.27254750639834
0.267516620450477
0.26666066077194
0.272755817186709
0.267338355171269
0.272524270731392
0.271360474449536
0.269574197475388
0.269501134655279
0.268245795198771
0.266563990490606
0.26342388914641
0.266012169681423
0.268813886018392
0.267623323384167
0.265387730861713
0.265791110818329
0.268983414121353
0.267715367296413
0.261179937069224
0.261108362256036
0.261821867763149
0.264910542362159
0.265494090775583
0.262811225851534
0.262196059845824
0.261585349003441
0.26031600336292
0.264426291583761
0.260961197032795
0.257529209007515
0.258386407670895
0.255785093594058
0.255840779780472
0.261661818267369
0.26204869334792
0.256407074642136
0.2564521044761
0.254279355062743
0.256300510625
0.258047739064068
0.25340573155387
0.254592623944208
0.252939884353984
0.250771317384422
0.253142619467423
0.252591951017078
0.252576265316115
0.252065578838745
0.253184508212958
0.249746662377856
0.250220798204794
0.24834569574117
0.249878134617354
0.24722435372665
0.249131660992628
0.248009905406857
0.242765946891532
0.240347576249259
0.239482186260988
0.240695967446108
0.242781140942079
0.245252390945945
0.241091947810563
0.239480359900014
0.244360876113569
0.242503037240597
0.241226344207828
0.24284622038232
0.238155681250719
0.244070085364435
0.241857591787254
0.237885032989156
0.240541681398681
0.237203632637983
0.236392794228669
0.238090236434269
0.233113026943661
0.236718415255162
0.234536396939943
0.232012658996044
0.232541617777164
0.230808734868142
0.229408013332257
0.229297961302337
0.228457376129404
0.231435588602717
0.228589311516844
0.228908850375773
0.230012286579591
0.227954838929802
0.226464790584594
0.223050776497648
0.222768670613901
0.226973117395205
0.224096344318488
0.222450559402371
0.219941096093907
0.216653807881997
0.2200122121549
0.220280909736444
0.213848763428004
0.216419663348288
0.217858123475658
0.212436244963069
0.213334807976095
0.213418119658632
0.212511826206515
0.21519014223264
0.215306020030964
0.212359128342566
0.213849408531732
0.207700365023427
0.205676751640695
0.212781027837557
0.210351531425992
0.207162247894999
0.206143911116179
0.204346585435544
0.205983035675297
0.20916964720206
0.202824807844045
0.204360293207309
0.202120125556832
0.201665415247041
0.19787697026063
0.196343748319254
0.199128613549837
0.199195778934168
0.195972849614469
0.194963158629356
0.196209789670306
0.197694910943062
0.191917713576355
0.195453251022009
0.194850298735122
0.194937706409016
0.195215283138384
0.190584450570668
0.188247634085643
0.193333934382469
0.190776458887651
0.18552145254008
0.18677074281708
0.190242873016868
0.190208713742706
0.192663547060599
0.189739694056271
0.187088797503657
0.185855313729304
0.186274328476789
0.18372885957818
0.181109383902378
0.181532035795337
0.185765649624407
0.181930053912432
0.184451281194427
0.178775080009885
0.178054852883362
0.178773142066667
0.181155842867724
0.179020358407561
0.178631943234797
0.174704038672453
0.181419226592372
0.180170440760288
0.176627186829733
0.175879796847912
0.177650445338998
0.172075717545552
0.172283807663335
0.172814907126959
0.174081539593056
0.173785613022105
0.169721161343513
0.169540255798065
0.171017133134433
0.170801079117995
0.172341993519904
0.171845627449125
0.173282554952167
0.165921729166186
0.16908497071179
0.172315094973512
0.172608453764162
0.16702649945591
0.168134403992924
0.167181675223838
0.167681734111563
0.166048635478071
0.167265703674356
0.161877413955852
0.16755445055342
0.161116447695157
0.168516565226519
0.162218631964519
0.163551250756863
0.162447054307767
0.164644731936753
0.161689036286275
0.163450356325953
0.162699385719486
0.160818861427821
0.158138220285658
0.159944750904623
0.162007201806185
0.15897308547351
0.161718747645468
0.161533615913977
0.162413231827048
0.160937343546339
0.161014600097783
0.157996735967093
0.156686691409109
0.160545548573192
0.15842421501359
0.161561901340694
0.157001622262554
0.155219439277038
0.15707451416644
0.156218631515697
0.157211466686363
0.155474143466188
0.15515746480719
0.153680539890541
0.155225770672508
0.157829651357407
0.15368908112344
0.156283980927898
0.149702822255539
0.154253880321539
0.153674172291148
0.154271628431493
0.150632804072606
0.152106719268315
0.149290456027602
0.151104105045564
0.148719345193216
0.151749654159939
0.149936462410085
0.152398968315324
0.146438611424588
0.1480389411203
0.145150703927113
0.149135902969065
0.147950852019432
0.149349040499546
0.145118050227888
0.146243814068045
0.144403977635654
0.14881513068765
0.144688785848202
0.146920075115613
0.144792778167626
0.143910593000722
0.142553971333434
0.143498808037295
0.143697316436328
0.143489142718796
0.137408056863056
0.1428108655678
0.144988701702522
0.140579457696131
0.140882773368068
0.14132756843773
0.138436953376865
0.139871039034856
0.138396710252732
0.144602190254294
0.136726770829962
0.137878759624713
0.136977985820306
0.135596875964349
0.139251498619229
0.141501176782758
0.137115923433871
0.135118463415632
0.135054769382606
0.139254796036732
0.131654476921004
0.136284874369433
0.132463513855495
0.135506956433949
0.131757398570489
0.130994466986566
0.132379369439745
0.13271829951279
0.132557390422603
0.135855260164441
0.131681984848542
0.128910590318021
0.128196845931797
0.129047200750645
0.127066270524574
0.130642342981124
0.126944382630879
0.127983955146765
0.127081537126103
0.126888337470309
0.122222206452238
0.123910220612819
0.125143982025461
0.127417731362714
0.12390719968818
0.124081823734173
0.122957538687885
0.12658935785702
0.122807144211698
0.121347273950204
0.12023712150416
0.122521912589197
0.11940637618466
0.118171304541077
0.117507552841352
0.119164103539025
0.116053130090569
0.115995543662495
0.11708565185323
0.11940182276967
0.1159837120295
0.116727800559679
0.115545993402288
0.114294125962063
0.113138495566786
0.113287731184779
0.113563121473013
0.117001282566498
0.110125984363837
0.11184264296685
0.111767014347591
0.117039153690365
0.108246177780402
0.111938468863536
0.108524232305986
0.111449602928548
0.108672304169245
0.107774276464923
0.107493456037616
0.109930100922049
0.10685531643686
0.107390930715888
0.105420860891113
0.107307828756896
0.106103274965603
0.10598930309522
0.104800430408481
0.105507827894685
0.103006380602269
0.105715227642343
0.103274285332897
0.104037036504379
0.100816498211351
0.107453550621098
0.101068025170113
0.101075129473371
0.0977877160253374
0.101922526693007
0.100209766436881
0.101027370072308
0.0983762928784661
0.101326797759496
0.0974595770902005
0.098910990684634
0.0955470723049439
0.0971844135481654
0.0939322922447696
0.096945104988998
0.0947318595251965
0.0964133560607486
0.0947238034315693
0.0964153042175674
0.093210896138576
0.095541566499098
0.0923658437266793
0.0979099575267131
0.0932860938131257
0.0956193005291003
0.0934502110398716
0.0934130153311834
0.0928620856778334
0.0933628111575679
0.0901258090502001
0.0939159866629905
0.0873313330215057
0.0922967958780603
0.0899433044588201
0.0899580701363482
0.0890878787627157
0.0925420091042443
0.0887430319780651
0.0904752410453554
0.0895112274618651
0.0915822785639336
0.0896954355907537
0.0881134995035384
0.0905802442604306
0.0918746841448037
0.0885486776691561
0.0925323315038349
0.0869229377223963
0.0914798741271483
0.0910317547260762
0.0879501937467576
0.0848388042682121
0.0923898402476849
0.0840933227388806
0.0816985616487733
0.0808332959813288
0.0829855855148364
0.0790816858774977
0.0880099798904467
0.0783481287125021
0.0861471180845811
0.0862878484965654
0.0811485513042534
0.0833366119963639
0.0892649594346314
0.0774771390630121
0.093962822523283
0.079386576338258
0.0738179170689877
0.0817429594799609
0.0817833164423555
0.0841793661317055
0.0807234976912305
0.071039500542143
0.0840100812663299
0.0789705713623107
0.0793184121123692
0.0784450823953383
0.0814392286272024
0.0738595517163165
0.0765186281676545
0.0782099252015884
0.0755060378059138
0.0816978026468782
0.0698155588267455
0.0808938246736128
0.0732559225520358
0.0820973516114658
0.0774621812259259
0.0860287099985512
0.0720086509337452
0.0822556263639988
0.0609896138938734
0.0821171698641742
0.0628173288613389
0.0969338174511534
0.0688811502524403
0.101529670720379
0.0546055147633798
0.0966062567757055
0.0529687019512323
0.111848630406423
0.0493264889151708
0.103535689967159
0.0437182312614998
0.116061392721812
0.0478618523330753
0.100892563343998
0.0478023723996154
0.104456586297664
0.0556873907350738
0.0898306370308256
0.0696930300257042
0.0827519380240072
0.0756740215426999
0.070759183721284
0.0869477709453299
0.0659078149038295
0.0865697983610907
0.0664032328341497
0.0841841484469865
0.0705242308603964
0.0773600021824465
0.0730878494016023
0.0734683810261492
0.0766654082918305
0.0677297715747307
0.0729548411778724
0.0731223056114719
0.0750744372718242
0.0740257725166925
0.0726902916465553
0.0768605980066968
0.0721725917444701
0.0741165924104116
0.0688348607759776
0.0746620806231952
0.0720929696990291
0.0752579903190355
0.0737334526627458
0.074335402652764
0.0730749314193535
0.0745845592663532
0.0730260514923323
0.0745166736490198
0.070969071924385
0.075388044044806
0.073047106525641
0.0733145548420366
0.07339686953132
0.0735011592355459
0.0728700065769845
0.0756382074835237
0.0685072692257347
0.0732659481050663
0.0732821194614623
0.0739663166234231
0.0711667332980428
0.0724417861532096
0.0710991086733485
0.0746252061394438
0.0701536028441477
0.070832698258947
0.0718323377593879
0.0728775930735438
0.0702514879150404
0.0740586845317478
0.0721054280752325
0.0729219089935564
0.0719552255565423
0.0726315432043072
0.0747035081094972
0.0706054451273758
0.0713165782806153
0.0729864821710221
0.0690316163230665
0.0726539575714505
0.0699345170475352
0.0713861056291829
0.0708935531467798
0.0723460138254401
0.0711655017187461
0.071976553787046
0.0703498904662737
0.0711232823232875
0.0699681036913039
0.07356622135605
0.072878034861717
0.0728076763670824
0.0699447454802567
0.0716779932064028
0.0704624920688088
0.0724759344069959
0.0734256902845366
0.0728274841797761
0.0690788840048479
0.0729129255337062
0.0709283521712836
0.0705473411021873
0.0700612249903849
0.0719081048341898
0.0695436052203118
0.0713282742230477
0.0707995237385275
0.0701670429633835
0.0701750935934396
0.0747388384710585
0.0702229779749331
0.0721720924808604
0.069891717568222
0.0711607614543567
0.0711152856412071
0.0715306242758161
0.0696354885907423
0.0729709498720981
0.0675723081854674
0.0731485767063066
0.0723127412629146
0.0745557859101086
0.070574613612067
0.0733372671962112
0.072048910541824
0.0712891267856134
0.0712959072540824
0.0740854657304024
0.0708137424662781
0.0738765235552775
0.0724307906479864
0.0735574103387229
0.0722769692626077
0.0735477231591316
0.0719043407577695
0.0751451062248411
0.0727572265556127
0.0727419585745728
0.0716904731995222
0.0754325049413042
0.0686175329475626
0.0715236757322053
0.073352638416126
0.0753748851764519
0.0719620812942743
0.0751218874678324
0.0716121827996692
0.0741151103982116
0.0710500830131707
0.0736275744186131
0.0726013977730139
0.0758105186245077
0.07177160926911
0.0738424292255593
0.0712511092735588
0.0743941695583243
0.0753455234715584
0.0732510050547192
0.0710677767947722
0.074413064157005
0.0751900683470471
0.0752310573160945
0.0726995553164563
0.0737678620571928
0.0744885753559107
0.0746256078183928
0.0751375544902278
0.0767132784647399
0.072949289755433
0.0731786432228968
0.0741452175355767
0.0765582248891961
0.0764700834629754
0.0763510023710831
0.0717766511071455
0.0739090523150558
0.0745257065616986
0.0781800290350156
0.0732708239200762
0.0783671053544742
0.0749360520070452
0.07799947971864
0.0745973359690885
0.0783638337406317
0.0757613399307442
0.0768190906934384
0.0732338491929369
0.077528614370754
0.0756412799168385
0.0777847486111328
0.0731520889683541
0.0791969556041751
0.0760178460231419
0.077515261830251
0.0781073221148879
0.0767812879754805
0.0727408604668169
0.075729075282407
0.0746778917482969
0.0739262500611596
0.0743474114744716
0.075619029963024
0.0740129826235038
0.0755640220774653
0.073119644516011
0.0754799578509808
0.0750181826798325
0.0777921407777072
0.0724562150703932
0.0753929498958314
0.070780717888203
0.0754895264899023
0.07126100852849
0.0729009436094222
0.0740115615708659
0.0749198744150004
0.0704214885532457
0.0738088327370375
0.0712765622259993
0.0753515235366661
0.0723186482059987
0.0725778006896452
0.0703960382154161
0.0717913737812546
0.0695840421962387
0.0731747966644247
0.0725196348865225
0.0726605049018206
0.0704693069238931
0.0704771751118477
0.0716899288576894
0.0751490624314386
0.071907927594846
0.0719557791698871
0.0710287648113066
0.0711429689297126
0.0702150075344167
0.0710093032865681
0.0705280203835903
0.0722731932261888
0.0696540796833443
0.0708069215204079
0.0691582329681938
0.071749391482236
0.0686676969198118
0.071861944945353
0.0687066498579608
0.0704127916620259
0.0687143187989522
0.0711654211299297
0.0702286737731229
0.0682749980715373
0.0660542497542409
0.0708982313247588
0.0688365938863842
0.0686481082661904
0.0694901900380566
0.0733858332328504
0.0671174251767481
0.0716305287442974
0.068156436115558
0.0702401170230384
0.0665454922398834
0.067527377251797
0.0662556935143264
0.0689544861348887
0.066408929511426
0.0702852219433943
0.069081222785083
0.0706435816476527
0.0661227143929288
0.0700175776412591
0.0660676483385694
0.0695587685007083
0.0690215528534409
0.0691541777586066
0.0665524002921773
0.0682928659104796
0.0656406507858862
0.0706642325609326
0.064784041267416
0.0703028354099493
0.0671805909912754
0.0671665534011573
0.0655607920562687
0.0678087441006171
0.0674813716393132
0.0693412439890393
0.0667567521611853
0.0659950108828784
0.0657074254164033
0.0668662833556933
0.0667400254697356
0.0680855390931311
0.0677200271622486
0.0701377393686996
0.0651075365642871
0.0662313400351264
0.0648332412679835
0.0673472548394121
0.0650408148528328
0.0662980491063218
0.0654263184528215
0.0679429817415889
0.0651807620995866
0.0662488190622217
0.0644642325887685
0.0643087369623774
0.0647420704655157
0.0681575128035367
0.0639782857908692
0.0665540532317356
0.0641719525173718
0.0661139992440102
0.0647197940678201
0.0662376532951402
0.0635091955073309
0.0669268852344081
0.0607313448160839
0.0638976966368685
0.0635515364305154
0.062199735240271
0.0619793645451223
0.0637587347895815
0.0617004614855181
0.0627743823583072
0.0613443169446909
0.0621924993565499
0.0599862011112382
0.0642200479875146
0.0591678144500496
0.0634747619664325
0.0577770108008355
0.0614073446736469
0.0585835820228877
0.0632935879818074
0.0583272635320385
0.0621625110102658
0.0591923092919281
0.0611000767178078
0.057998721999178
0.0600858188818228
0.0586709945647781
0.0585363918789699
0.0590262775958406
0.0583727258361395
0.0557409087945131
0.0578613347432275
0.0554848582865691
0.0594699171220246
0.05800642131639
0.0579042966110137
0.0549115773052632
0.0575352322978189
0.0565781969283682
0.0569781458482309
0.0534863078434941
0.0571803162652845
0.0564795254740665
0.0574907825561605
0.0572001291635649
0.0563156885762996
0.0615234512924164
0.0551578588695211
0.0571121484628653
0.0575788034532708
0.0565541576212453
0.0525822330009816
0.0553323617970467
0.053923911829474
0.0550114076097358
0.0554939837166404
0.054085474960389
0.0567528499581395
0.0558896628496073
0.0542184941306117
0.0518802937028673
0.0538134248693825
0.0516273468400077
0.055113058279502
0.0541495792460182
0.0552559152718151
0.0522380438862591
0.054439210038455
0.0540489847226536
0.0547170751602345
0.0555360871763835
0.0540909872501157
0.0572988563845404
0.0529808664410854
0.0527732071244176
0.0533282987419673
0.0517155379222249
0.0549734942528458
0.0511231457132921
0.05435867374221
0.0530183517491239
0.052814334627468
0.0496520530689557
0.0535941959342401
0.050884568019742
0.0523665613616723
0.0522232491177209
0.0538616961867717
0.0532985040296453
0.0531616597679023
0.0497664516876678
0.0540513414430072
0.050657999373996
0.0529829914749337
0.0512899144628394
0.0565019902741377
0.0508886610332744
0.0533983432929419
0.0462446881590948
0.0643960501679228
0.0495912946395961
0.0560279141677019
0.0498174296385529
0.0536581758001006
0.0510874657643218
0.0528193370964312
0.0481510112949708
0.0503846034193107
0.049149430642586
0.0531940960290362
0.0488116420279128
0.053284522580179
0.0488532281425602
0.050053093676368
0.0487339242498398
0.0522960273647631
0.0491653349848873
0.051530231250586
0.0506042601019213
0.0541047888810307
0.0545822299516421
0.0550778479729304
0.0471629771807702
0.0562159408969831
0.0460295271397378
0.0615440261902442
0.0539708165033965
0.0472675999712599
0.0538601362745483
0.0497846853634479
0.0540114849863543
0.0465452315618894
0.0518617381461685
0.0483468951831356
0.057231834045404
0.0482081316580925
0.0531032573756359
0.0474834354814966
0.0500507520598939
0.051877000498299
0.0507857292409496
0.052735137208379
0.0502097545894658
0.0495635254268706
0.0485692767871788
0.0489251839971515
0.0499344612611222
0.0495783138149026
0.0513422491344207
0.0521928395041004
0.0549934254240123
0.0478026838192992
0.0508666506609403
0.0478078279738392
0.053630230565483
0.0521376015637117
0.0627740400659355
0.044410788090263
0.0523795164552306
0.0526916008579036
0.0498208622370484
0.0510642014133074
0.0503101110183129
0.0496345573172021
0.0497458380412669
0.0512316639531861
0.0525180938331535
0.0517887167311881
0.047447520334569
0.052771704143279
0.0498957734483845
0.0523209932661033
0.0474075650944728
0.0522246222069304
0.0478067240042475
0.0520335303892861
0.0524839057095542
0.0612812299261375
0.0628039372559238
0.0464345182595188
0.0577668780270183
0.0480902381899172
0.0539519373507266
0.0504370943382573
0.0553064698724195
0.0506317325694836
0.0536185268165431
0.0495931941970411
0.0526675071360992
0.0483938765500306
0.0523377219286257
0.0486537426994436
0.0531734170199834
0.0479328342994581
0.0541756270882645
0.0513648546005729
0.053214689848319
0.0477313488140683
0.0516776119348554
0.0517505327951063
0.0531682368456256
0.0539906129902371
0.0515968722140634
0.0617160759906484
0.0493590290827878
0.0691530800879566
0.0464538083026271
0.0621698707213594
0.0447934647789381
0.0551867134684253
0.0504768238621562
0.0544443090263498
0.0536324653244327
0.0533787654766365
0.0501110265203228
0.0526445894156255
0.0509766077441549
0.0553856329254602
0.0529243601639654
0.0599879329280084
0.0655649490935167
0.057764718458011
0.0483579104958227
0.0598307840598993
0.0501537519834332
0.0698720014955976
0.0526863594949109
0.0536261672581337
0.0568476498148362
0.052284309960878
0.0563400936767385
0.0509525966676363
0.0558679519796596
0.0565667396959244
0.0567050197478278
0.0535948747273183
0.0563616172184368
0.0526243575011398
0.0536297699154257
0.0575731088465667
0.0572389727627111
0.0604842333736144
0.0547289528162216
0.0566462562231446
0.0607662858235728
0.0546728053461578
0.0595490260556315
0.0541244827500138
0.060695248727918
0.0578208784634739
0.0631278114425297
0.0604144049786752
0.0627843787525525
0.0639377972556542
0.0585265490501055
0.0622457394810054
0.0682317794225672
0.0526633846614141
0.0711477764975742
0.050895556222089
0.0836720874124881
0.0560353969454919
0.0727773051188566
0.057889080875996
0.0616964873169558
0.0580334843453294
0.0614330139744356
0.0618563615973398
0.0598969375503415
0.0706070698967036
0.0524005810733881
0.0732076425772232
0.0501944370702823
0.0751354462641701
0.0580629252727612
0.0656373079537751
0.0599382873508477
0.0691137354154274
0.0565672275927903
0.0756224932540981
0.0607061202836783
0.0849153181428815
0.0737661063328675
0.0630419784390493
0.073995850895149
0.0703907056879215
0.0727915704871562
0.0728523656920781
0.0627732209900534
0.0734966022508739
0.0607008266188479
0.0769602997041999
0.0680698434975923
0.0841907881661734
0.0720820719944124
0.0670112515822863
0.0743151659682971
0.0765350631080452
0.0774268414903245
0.0828004851946458
0.0705648031907431
0.0777925776814661
0.0706710425202267
0.0916219465743916
0.0627355112150663
0.107832284720907
0.0661803823874314
0.105591686857007
0.0751235723939157
0.0908032246416862
0.0775329634699014
0.0927493094129824
0.0819206611315285
0.0952354536752171
0.0818705608531126
0.0969495389879477
0.080090233396854
0.101365200122569
0.0856038603766522
0.0903397465806479
0.0925963343028383
0.0977048745690626
0.108802416475284
0.118351454200079
0.0931376822032114
0.102430582173717
0.101842819069713
0.107507388806783
0.101859093694597
0.0959489640068345
0.104670414654293
0.101934570033308
0.103575973865655
0.109107488451671
0.106422131004688
0.114703713391545
0.103915187369571
0.117898300215358
0.109637187934888
0.148211736775756
0.11698276420674
0.124325419436575
0.125616136128185
0.113321412392563
0.129302118732706
0.114948942647468
0.127402293133607
0.124489178376525
0.124755004119574
0.123482740458316
0.124608976201949
0.138545593175161
0.123794101032377
0.146620497671714
0.13341564967725
0.148571462152286
0.130127121177861
0.147889909083173
0.170210074024698
0.134020951944765
0.177874730693492
0.131620966160605
0.180004851088328
0.149243075448263
0.183137257537656
0.167357285725959
0.17355698835384
0.173053507376642
0.178760962637572
0.179454251566222
0.192758897905343
0.191791475240374
0.201646104397242
0.201699608796808
0.220615426173494
0.217014658317053
0.257309916861644
0.228600946709002
0.234594393734071
0.233175062719252
0.253265477758543
0.242752918985173
0.253887525183551
0.242359490722137
0.272371449068369
0.260070254002195
0.297477151490911
0.276711426873476
0.283659049512458
0.300001767029845
0.288758483260971
0.324751852617148
0.289071808714681
0.34071647056888
0.303898750165392
0.337380251666489
0.319578546735893
0.343038073875533
0.349395319442572
0.353874192059188
0.360922682561471
0.361551502288454
0.371960539409557
0.366581902512635
0.373609748895077
0.37578698685311
0.381294966968636
0.395993047982215
0.405054598547959
0.468680697823051
0.362421693500111
0.419721478288964
0.382068108154092
0.409875926894545
0.398616328614643
0.40913613525971
0.425707715962086
0.399301704722535
0.416656550002511
0.404334747254275
0.407358925517972
0.410394361571691
0.410405468673733
0.414633095316253
0.400903577365585
0.436204056541751
0.403111525941119
0.439823366630384
0.388311959118474
0.455429141985815
0.413422599450977
0.421498950682291
0.417587254129615
0.416971382925059
0.399167454182821
0.415040746064649
0.413437565313885
0.414509796023081
0.413382920883918
0.40071294122859
0.417176462393096
0.401954490699692
0.414282010795725
0.401441904866621
0.391464571849053
0.399851420959739
0.377899738360535
0.402335238971115
0.393848766004442
0.401419443200196
0.387125494409377
0.377833266962768
0.386116345995417
0.37680408649461
0.378888676402605
0.376955603389418
0.384318828517615
0.378364110051943
0.375869912909562
0.374581198087972
0.380636460025449
0.373504141215288
0.388313363494908
0.380581074321998
0.386419723885148
0.378805426405633
0.381214629503139
0.381691491848738
0.388282171805997
0.385634298123442
0.394077540281759
0.387597389766292
0.391000258168197
0.386502076210416
0.390208273263427
0.390598986730176
0.390284862614924
0.38946261385901
0.392563500766855
0.388370682406847
0.395113238020795
0.390253860370759
0.392699809674855
0.389003880601405
0.388099871163061
0.38709739040577
0.387464820531958
0.386348031990544
0.387234830252709
0.382133772411622
0.376049100098054
0.403970086284724
0.363567814713268
0.397360254427432
0.36475241161982
0.376474672558489
0.371653534933692
0.360000003265542
0.379424808638567
0.356666947203996
0.373116515066602
0.355549315539329
0.353907952910206
0.353823667165314
0.357179070117716
0.345073629841827
0.342712817841324
0.329206289252975
0.359729408280375
0.318066726967536
0.395176625514424
0.359177525416992
0.354990073303636
0.32214260842566
0.329548564816486
0.336578790928136
0.325239610689207
0.326457582653198
0.307883606992161
0.331391564715699
0.298941252538261
0.323213009140661
0.312500382817522
0.308921328540778
0.310663369643823
0.317950010862521
0.313338213545852
0.316811501163699
0.310228142701482
0.309176103501902
0.314902922791853
0.306341182037658
0.319952251659401
0.291558143811351
0.287475814181955
0.273344908593501
0.287649653309767
0.302850052991697
0.270355102295084
0.291316232915864
0.263516974172162
0.272353946182519
0.265976116723723
0.274208202267669
0.271473506696812
0.264694864286526
0.279280254914631
0.24979997960693
0.278223199720085
0.24198073353303
0.28324788965802
0.254130567857379
0.274296832902308
0.243784759794012
0.258049462537504
0.253548496918131
0.263789995219497
0.256524328516808
0.234491135070867
0.241881949672363
0.249193756749045
0.235194245225846
0.243518458465296
0.228355242903603
0.250262811697156
0.256841015399972
0.25068859138231
0.260030485639912
0.231165577599276
0.22568623414923
0.224294186509043
0.219654262334188
0.233891731471773
0.212108548881381
0.241904293531203
0.20451259055078
0.23735940930715
0.240768296855722
0.224389751195823
0.23661073975776
0.230703193463347
0.226020771000792
0.234945907422062
0.236811991720213
0.259506484494234
0.243917562645839
0.251939361130986
0.246982355056275
0.253528158949864
0.255827600465098
0.246442978313602
0.256975594679335
0.254402445382086
0.272291802872096
0.272919000247228
0.273845339491676
0.275897185532133
0.273765958761929
0.28701818972375
0.303055592962962
0.292044089550293
0.319830722115367
0.291323210527498
0.346772740943323
0.312536321914898
0.337497109285464
0.331022694813051
0.335230390084657
0.34440400511539
0.340063125296114
0.353908132971142
0.369755332899181
0.355222882399442
0.369233402179556
0.357285376509735
0.380548345210643
0.36538301462698
0.397635790549259
0.381135848015855
0.422041080058061
0.39438671201717
0.408092660170479
0.404731289281761
0.392202419493008
0.404023936350917
0.397038122113423
0.405630847567823
0.400032615573766
0.405287525826632
0.417332336752096
0.41074998815889
0.418803823579417
0.411783528344394
0.420637241307532
0.413102669105047
0.421464823105203
0.43238049653952
0.421762875647074
0.429286503322606
0.430835076494001
0.425156881894606
0.460387374362307
0.437341441019738
0.453880078245512
0.44239469265098
0.453868930069523
0.454952222631102
0.454828686768185
0.47126717617187
0.472248467559151
0.476522285808332
0.477489007720542
0.474452642112523
0.476193639795807
0.470309192126172
0.495256674883174
0.490930538854209
0.509443249500162
0.487687832032977
0.509289830972946
0.515691362366338
0.510447769732127
0.525166258523863
0.499136997369999
0.517997168378463
0.504081662001054
0.521896967562137
0.511069470027696
0.52612407215804
0.515418756896824
0.525853490068025
0.508975291523353
0.520748482411575
0.517852067461032
0.517798438852342
0.527492916602644
0.520425967478669
0.527657363093495
0.518766967902008
0.513464508010054
0.512591566847757
0.519858724972112
0.521555863001933
0.520874018052236
0.521479182940725
0.510166820965386
0.525058112344596
0.52245323228957
0.524767743032143
0.515996758807426
0.513300634608371
0.525382379738199
0.517451151697836
0.511022791445349
0.531578854015093
0.520040775622252
0.53637203647901
0.520008388750797
0.528560354054642
0.52053473525213
0.533751707694313
0.526307199097019
0.541591326986456
0.533088323570374
0.544696739744376
0.540515911256149
0.541383884985621
0.536794946775117
0.546326869109103
0.54884082665962
0.545097111597741
0.540059993875731
0.539309120331872
0.535128435260207
0.546653043558509
0.53167256053473
0.533916931444747
0.523349679932802
0.525599765169192
0.511995330600189
0.541996299216631
0.509750197170375
0.526989907905452
0.516577737436267
0.507865986245663
0.500930117365089
0.498811097600076
0.49297282533067
0.488461646366707
0.491407625862612
0.487478259226057
0.487164477006837
0.482029336867548
0.476699731994298
0.483412607964943
0.478392993579646
0.478202195769309
0.47385458574225
0.474886845450803
0.468807741390718
0.471843395189179
0.473165571976556
0.477469599411068
0.463558669788068
0.473333115870893
0.472146789356437
0.477672496308857
0.474179551740386
0.475019365592658
0.47448023238445
0.467564120841992
0.473441393394918
0.463191496074512
0.47146016028513
0.469427194937631
0.464437422515576
0.462964124279219
0.469234957300567
0.467321190868083
0.461632824610451
0.465039586274637
0.463100497107169
0.461944664275696
0.463104996954921
0.463242201172495
0.466431578617829
0.461989846348068
0.465150382936409
0.464984735370156
0.465233427226004
0.470533256019376
0.465111125801264
0.465500724581366
0.462183213504898
0.462532321801636
0.467360981651281
0.468778347005702
0.469298096748707
0.465180862366721
0.462576044115231
0.468143664179204
0.463009259433564
0.462607190862761
0.460423575475474
0.459739474692192
0.456855076361758
0.455800258244984
0.454115477133422
0.445167249194421
0.445208906571194
0.441895238752068
0.438112233801877
0.43563871027482
0.432821966217319
0.432238572448787
0.424708654820613
0.42427780051769
0.418234158489104
0.418532522078527
0.415060976534227
0.410186153274145
0.409411647171179
0.408178858088256
0.404624700297849
0.405888255390134
0.404206232465331
0.400548886031427
0.39985702612081
0.399457661718519
0.400769930006368
0.405186765213652
0.399175640937705
0.401922373184709
0.398791190887219
0.399952497883011
0.401690924240116
0.405797449236852
0.402037858158995
0.405450241480904
0.404381364753907
0.408747836388952
0.408317253680601
0.411131683726201
0.416880565444436
0.417338052659161
0.413845796340403
0.420898344848922
0.418403184441822
0.420486031631321
0.418712380079177
0.423010836020918
0.423683366974825
0.423987034051218
0.42680187976542
0.421910118455029
0.423889830759227
0.424609852549469
0.420080429920588
0.422751438341724
0.421957514978392
0.423325092296051
0.422216692627298
0.419975903388234
0.41670633901773
0.417245685422013
0.417584372628581
0.413980396354036
0.410030185242694
0.415157194720262
0.416488571583445
0.409501833978269
0.405198581664467
0.409632427299002
0.405704099622627
0.405349219504453
0.405317581871092
0.403537139402073
0.400016318625831
0.399127220029397
0.398144566166304
0.397442089797252
0.39605934121157
0.39500973026006
0.391972638337292
0.39096955600107
0.387956631941905
0.389547917259917
0.385983267944728
0.389702286569665
0.387628113970088
0.385491087813574
0.384685502772122
0.382517724636645
0.378645741449393
0.379275263620318
0.374091897990585
0.377041480326061
0.371288072021508
0.369109856644995
0.366663842128136
0.36546309456931
0.363262413150636
0.362850804508919
0.354366289943142
0.355158734382721
0.349923996920702
0.349013436520077
0.345904685301584
0.346938369318085
0.34582480733004
0.338146845801783
0.342942789556417
0.34204455523412
0.337807700885703
0.336707534957233
0.336287609061222
0.337366746752725
0.333967014927856
0.335690516547962
0.33182469516522
0.326804093240326
0.323065616367119
0.322082740180068
0.321178946848547
0.315988769162281
0.312830687569384
0.306214156756236
0.303164748444327
0.296460565766942
0.298734264600589
0.296457518293088
0.296068389927808
0.295128903300975
0.296976829734049
0.29983358458115
0.305548258921166
0.308603399487531
0.318796925417747
0.322901873113543
0.329781301890724
0.341634326948047
0.354057869318056
0.367486519301066
0.380512295133714
0.393502062687885
0.407095675024839
0.425122229062397
0.435394315851995
0.451814668821527
0.459723504222473
0.477436621545453
0.492074416286433
0.50256718151605
0.515124049767436
0.527901897464291
0.538692769824303
0.553535568332602
0.564375657020738
0.574685903027396
0.583435994556595
0.597270623786824
0.600879693035197
0.619373549424691
0.619860429107683
0.625877680539414
0.630073583130528
0.640233446503259
0.648081514435143
0.650593247734819
0.655381826606408
0.658139970854744
0.649458186580984
0.663771351880965
0.661277886544675
0.661921931879667
0.66604092218373
0.664672818769712
0.664556712145691
0.664955284848806
0.671780155703673
0.667148587271848
0.66824712023354
0.674689212766161
0.678893198845511
0.682691511177745
0.685592684160215
0.688263378116836
0.690249714420219
0.696376013160628
0.709070703647279
0.710292671998548
0.726738682068774
0.721975204856747
0.734753890163206
0.745652451273901
0.75225841475397
0.755625324050502
0.771253611993288
0.78992070400455
0.795881563841964
0.802300135798965
0.815903831952533
0.826909769321289
0.835743238962444
0.837510629023625
0.837665830006496
0.842131593737415
0.851759223423425
0.845869106889946
0.8459993390623
0.848211893658244
0.845486211678789
0.841983670099459
0.835093156512348
0.832474402427735
0.834053270630685
0.830567415931346
0.832469233071799
0.834364545305763
0.840927300467655
0.849989742828147
0.855563383674088
0.879493050741384
0.880433362207795
0.8929373350275
0.895961625801034
0.914772353388452
0.929807029358123
0.940885534994349
0.96166941307463
0.97883866729256
0.999043028148667
0.995011872885747
1.00851576918017
1.02096154779598
1.0360119080043
1.0434583837771
1.04919222437175
1.08631978923637
1.09121280296548
1.11230112742883
1.13993507907239
1.15549854028899
1.18356787215058
1.2247879053491
1.19650277751538
1.22412410516701
1.25216957594368
1.27302464134472
1.28782139294295
1.30468690575701
1.31605104806112
1.34057640515324
1.33155945675962
1.35020016358358
1.38269684251155
1.39826592276761
1.36998193323606
1.38822964403023
1.3838736130027
1.40386611977345
1.38732471791192
1.41339663726312
1.38795793724439
1.40581995317331
1.39817737354104
1.38546723151834
1.38717252891141
1.39436379103318
1.40032330642713
1.38483427916885
1.39526520699695
1.37343555153774
1.4018737210162
1.43832189526735
1.41777816772645
1.43541010426711
1.4459015294965
1.46682807199705
1.51020946379799
1.49818164500673
1.52519904914697
1.55003962199295
1.53491340165539
1.53014309940501
1.57094943251034
1.52872304043428
1.55965075576561
1.66514509331709
1.62185438948192
1.61309653999238
1.63683095190395
1.61924764916332
1.59729014663355
1.70741675319942
1.70733548199341
1.65480498321521
1.68945659120565
1.70060980847374
1.75080975129006
1.73953671808236
1.7597486543041
1.68464474974064
1.77116297479176
1.71740579266606
1.72956181333087
1.74999672830042
1.75403809004162
1.71524275845888
1.82776489932372
1.75418816303436
1.86793747554384
1.7572270563685
1.71227949644465
1.71582495412717
1.84209768225044
1.70982885824556
1.7117879097103
1.72482206081959
1.69965729099567
1.64941937265148
1.62459005567761
1.58609878087853
1.5178613784437
1.51431812724331
1.41296338937333
1.36446818985629
1.39440179993594
1.35711637577746
1.3064571950321
1.26115818510366
1.2798980826629
1.28035396876031
1.28152743580749
1.23159246624512
1.24014158791675
1.21605789946314
1.2084964503125
1.18518367920954
1.18674103507335
1.19203897521773
1.18800092126793
1.16953277538044
1.14665750527828
1.12535164622373
1.10619840506699
1.08685765222266
1.05448183231056
1.04459280933153
1.01539046138527
0.980202011416638
0.961139541844943
0.940753441800066
0.886902461569699
0.860663509285279
0.817033471418657
0.776636130434661
0.74850874296701
0.726828205286607
0.694251721727568
0.661739289096078
0.63012256128096
0.599497341445404
0.580816434611106
0.560696963446386
0.541007159028354
0.512774807269261
0.504428434498144
0.484123308204864
0.481171453994111
0.464682368251626
0.45035441948403
0.438980611461581
0.435215914409668
0.424289613609198
0.4268870830094
0.415400797581522
0.417472125124305
0.411592532084157
0.411298272499211
0.409122713515024
0.409808884949868
0.4061404194643
0.414612321665163
0.410347608521349
0.408492317844348
0.410924205461166
0.41290875723037
0.41423748375927
0.408014852637435
0.406678719218842
0.410981778906744
0.403002533864542
0.408362567843953
0.402101412214304
0.401222526775114
0.392418096148159
0.390657019780977
0.390546696314175
0.390921922492815
0.385209924588731
0.384307375999326
0.383415856316634
0.374915253255157
0.380814280326456
0.37910993555635
0.379322343849052
0.388922654062714
0.388051045021075
0.387367921280945
0.391200658656237
0.392820782942983
0.395037272178845
0.395269713738092
0.40721598685696
0.394745852861573
0.398119818332259
0.410384519293192
0.402397478802609
0.406267345960282
0.413960276035585
0.410070147773602
0.409550957380175
0.416614842813476
0.407406222082028
0.415790143986419
0.41641546124232
0.419033012310494
0.425091280850694
0.411169626917235
0.419486490221347
0.424088002414024
0.431734572679375
0.430858376233936
0.440296637779538
0.444059107782704
0.449993455474288
0.470873432182078
0.467890995822755
0.487048870760144
0.509561841247381
0.516073446351278
0.518623409030051
0.536759927653686
0.539849297750253
0.547210917836064
0.555009103276946
0.557266751384245
0.547074165827171
0.542324580847185
0.527988197217271
0.518162473367388
0.525966807113073
0.506496904487614
0.495024368916811
0.498084128917866
0.488336905414199
0.48418059591747
0.475719792560248
0.484736638429844
0.487893559049289
0.493807412230675
0.501564925283605
0.494251301622229
0.488997363860561
0.496212340287464
0.481886149997011
0.482072757602654
0.483190880237602
0.468691848187651
0.474915337384188
0.46823574843399
0.464532892764311
0.462589315369993
0.452319577976739
0.453456092407742
0.445321710163994
0.444942166398003
0.433709561945896
0.441930845829954
0.433093844705853
0.431797304377186
0.430536017844123
0.427482739342786
0.425366640227663
0.424326330169801
0.417393756793258
0.417840811921313
0.422716749579375
0.41490846987682
0.4062710881784
0.414566028290564
0.416031668773288
0.417124185955931
0.397255476281789
0.400489217025976
0.395538077704347
0.402761042396096
0.396435182810399
0.399482190543933
0.380332036515477
0.376794369748821
0.381380583958397
0.386809881113101
0.383076074452399
0.377648403214205
0.367910800724345
0.369090266582344
0.369315796761638
0.381792993949273
0.378298407665716
0.371255927836725
0.363349477787371
0.373444946478606
0.359138652989276
0.367165547802056
0.366900775595429
0.364849390083265
0.370392368310332
0.379431484044083
0.37504242429359
0.369465815554443
0.368124149415493
0.365445406640642
0.369268807212454
0.372480564004368
0.374873173886608
0.36963409390254
0.371893461379659
0.38320127334582
0.374596790887379
0.378992916316404
0.390185718202443
0.387652871592663
0.397700650121047
0.400509531597933
0.382383291581482
0.392283695371678
0.397735962682135
0.404747052618053
0.418633773513947
0.421762876211746
0.424416595920871
0.437065564818362
0.42609331350516
0.445954666191877
0.443886126950219
0.454549249559027
0.460486320410798
0.488710608540925
0.488447053768538
0.502369635360652
0.504816257479796
0.522025324443173
0.527596250580625
0.597253337446194
0.589044594090983
0.578537299462432
0.610219987136959
0.625103916342145
0.623527937258724
0.663024617673672
0.656284370461332
0.661783124145238
0.636535129264257
0.641744032310515
0.641332366208674
0.669575756575347
0.616286719573568
0.652191635850901
0.647010477952705
0.603441981859184
0.626188227923787
0.615474736846454
0.600823666317532
0.64796600259531
0.644928459442243
0.638282067827457
0.591483688695353
0.633315825083235
0.613472274798212
0.618075035876069
0.605939365781278
0.614020651670374
0.59229622585606
0.591979055367816
0.601126145017761
0.611283191521439
0.585337279536988
0.610975361124954
0.577294563385887
0.561799343203529
0.551505712758894
0.586556589935126
0.592294988576127
0.545199550356789
0.555625555373912
0.569242803835696
0.551485994421243
0.52222396280218
0.519746123301408
0.567364787218627
0.542335861618257
0.559917027656706
0.532459591328023
0.578886593965901
0.576957535190618
0.597394772299176
0.576320439909844
0.586615752522883
0.546754662210811
0.580884035922286
0.56424331902705
0.593927440704352
0.565658699427501
0.57867460671768
0.58687208163372
0.622180805676293
0.636605759301265
0.591855731583305
0.586202568331031
0.62212429781526
0.559378300876314
0.569291207726724
0.564828536119552
0.60917168996062
0.622611375759539
0.656614743540741
0.594652539376922
0.632585979808186
0.622545007915634
0.676268879292585
0.635142019246491
0.618876921460819
0.673228801556736
0.757082766773098
0.642919562043316
0.659968750283527
0.694647972498432
0.713647621135702
0.718178925811724
0.743062010747343
0.768511707737972
0.794994106092354
0.738962537899302
0.701701691023879
0.731378079078438
0.756688689814466
0.80046154260897
0.936708756953127
0.798848248308089
0.778911250352975
0.815944096543126
0.876495030335144
0.847013037600147
0.947567159549191
0.808434992811342
0.896857988569541
0.715598574542677
0.787378590897111
0.799927080701295
0.784322699694766
0.72777441471003
0.770332578995887
0.84483033836509
0.848125969438432
0.664320344176763
0.697677097463373
0.762029900528147
0.791942416622285
0.828406462159423
0.763540729637399
0.6377758262896
0.813887533159598
0.827477682412451
0.741779413466891
0.838577218340112
0.786896856556141
0.730493061357396
0.886240982127294
0.8108836500089
0.896428086512007
0.84452349227808
0.724638866360351
0.639792975603632
0.757135139774408
0.744768891512857
0.601474879295438
0.75350347309519
0.791385440666779
0.729061256413368
0.844948235985584
1.40888210521201
1.50106134063421
0.880642805302353
0.72305889504189
0.70246443610856
0.892039733180849
0.628714472522655
0.54496745910818
0.708502053868554
5
1.66276629052354
0.713404382715074
0.994927550884692
1.34010373719472
5
