3596
4000.36533379555
650.420452594757
1
2
2
0.0301418637564662
0.0298920763926592
0.037471967998882
0.0286918896178019
0.0387075058741176
0.0279597711292696
0.026449712769361
0.0237360197306812
0.0409948344461184
0.033029150722561
0.0288420950556165
0.0272570340293807
0.0293617470519387
0.0264452380721295
0.0365593660064438
0.0199915665427239
0.0359008676780646
0.0277255448303674
0.0266528292026121
0.0220963772594532
0.0346656321600012
0.0141492050360105
0.0308102307643394
0.0282359521365801
0.0313575966117411
0.0233887927979335
0.035986387963811
0.0277976226453696
0.036509693825164
0.0216613455224091
0.0313170557193627
0.024755500287801
0.0314485465979627
0.0257883421576243
0.0324294654788153
0.0253704031552256
0.0277304799583534
0.0217068552411486
0.0376918008807835
0.0291429799645395
0.0323081094939031
0.0226610515588146
0.0279752787482765
0.0296905039130222
0.0367925923255896
0.0284882492641633
0.0307407355730758
0.0345022241772818
0.0352420302681388
0.0273877706132201
0.03617370508726
0.032148876143631
0.0295006794874884
0.0275671783372222
0.0398794320303974
0.0210363631240469
0.0328416456607094
0.0256503979279667
0.0371249393638174
0.0236625700774192
0.0369697906496472
0.030287743879135
0.0312894295640466
0.0235193346756112
0.0267719779749662
0.0205400532849122
0.0377352907416842
0.0217041743597887
0.0329362532263744
0.0194617186049324
0.0378599912689915
0.0330006006797916
0.0351329148441649
0.019673695538518
0.0343233586225708
0.0242463620215653
0.0237044834700485
0.0209614929736523
0.0334224856806146
0.0273117688520463
0.0389207481698166
0.0214625193373792
0.0308062272225514
0.0196160300068563
0.0491152346612708
0.026162780088269
0.0313594553614254
0.035130513862148
0.0328921892118542
0.0203116952321202
0.0262809042661814
0.0241268364347483
0.0314019601100034
0.0188996532488233
0.0295955345999016
0.0222538896509996
0.0302164176369862
0.0218988786076635
0.034143984788783
0.0193033495415091
0.0240754978819461
0.0570551872264106
0.0205031388273652
0.0403222799242701
0.0286995897311985
0.0235706154492169
0.0464109819576786
0.0332308077683897
0.0362752537151678
0.0130029018743074
0.0284012981290015
0.018625892971022
0.0342344639515332
0.0181450226183223
0.0393971588059983
0.0275725703112189
0.0362145133601052
0.0278931930738663
0.0318195589728041
0.0239040173255864
0.0447866431752092
0.0478663749250039
0.0245378504556356
0.0303547545932883
0.0297726037435981
0.0224828802606849
0.0400820608340785
0.0318612281091501
0.0192311642889024
0.0307200541286319
0.0178771871254237
0.0247830054079592
0.0244765013030345
0.0453594279778387
0.0271455131122216
0.0257062311433255
0.0286069429802864
0.03681793810945
0.0510878098740762
0.0186072609412505
0.027515232268929
0.0222724241536498
0.0273937695819852
0.0397699962601275
0.0273440053006061
0.0226693083147574
0.0397562157448719
0.0321541988107597
0.0156231832516131
0.0237069552296134
0.0299091642082683
0.0292861276371778
0.02950895589515
0.0214498820310405
0.0488059425216388
0.0364924909446983
0.0064461396433902
0.0602190280136237
0.00599348455072246
0.0296856444584599
0.0125575506092256
0.0298060418483643
0.0231066896747678
0.0238755601097643
0.0219768979070317
0.033241585156941
0.0380175199254214
0.020550054735672
0.0304950130970394
0.0398525701271932
0.0333616683214555
0.0244550060342179
0.0435783442909942
0.0133209911636545
0.0236015004211958
0.0315546569537853
0.0256952458826916
0.021770627869043
0.0217068362845838
0.0386708186040809
0.0195944943742423
0.0259275249334452
0.0203293425908351
0.0326186500082001
0.0337679895580735
0.0334900486195296
0.0210687122047725
0.0252120251982219
0.0208846438617936
0.0362271897526568
0.0288815838745178
0.0540786770508456
0.0235768291799015
0.0333022293949188
0.0103211032878506
0.0409462409763727
0.0372025561596431
0.0197187887022721
0.0260703326121398
0.0199949897245045
0.0168251605565377
0.0250412144734324
0.0255314475589706
0.0300785190671432
0.0250853757323607
0.047965597175767
0.0235126732278099
0.029380200653376
0.017094135211466
0.0252546505915272
0.0185085618628453
0.0417002896616071
0.0393066096966883
0.0237923293973887
0.0278600280168409
0.0195569217058408
0.0360221533041525
0.0313492040606884
0.0174918478349996
0.0246035129910395
0.0210893249881613
0.0290962164403589
0.0267477813756221
0.0228099450864437
0.0247242974716351
0.0273758900832345
0.0197496066360505
0.0212730755360049
0.021218729846703
0.0307776712656318
0.0242745446434469
0.0214978142147678
0.0277220790143769
0.0250182735426783
0.0274502405215098
0.0347795595633517
0.0158925463678768
0.0346658360419368
0.0284207259901482
0.0359699474219799
0.0230380690754039
0.0269075269445646
0.0231856430341793
0.0354128693312906
0.0150824944016656
0.0466371424064957
0.0253532323235957
0.0355660863160306
0.017373687099761
0.0365138510348613
0.0345873844689022
0.0292012244163288
0.0265821584071926
0.0237422598715473
0.0313756820144564
0.025195116114278
0.0367544288250653
0.0291428311000468
0.027194997051105
0.0299963868440446
0.0342155650194557
0.0312304181534789
0.0333453313927485
0.0271776696871365
0.0623116507515979
0.0278738696645879
0.0325710874555766
0.0557496312801566
0.0248266202102375
0.0389785371749966
0.0312389164988115
0.0178379146927177
0.0614475584069686
0.0541067522121676
0.0302586687610435
0.0344616003944001
0.0305993731008209
0.0212818353342527
0.0361620709352731
0.0400622929206529
0.0295987410848286
0.0463081211495687
0.0283136952354269
0.072553142880442
0.0142089113294188
0.047116510646436
0.0421836825273968
0.0222436622050668
0.0309263686791869
0.0304101905438521
0.0256315818132401
0.0282393553103565
0.0385481323779232
0.0213869393066844
0.0403392241287619
0.0294573161499021
0.0430978859275445
0.0290625528164844
0.0303714743159065
0.0237224654126803
0.0336823868592418
0.0306104499149016
0.0411032901083703
0.0262343163589622
0.0416277035816563
0.0392105763304006
0.0313182042599027
0.0592803083386957
0.0315006861282996
0.0279904320330913
0.041282834857032
0.0269456818247631
0.0356032222754532
0.0279671269053369
0.0311480751313964
0.0336541160626316
0.0343570125450164
0.0297579719802649
0.0474685083796497
0.0438278521934151
0.0353885903317991
0.0361068945004142
0.0340174135899311
0.0372371694213779
0.0327050226837721
0.0379970141660838
0.0337429889342871
0.0462948508047358
0.0343623111254288
0.0376632015099788
0.0454546340928186
0.0326729683151309
0.0519713684664988
0.0561413007157271
0.0253436319290372
0.038410281350284
0.0306496770558719
0.0448355930585353
0.0310878682071529
0.0355676425123864
0.0393079744686226
0.0429977810513988
0.0446103146331484
0.0512457730456612
0.0403803859099901
0.0556891016855682
0.0620738604889638
0.0949520641560749
0.0436482387511967
0.0582416602515858
0.0387488570818616
0.0572258958725837
0.0806771192125644
0.0371349235102632
0.0823494023610058
0.0414114260155008
0.045361346872828
0.0467647205593742
0.0577367334264571
0.0545989149215967
0.0587177311220818
0.0561764920962094
0.0518093409552554
0.0635572683896267
0.0559450790270201
0.068254516591946
0.055555728877727
0.0826451923106638
0.0637750568783005
0.0611834263549036
0.0709229827026441
0.0631529339760457
0.0827429693168575
0.102194823804535
0.0600917043869315
0.122717581388822
0.0679855339399657
0.123952373648157
0.06680822574122
0.0822342832119616
0.0699072962011461
0.0869595371506588
0.088786725587522
0.0886568671464987
0.0774619021021823
0.0862089571744693
0.0758953554928186
0.0954743678234892
0.0842041844915895
0.0956953517491706
0.0852494054358014
0.113359900853302
0.0983818856625902
0.101728553302608
0.0987683188885446
0.109513994252315
0.141183990717564
0.131956814435932
0.102514186131879
0.108769655245415
0.108205678083146
0.10027696457528
0.112505207281918
0.114101441439197
0.125014503801446
0.113901818653129
0.126840031568034
0.142528180599861
0.114341098397986
0.147630243730439
0.109790780008152
0.147251359883427
0.136064892120714
0.137403536960809
0.156148407628376
0.129549963468359
0.133224178155166
0.154625550634194
0.157159646318626
0.14484741276019
0.173309236481538
0.139494216133111
0.141573753600666
0.149761776647831
0.156508981265124
0.165624987422676
0.155924260510951
0.182478794897825
0.158309629127526
0.172267758239837
0.164413342681215
0.168717595416719
0.173096009051286
0.203360098650684
0.169993578407721
0.205496323672924
0.178507159487085
0.189103042081013
0.173862645478539
0.209772632145182
0.21297011843971
0.183171518177158
0.221527439354422
0.18733076003219
0.18888991398739
0.201810949236624
0.199574071267554
0.206720599582891
0.214920953626358
0.232470121895168
0.213657302870688
0.232658098792616
0.207304247643724
0.237686388276817
0.217216465896297
0.235991644350442
0.240251289613287
0.252023405130824
0.228963015527243
0.251226212884066
0.234148834799681
0.259450502860387
0.268313008435521
0.26872967674239
0.271059714457491
0.27408135732235
0.267391327296638
0.274234769248047
0.26846437008798
0.283760713480599
0.283109144198543
0.295799237648304
0.270429159411871
0.300595989971475
0.284292853304369
0.306850832666509
0.294608809891052
0.323610715236337
0.30039137982189
0.319761779025638
0.312774251616679
0.325674510338532
0.296135766111642
0.320732298822836
0.319628205403522
0.33956685113874
0.305104012761198
0.338619781320789
0.330359805805953
0.343749789424396
0.327412634247847
0.365077618571971
0.350075709534449
0.351371325702265
0.352226897335173
0.386709698675107
0.362676788001864
0.389482927235142
0.360434499903058
0.395425323203632
0.369118199161956
0.407000403493563
0.397505334666648
0.41919720035482
0.395267110142407
0.434749693782529
0.393124824186842
0.421701537841121
0.38119496363097
0.424657286878733
0.418349942586858
0.412018216557401
0.411397066345777
0.443117542233331
0.415077125930639
0.44723116506544
0.43007494942619
0.469806691943264
0.428066117732788
0.466535319764143
0.41417454932231
0.475993473000871
0.466795630532889
0.50624176139501
0.455668775486197
0.499596457740718
0.482238132869292
0.50472672940329
0.480364535086807
0.524484135391556
0.463487008467704
0.522848824373232
0.47908522077766
0.512305685564262
0.502228699136933
0.539012027579495
0.510880224832979
0.524141367579547
0.497812196323604
0.554563096873043
0.5175039263673
0.555351844172075
0.527811444241255
0.581007040105837
0.5572789287914
0.584455048077801
0.53946967699961
0.568107168748625
0.550757265317946
0.611499674271736
0.573618730667389
0.600892128006614
0.575787034610598
0.615668778100422
0.556241851670825
0.640368356103803
0.567960952603058
0.609506900578783
0.608619280615201
0.68124959493123
0.602836019922953
0.662727683034969
0.579855057161798
0.673751277084744
0.607428855142575
0.654590739976972
0.618080900699287
0.646363575920495
0.631531801900069
0.676542890676211
0.629636638481026
0.693028694890473
0.65217269121686
0.677530912821716
0.637483977738164
0.669811395033974
0.660604230587164
0.695020380447621
0.663439726797077
0.727452822012503
0.66020625366491
0.69820418356815
0.692573779630557
0.768111202314296
0.678694292973758
0.742213194585919
0.695927345010557
0.766450305202136
0.689641487260172
0.740442726317432
0.712504629998435
0.759280258858615
0.720771481862301
0.769628635204225
0.695679776166271
0.784626915231193
0.708855568215803
0.802299924355843
0.718763930922962
0.830659070616152
0.710804147413319
0.782387133528801
0.753832939195761
0.808894160167816
0.777742750219128
0.843050173677802
0.754840162026696
0.85414481016886
0.772352474357601
0.81147845254844
0.81117710634707
0.83153929653438
0.76392989959166
0.820601401309071
0.842029682363309
0.863898379908326
0.791599656695686
0.847763165706641
0.785157503813021
0.902576234671433
0.789508254845574
0.8330168908127
0.801797526569679
0.888306836298545
0.859154408431549
0.877261375559488
0.792605318037102
0.891687110755318
0.817322245052695
0.924550960488444
0.835287117095042
0.873567641686148
0.83686098047952
0.899548617890847
0.815839432817815
0.91679866090867
0.832701951719932
0.918375281868937
0.854319314508767
0.877962576027528
0.837094385604433
0.931690587222284
0.845227764050558
0.918878043152238
0.881587416808479
0.909471471683153
0.885969146665674
0.948276789608502
0.882965694019648
0.965456791219643
0.919686743726567
0.955461843210411
0.868001481527307
0.940053486450515
0.905101965563072
0.991850721398425
0.910217170982751
1.01652938625942
0.885120985401578
0.960374990856254
0.89528003023239
0.922307350040394
0.891066402237349
0.987213466307244
0.923059472370656
1.01150492967324
0.84644277572419
1.01170615774504
0.903080740197643
0.969743032299499
0.922609787797254
0.999736702683938
0.943542816038551
1.02560460355195
0.948327462373592
1.02259081712227
0.890272643706028
0.991666245751225
0.974215696373902
0.955242039506242
0.964964475465402
1.03805657613866
0.942997594451605
1.02624755090798
0.914960252617315
1.03226281304417
0.935305948525731
1.00597411890488
1.0389296591351
1.05469774035661
0.917979864926628
1.02928114728591
0.988771322270291
1.03187638659656
0.959262572659841
1.03165248511296
0.972809814270558
1.04680473624862
0.97379525496345
1.03721180180171
0.954930418778292
1.03264051646128
0.958776539968831
1.01116283701005
0.975024449742513
1.01582737236054
0.962467678547096
1.03330421907364
0.954613055772225
0.962840725644127
0.966203127169813
1.09184641617566
0.970326336849079
1.05708704102635
0.948886881639816
1.06097530444502
0.957953828127796
1.02582179406027
1.0358122398664
1.08182355490524
0.998745498068789
1.04414651551534
0.969016661649223
1.03244344634831
0.96373861985601
1.0574124328055
1.00160735034298
1.06874669769167
0.995087426084326
1.02948014040708
0.932721427290334
1.06610035269344
0.982997213664528
1.0296856214264
1.03620811698849
1.04873146849423
0.990993698558162
1.08898847783526
0.978157738033937
1.01723225840483
0.933753703548987
1.06272055475937
1.01634853810693
1.07185241945461
1.00367756154068
1.04457229254574
1.02178161373563
1.03010018894
0.986447825944701
1.04285209237455
0.975508368311975
1.02712599759775
1.00701048801516
1.06893770861532
0.976864038916083
1.05665137055069
0.982589958431212
1.06752423576537
0.980412728879437
1.01242124642073
1.00027360387253
1.05989574450142
1.01341281345386
1.03438310041541
0.96901188369382
1.00243369589626
0.991505480317535
1.04176339736926
0.985631485993294
1.01586710127086
0.973878888617863
1.00970684104851
0.97732777382374
1.02452421504004
0.974255245799125
1.02751880936868
1.00596453506225
1.01476375744883
0.95982578684313
1.04554258703006
0.992999186493514
1.06052423304653
1.01935961994781
0.974496915850166
0.947438673723347
1.00630724469031
0.955438301887915
0.999775725873497
0.978587066866805
1.02559850637451
0.937393993354546
1.02366065359729
0.924576112937953
1.01907728258909
0.95056779606438
0.983632556546349
0.967728769152824
1.00607351395537
0.943222864892009
0.977543067728776
0.930532169937676
0.952081530340557
0.952885667142601
0.973333892170402
0.920755845354063
0.914311494769197
0.89177171951858
0.968086801518052
0.930525002943421
0.957621284740668
0.912147690761439
0.957240727882286
0.955092383539292
0.948935768274821
0.902377797160922
0.918469268327567
0.913377685532584
0.94236911175721
0.89165911146506
0.94208236568019
0.887922677504459
0.91911754007794
0.914112234779845
0.929120792577395
0.88648295187207
0.888382092188948
0.875663615205302
0.931639215763828
0.905803545532473
0.915940187776111
0.867097562164595
0.891820627093721
0.873313594772129
0.911511790030782
0.876495075136384
0.909088534858948
0.872277303604134
0.910990018289564
0.858370659730285
0.896422058235022
0.867501237976834
0.909660903332851
0.893978602050402
0.878006270250487
0.839272106468102
0.891313904043201
0.853582487950329
0.898915428664433
0.852561333520388
0.858699025351856
0.825654696751981
0.868214515930853
0.808945476976429
0.851320092499078
0.80789459301807
0.858761006040291
0.831079912451529
0.844675445413568
0.80191754257708
0.863398527481381
0.816670532934615
0.841397647029736
0.776008224418253
0.821222237398985
0.800549744123184
0.826580868291309
0.786601033274158
0.822543653699076
0.795365630787469
0.800808785589854
0.782439289020951
0.815397692176253
0.784522807621658
0.801384495539614
0.754531768882137
0.798542464170165
0.770966752656929
0.774368634830486
0.755041529574054
0.783715546054604
0.756745390981715
0.766114374895613
0.733307765832425
0.786859705486446
0.721786141973127
0.759675600629613
0.745349903288668
0.765000202638419
0.717505449875907
0.754359133433232
0.741455022197029
0.734877987524693
0.717732839142248
0.741908222627022
0.692026587971527
0.729427326082146
0.706501259935132
0.716300097003274
0.702541663517928
0.72733455514727
0.679185778761948
0.692316186227591
0.693343279931095
0.691379526511548
0.675556139947841
0.694673959380378
0.675762528196967
0.71078974062493
0.669760183304469
0.675313148836165
0.66497936959978
0.668218690426195
0.649603550508612
0.677322169527789
0.641584952413253
0.663143999161869
0.637944640561854
0.654801333434219
0.635572547989673
0.652335145234888
0.647202006221262
0.641437043184731
0.623906641824843
0.63591296714135
0.625337801940234
0.63046063088245
0.615372509620872
0.640737090166024
0.604190021234356
0.613999854410556
0.587813812744344
0.610321774167412
0.602184028858597
0.607968161376438
0.590624578267189
0.593643371698397
0.575697176561563
0.588013598318629
0.578458106006318
0.591241592711202
0.570643033785574
0.591907740031993
0.562104012478161
0.576636619357969
0.556796514330692
0.582241321894013
0.560925592005361
0.573288747906556
0.551505491121606
0.573687501116187
0.540762518876319
0.564926033436366
0.542460935580034
0.549488627735614
0.543687447204394
0.556376796855871
0.541495806143145
0.542866772986758
0.521344796028066
0.537897970365752
0.527479450229815
0.549077693500615
0.517495057897364
0.523328860576754
0.521872358008604
0.528979603905934
0.528287727205775
0.52420902758908
0.506924700890278
0.515987329347069
0.489331842514846
0.51020588097573
0.488176190200569
0.509821994599998
0.491980250056384
0.506899946444881
0.486710921417271
0.509699358540611
0.492498686133291
0.494167336345162
0.47947067353214
0.486844786700271
0.465009613830053
0.486995505801561
0.47556990437844
0.4818782419067
0.471561210105968
0.468804643429849
0.454811039888538
0.47640059688421
0.466007044139722
0.461285368602289
0.458413691953336
0.466181050425916
0.446670552813996
0.465443656933608
0.44221121175615
0.450947309657499
0.447894222241454
0.451617514211699
0.44160352035461
0.443935111518659
0.438897941771152
0.443686296397538
0.425300641223699
0.439962496649996
0.432623738582035
0.439624903027416
0.426521514395804
0.442429831808929
0.420240324223462
0.420747587423562
0.416221234111371
0.420620218637181
0.406124514787137
0.419649657462952
0.411953340571106
0.416002260147944
0.413008558618379
0.417445251445618
0.402284291024236
0.406321621965172
0.398659245176219
0.406279414029965
0.393627168368988
0.403875861432154
0.392096430016154
0.392908300493205
0.385150092198063
0.398877843390351
0.382748946760639
0.391284320197296
0.386291157952068
0.386065715987138
0.371953911581022
0.383989475242447
0.374049967502765
0.372189462761191
0.373088503425733
0.376994887660624
0.365275491725354
0.373935443200753
0.375879005817965
0.371325832926538
0.350760828965081
0.371930335864517
0.355053219059945
0.366536648140693
0.35358123103838
0.360905605444763
0.353792779311873
0.357605208905411
0.350090882746594
0.350137642394338
0.341833269930711
0.343645164630379
0.336795244396582
0.353662487253834
0.345597123873066
0.348711489559578
0.336757179447477
0.342179537290347
0.33685716824726
0.336629558355303
0.327624241523479
0.337811518918636
0.333471421702167
0.341325370306829
0.339458982104965
0.341923192792489
0.324224803000834
0.334791235941801
0.327607056363689
0.328722818684479
0.325272986804967
0.327908811468134
0.325642151056267
0.337785109386426
0.321267056594592
0.331704404641586
0.325028412758582
0.33029620530426
0.329248273983434
0.332233851157986
0.325143332549627
0.338333963974827
0.331550652096318
0.334981040282887
0.331033182271953
0.343980447530581
0.332987568451149
0.340565469174392
0.332339367598854
0.343316481592674
0.340842097845667
0.343818087834536
0.340015062091056
0.347970505249306
0.342155058796367
0.342588515992244
0.343026789401321
0.361969221276134
0.351219993832599
0.351992362018426
0.347712624348514
0.356604814802273
0.350758997508365
0.358594029947227
0.36060730759605
0.35951138216582
0.362847759323282
0.368667426530495
0.363008851411466
0.36760851615488
0.369965445948803
0.375392738042409
0.369787353711792
0.381002002300189
0.376913995942482
0.379306264668629
0.376493758224083
0.389414844421006
0.383575968084554
0.382949516180115
0.387137461262229
0.386092148186419
0.381436192742138
0.402026630285513
0.398082758815267
0.39854050844587
0.392065620012023
0.409414629808644
0.398443228721354
0.409135527947767
0.41400523723477
0.424002153467998
0.414515455884792
0.423238533636228
0.423468855308469
0.432702626990326
0.429255625356158
0.436596129672473
0.431147468499995
0.437100629790031
0.434897452632086
0.447201730641132
0.433457577026736
0.441729258929553
0.439942177023568
0.452544961391035
0.443529333606022
0.446139442970565
0.445549174524793
0.458649630826706
0.446994014468414
0.451605726733395
0.450384114658444
0.444196960048469
0.439435496582541
0.451777187915512
0.449120577110397
0.452116994518795
0.437722083671427
0.445674641702821
0.432829240522284
0.447612419712662
0.4468750733236
0.446187901550585
0.450683354405496
0.445565989473773
0.43812622380008
0.437113984390775
0.443198674358154
0.446817612214109
0.441883337887566
0.444919930550981
0.434606891556871
0.447693064276817
0.440209758195775
0.44191316043981
0.438157548462431
0.44085167316799
0.442638277062717
0.443427248007682
0.440673490876265
0.440444184973698
0.439449735952053
0.443565613718128
0.445705859749676
0.448099785065406
0.434353269748758
0.443025665420145
0.443076644209086
0.437235837784262
0.435870840282771
0.437047068194974
0.439024625799651
0.443279334309739
0.441840318990151
0.445888094656198
0.436595522057484
0.443156902479585
0.440505901895167
0.431553152928839
0.425025547100293
0.439578369981114
0.430074049135666
0.43037841874272
0.425657756926106
0.431499348363091
0.423967704453818
0.420897473330201
0.419702067999782
0.416418865765613
0.410199217021995
0.418644637332615
0.407034732511018
0.412427283628788
0.405409309149099
0.399088433509
0.40130185591248
0.407066666751419
0.394071544714965
0.402332167567357
0.395524867377278
0.393219431039827
0.382305233158462
0.382152990800473
0.385849470355171
0.381802057003441
0.373868847268063
0.367064169669286
0.366505197338388
0.371693306809226
0.365603755884652
0.362694856378702
0.35393920591576
0.362131520639992
0.360517692427479
0.350397178933507
0.35317184666521
0.355146132330638
0.339494849224222
0.340927743854608
0.338617062222621
0.336486937069745
0.337659889302611
0.337109653471236
0.331785553845426
0.332712449168166
0.325556328954981
0.326453200761999
0.32368548442277
0.321630671296245
0.318740444831835
0.317815799275006
0.32085323900446
0.32099899133217
0.313628915611895
0.310667280615816
0.310860005825657
0.313051588256472
0.308735753980048
0.313384403196722
0.307842251172583
0.310321535703436
0.30230073659249
0.301894609977544
0.300834629304804
0.297046536112928
0.3000693339439
0.303371243983693
0.303252374840942
0.300649172274172
0.289473847080781
0.29507457750318
0.287823171367325
0.294269752224406
0.292376437940176
0.29183537713092
0.283016853338494
0.288717599941652
0.28277388781895
0.278913548345987
0.279219200957659
0.278033984939166
0.276512668127428
0.283098855997089
0.276610066510787
0.276899231217455
0.277361765191981
0.273020540785955
0.270449819687338
0.275708032118782
0.270468834690349
0.271717435805206
0.273195802303954
0.271812239819976
0.271490900128319
0.271672722528759
0.271465521945881
0.269639084649832
0.268321029539208
0.262353600294736
0.261077017135717
0.264564988234969
0.26276547127409
0.263487702521516
0.25964330159828
0.260545283066188
0.256977110293254
0.261039701906852
0.260342401795988
0.259303971152661
0.25622918372286
0.257708224185903
0.255212019294017
0.24873790965255
0.253428072099833
0.253680774029812
0.254801913069223
0.25548578415104
0.254054970237312
0.251884220448169
0.251590894804417
0.253383506497055
0.246973256660784
0.246264870324425
0.249622972377472
0.248977077077891
0.246060658968643
0.247464884489962
0.248004006532445
0.2488038445211
0.23894839208185
0.241675371259073
0.241056605233409
0.240458044926264
0.245157811483464
0.242918009641577
0.238697832824472
0.241190773138761
0.236572592712343
0.243465476599531
0.241019150667513
0.236521463091914
0.236334836368189
0.243219204070722
0.238520840652284
0.240462157133742
0.239387118711468
0.239958442685722
0.236740977945851
0.238176806254046
0.238988596764835
0.234153094640964
0.233723111545899
0.239387546426851
0.235940979095293
0.233251802549494
0.233740643924491
0.234697401888072
0.235277122806206
0.232368773293429
0.232685678563938
0.231150582656332
0.23235457503558
0.236674013745755
0.230534554683376
0.234021885231179
0.231333835093027
0.232761651240019
0.231607653485179
0.223891374980664
0.22737789611606
0.227172562867138
0.227747599195677
0.227122706388196
0.223666552006548
0.229750896377562
0.227798828372156
0.226669136271001
0.226124061382746
0.2249421414487
0.219108531895235
0.224985075768573
0.224671448759396
0.223071730588113
0.220675386537315
0.22131465303017
0.222471854288262
0.220235845053609
0.218045855919805
0.226840462302524
0.216756853001771
0.215882275962178
0.218708098694488
0.21770670802465
0.214842354578343
0.216666382453224
0.215475344373104
0.215243699938138
0.214993688140362
0.212464586743411
0.213590195912958
0.21660844978543
0.215680884695994
0.211816172490107
0.210712999263434
0.214173293030068
0.212360939336206
0.207800987702444
0.212373926412927
0.209978572107783
0.21078518108694
0.208569402419356
0.20452356172103
0.208335812378053
0.208481062519382
0.206897322675341
0.205465996747731
0.202121845997037
0.204309601523061
0.209481272020738
0.204328530242245
0.201091728854836
0.200342262009479
0.197689531676416
0.199600760809074
0.20191333230178
0.200346654829375
0.197688935968046
0.198137977768803
0.200670748918046
0.200159392511955
0.199615283424799
0.196240824177927
0.192613633764597
0.192758594539311
0.19028727235531
0.195182049345625
0.194474448799987
0.19316810153749
0.188207472195679
0.192107409897623
0.186482572001064
0.186211216651171
0.18979712505623
0.187535845020965
0.187590224185985
0.184175341271883
0.180919369864858
0.185976045543712
0.184329767248439
0.182953599520297
0.183216637291322
0.18040610478885
0.183723673303864
0.184180160153505
0.179983823875113
0.177926472301977
0.174230544735256
0.174232078271701
0.176934993275052
0.179025006370147
0.17725879860951
0.17806104817844
0.175604396467751
0.174166515790795
0.171840859776884
0.168855715121203
0.171097905580674
0.170056616147379
0.171858807027996
0.170785942643277
0.169401566812963
0.170885886574711
0.166846785348086
0.164053385743179
0.168718315477393
0.168445055010681
0.165594903006422
0.163597191171271
0.160024815057207
0.161331442609386
0.162136487610659
0.161666368134869
0.160983625702018
0.16260491821415
0.164826841374515
0.160012359584134
0.160880527865711
0.161089100087862
0.159763406611321
0.16121410595064
0.156945902704012
0.155272697813966
0.155696018607844
0.155645604111323
0.15727456938916
0.157874559527085
0.1519705574008
0.154716758755849
0.155630017703882
0.153006854016455
0.153104017501521
0.151779428975192
0.148715371479646
0.153489760990199
0.151253779990788
0.152399989280334
0.148299823781554
0.152491430610019
0.148055437348435
0.147765404666934
0.146832276557949
0.148268159895126
0.148455886168571
0.143229572911244
0.148447454881693
0.144786555772432
0.145777357556453
0.143415720321579
0.146196240342545
0.147095922134457
0.143596399016574
0.143273873714893
0.144495620938228
0.143534289220974
0.142034800809074
0.144372817073761
0.144962486388987
0.142601666543067
0.138706066516603
0.137491122278381
0.135474094491031
0.144038817514203
0.14117829642955
0.142233838961704
0.139619242845211
0.141615674779795
0.140630167499162
0.139861498583178
0.137949783026177
0.138076861465953
0.138988818793538
0.135119744513189
0.133056179941009
0.138320847497238
0.136137245312272
0.135214433041658
0.134064318937496
0.136258092465695
0.138764876053892
0.137705034587019
0.136018555900813
0.134529892852941
0.135721138130313
0.137349454557736
0.132147283346722
0.135562522554857
0.134111828445032
0.132403947634191
0.130627750780899
0.132239153552265
0.131415608890009
0.129783969563018
0.131265862418536
0.130391922236234
0.129501652460242
0.129171117018962
0.130254482183439
0.133317322153407
0.132791647679242
0.128484677732235
0.129957163506369
0.129655965317298
0.125715083147509
0.128994679233095
0.126438040645443
0.12763329758093
0.127163912537157
0.1249290393405
0.120542424835243
0.128524034500654
0.124127507923772
0.127250490191971
0.12283430095674
0.127046749650044
0.124261263322746
0.124373271106993
0.11959783017228
0.120896129339876
0.123101898907987
0.126265842191128
0.123645076192286
0.124639053539574
0.121890876688506
0.120797657490314
0.118105779064587
0.122277176202372
0.118501831644917
0.122272630827926
0.119293757096834
0.121492856420446
0.123421307530481
0.119068431403267
0.118741865321122
0.119645178912207
0.114917803673557
0.119920512714914
0.117506558653049
0.11926453040496
0.116353738180298
0.113374240658539
0.115414299288389
0.118690860996116
0.117322946814165
0.119419620792333
0.115033814381568
0.118335353944481
0.114901445921496
0.114328538928328
0.111790764821631
0.112187727041489
0.112083395933345
0.113457219392563
0.112732176381159
0.111172354713628
0.109992057896047
0.114405481183836
0.113546275809092
0.115522173815345
0.11104505380257
0.108447746094177
0.10703976137158
0.108297701819769
0.10848678143678
0.109208854187898
0.108674027562847
0.111235475479843
0.104736350576388
0.106443533274788
0.102640882304785
0.105598101068414
0.103460179559496
0.105066037638673
0.104404185963221
0.105873170962756
0.103181473197921
0.103925989266677
0.102014269212972
0.105998908887811
0.0988464239803511
0.10163083885228
0.101625142802541
0.099157029509313
0.0979623333572046
0.101300877341202
0.097996483346978
0.100516099449458
0.0985670947378972
0.0975944267829822
0.0990303993513424
0.101472208391497
0.0995507537336427
0.0946081991987659
0.0949124884168476
0.0971258606908416
0.0951204147181033
0.0971077455977959
0.093518552458361
0.0930955741810493
0.0953482258311074
0.0954509062740987
0.0911423586609275
0.0922360856531952
0.0885526053177957
0.0937968532508788
0.0899550936511023
0.08873922968805
0.0897140680807086
0.0936436464328325
0.0895844351191729
0.0901547878954612
0.088189425191868
0.0887232606702573
0.0886103200027992
0.0905176374689482
0.0878441019009127
0.0881520707077016
0.0854134768421494
0.086023515686997
0.08447396707851
0.0877581828536674
0.0832569062348558
0.0862261642531301
0.0841761562624235
0.0841987740396754
0.0825776100899541
0.0854868160359845
0.0837374305444537
0.0845830008822152
0.0816006298427332
0.0849746536045423
0.0824942812965812
0.0841989490653946
0.0788450951047932
0.0829861317405427
0.078956587411977
0.0812115393885069
0.0817299471619686
0.0806483191094259
0.0780028363257487
0.08102377358755
0.0792177956828663
0.0814534640693098
0.0776593301968605
0.0789233473207386
0.0766580673494441
0.078315239139359
0.0768762997615901
0.0774769825842081
0.0771550458981728
0.0766375981127479
0.073885183797304
0.0775128921960871
0.0741819344486704
0.0783535461093292
0.075997422666358
0.0774560249952463
0.0749087522169968
0.0769521996528797
0.072021996349486
0.0737230279390871
0.0762733356511764
0.0800834159652339
0.0756108195438463
0.0744991475494523
0.0752305029913679
0.0793852906068792
0.0749884119587236
0.0777978638247323
0.072364849005616
0.0760042702410368
0.0770542181903046
0.0748654392806733
0.0714824766442032
0.0788741782455989
0.0710601000473452
0.0693076253591644
0.0652298840205253
0.0725033968638311
0.0723419301882848
0.0735638081448832
0.0624258834101046
0.0741196787518003
0.0727628376421956
0.0676746345690314
0.0711567182224128
0.0722833912676451
0.0607482602399859
0.0783692940828045
0.067564391467595
0.0647029187581736
0.0676565617476882
0.0694695057524265
0.0692633495612535
0.0686442830650517
0.0589945095597166
0.0679195108220106
0.0630441086697152
0.0697102788899373
0.0641084740854054
0.069459975161962
0.0611157874468557
0.0641761065825671
0.0654954823706634
0.0602653087396113
0.0658205539313998
0.0593221210915984
0.0692810956975469
0.0628194727428701
0.0702174785838578
0.0630960936735139
0.0748626348579809
0.0601753654514745
0.0724717675992118
0.04994534622632
0.0686302983179489
0.0530616245685095
0.0828621510090118
0.0527106590837242
0.0920464822753575
0.0411202814092724
0.0831857087733837
0.040400516894936
0.0993321192250603
0.0360620199481478
0.0910700673321988
0.0305757906990463
0.103439641871634
0.0347591012693852
0.0906786023693412
0.0361949091046189
0.0956409938553284
0.0414865221647635
0.0785183824915605
0.0549025673468005
0.070397758449173
0.0631058809053458
0.0606664011458962
0.0705682185319367
0.054486491765722
0.0754833057140843
0.0571043717986205
0.0723429825143592
0.056385989288512
0.0665527098683031
0.0620351825963617
0.0621432404569781
0.0641052250526834
0.0577004748538434
0.0665049052125129
0.0609623999453881
0.0639465327144021
0.0621800060014405
0.0604414701315486
0.0620286989733592
0.0606612941361277
0.0640586591534064
0.0581275390678884
0.0628062947326807
0.0623349848270507
0.0648003220428857
0.0625609044414065
0.0624494871874335
0.0630968530406914
0.0616556242766307
0.0613266358351767
0.0620423161108627
0.0611865904352475
0.0628707300659107
0.0623675609470803
0.0637428519316637
0.0622792798929228
0.060682089892812
0.0612165664968072
0.0614889804689732
0.0594075489493107
0.0597078164239572
0.0614306308125288
0.0598464375824178
0.0605864565405416
0.0620466083271168
0.0616767135339546
0.0630124461407372
0.061267519157562
0.0620360790004005
0.0601347991215091
0.0629037825554995
0.061010670424531
0.0626468277033012
0.0593333382422556
0.0618753591259106
0.0591053860363811
0.0614105055846239
0.0604091558113203
0.060829868464627
0.0598625820905899
0.0616867270610477
0.0614368601238681
0.0609459262307626
0.0602432597565852
0.0610925074900704
0.0621654162825845
0.0633464498851022
0.0596562243527393
0.0612282321255189
0.0584083229208912
0.0613982388484685
0.0593983739522958
0.0613025773741655
0.0628125662766594
0.0600906991980689
0.0576417121669251
0.062091794636201
0.0592791767836244
0.0607026414097115
0.0586321209418119
0.0603798477560519
0.0587284906155765
0.063432194318271
0.05911634209182
0.0582359836553293
0.0577127303540676
0.0606198018855464
0.0589061964842677
0.0610277420969611
0.0593136051837502
0.0611709881190772
0.0585378453609085
0.0615214930722458
0.0595775460535784
0.0605967589371104
0.0603049212275013
0.0617806678939352
0.0601353866261316
0.0612880093783151
0.061174651843323
0.0613720299760313
0.0603793636184326
0.0617822712054428
0.0602246437251297
0.0635124121932758
0.0604891219674131
0.0593143469859589
0.0600971999510358
0.0635843517381471
0.061411040791896
0.062638155817776
0.0597782362168208
0.0626638288356887
0.0606941612799786
0.0614543014783895
0.0617444004190432
0.0628052437256653
0.0606417331695955
0.0640561841596335
0.0593271282266803
0.0622516418685212
0.060101911273684
0.0638312338009866
0.0610892199470199
0.0645191289145547
0.0602564266978721
0.063817911092945
0.0596075919116429
0.0619265686166516
0.0603301353692099
0.0637338250353453
0.0610682161696281
0.0622913635229557
0.060883524689034
0.0645180618623847
0.0623706198278872
0.0622812529096551
0.060395165803648
0.0644165554602856
0.0610703345764909
0.062103441128616
0.0618331440056124
0.0640831682210274
0.0618525332154867
0.0642220621176051
0.0601847916384636
0.063990761014534
0.0621602259545411
0.063181989749651
0.0630311690601562
0.0639944692104063
0.061918654068846
0.0658753140788688
0.0626228962019366
0.0667125375621846
0.0627564764188448
0.0657279464904314
0.0601197976138622
0.063730805736536
0.0624311805102799
0.0652954358679025
0.0630486864121615
0.0648844716145599
0.0642595782152114
0.0638978271842303
0.0639024841345622
0.0671497302698815
0.0621477046404667
0.0631765741164203
0.0633757544916179
0.063726025562818
0.0625704784300981
0.0669472338692904
0.0645861068266195
0.0662539496667205
0.0632885901419181
0.0666104067745203
0.0633801327902521
0.0671272291429184
0.0654641033516207
0.0650137487289286
0.0635911322484548
0.0637761677708306
0.062504466551068
0.0648425538703183
0.0627996771413061
0.0661461694763954
0.0623717151189728
0.0643776369115934
0.062586184878448
0.065452261062814
0.0614935839165052
0.0626737098602088
0.059669289335645
0.0632660974140589
0.0622489797974495
0.0642592217677658
0.0635794067996165
0.0631864363571941
0.0618327646528481
0.0635595258263025
0.0605322328669213
0.0632010384418484
0.0617871311661007
0.0607472559451391
0.0602524340226059
0.0592096430489609
0.0609346739496684
0.0651074463359544
0.0612260781289677
0.062352759972629
0.0601376090652498
0.0637884291822842
0.0589597928151895
0.0625278843313176
0.0591767429010793
0.0618470667743667
0.0592909633983909
0.0597909484110688
0.0614817886259088
0.0607348034326715
0.058526459657691
0.0626038394650522
0.0591248787108164
0.0608173796292011
0.0586578300268949
0.0615845676763267
0.0595604945976157
0.0616411544029413
0.0569891543023728
0.0590487286333126
0.0558618655620374
0.0598645513602507
0.0565423658797651
0.057713871267988
0.0569414472337622
0.0598468557892167
0.0581038486824469
0.0600678563811975
0.0609301751324318
0.0621839523585913
0.0577273280742805
0.062357250927379
0.0581465714078377
0.0587412777746568
0.0561418359631659
0.0567283990555519
0.0578095141884308
0.0597162490581284
0.055882664824525
0.0614325056869891
0.0572377198160927
0.0588064287455417
0.0563724470459451
0.0573658694748898
0.0567708629833106
0.0578544624727505
0.0575849987827954
0.0608257789960157
0.0555702854106672
0.0564592503573853
0.0571802284730111
0.0591494068062251
0.0567881104235069
0.0590958303976078
0.0557895229546932
0.0597120924492901
0.0564428372569103
0.0580565213502026
0.0590182926749009
0.0587770183400588
0.0582484216270485
0.0564695866807823
0.056719728525808
0.0566772738942441
0.0580073636303436
0.0574945922646797
0.0582345176793121
0.0572826491258904
0.0547944714184943
0.0556524755047674
0.0559608778076284
0.0573585883111181
0.0538396572169912
0.0574608984208745
0.0555732043513072
0.0570376949956628
0.0555521097837239
0.0542896776497628
0.0559805666222123
0.0546494364822804
0.054524034389277
0.0592853753844688
0.0547014623952344
0.0592400233400293
0.0547823217367252
0.0582069536680135
0.0546871868389137
0.0564063207836515
0.054057455723053
0.0579996490028958
0.0516328273791829
0.053022326076347
0.0526013788535459
0.0523800352875522
0.0525789602036925
0.0554093033723841
0.0531987996196071
0.0554321552259705
0.0514042290414815
0.0534316125554208
0.0517813323346192
0.0544616073403095
0.0502603013301143
0.0518664151647391
0.0499219681831725
0.0560163825963575
0.0498747259323528
0.0551584789010714
0.0486786330298995
0.0518366734536256
0.0505278434472654
0.0525673652501834
0.047835566197653
0.0512284237028007
0.0478855234934372
0.0510909078445912
0.0495203316255886
0.0506871978586155
0.0494220886428571
0.0534078595551765
0.0463586276192554
0.0493036392465767
0.047100624393078
0.0486080095793447
0.0472712304420843
0.0497583034057335
0.0455711345157649
0.0483715414772229
0.0480703682922131
0.0489336816307487
0.0483195200942636
0.0480092128788981
0.0484434102304114
0.0486723420432856
0.0508666291170492
0.0477494685275395
0.0494476763225061
0.0488692740270817
0.048549625503713
0.0444164830285199
0.0468986161539366
0.0468169943296769
0.0451831080713777
0.0467811811633867
0.0486683027778019
0.048319464988758
0.0470182583830598
0.0463609232384063
0.0456776206679566
0.0451133805037639
0.0439804523791111
0.0477514600521179
0.0460258619979883
0.04732710460467
0.0449895494803302
0.0466494563932855
0.0456238060145465
0.0460988267412881
0.0482578457846136
0.044607488972513
0.0499576934484627
0.0469456715497336
0.0443725245141246
0.0454673605807006
0.0422311071203151
0.046315428290777
0.0439501474274747
0.0476632259330164
0.0455495241872729
0.0462917971928921
0.0431195541095854
0.0453833011851248
0.0426120598289657
0.0460766117321789
0.0435229683951065
0.0466445562266901
0.0468560641655324
0.0437505226739741
0.042077692916006
0.0467004276544403
0.0429646561806101
0.045054105236729
0.0428799223779874
0.0467970230414986
0.042415703696007
0.0473673489703832
0.0449819202101259
0.0574144287404766
0.0400002753154658
0.0487141036608873
0.0428687843823433
0.0445649436992021
0.0435258542160556
0.0456688719253821
0.0409305930941619
0.0437636573432806
0.0409841871116259
0.0455128274670385
0.040027180135469
0.0443837286914622
0.0433192520679822
0.0450559850492605
0.0402442649199606
0.0446627186110072
0.0423017441373358
0.0447855324639937
0.0415248375871019
0.0452192072881474
0.0477277188433975
0.0492056762161263
0.0392737504186274
0.0480791726832487
0.0385283312442651
0.0551791386567811
0.0483201346901564
0.0427346304439162
0.0457818721078195
0.0415453833785915
0.0459266423961707
0.0404761946042827
0.0447613704794714
0.0411510685622583
0.0502333540181762
0.0406545849860129
0.0448711615778158
0.0410399053474528
0.0429772079043794
0.0440375805268654
0.0440650602874151
0.0432244050866579
0.0441020486734472
0.0425647641378329
0.0406889372760754
0.0433721605344271
0.0425751522415576
0.0426076779438864
0.0422782678605995
0.0449532364004471
0.0478822957361018
0.042468561135387
0.0443777024645109
0.0401578081086256
0.0470853256392628
0.046347305094583
0.0560214399051195
0.0359402778016473
0.0443548503975016
0.0447446958050223
0.0438579665757619
0.0432718241720654
0.0425894395548457
0.0431560893461621
0.0432456426716827
0.045063584105097
0.0433833166139885
0.0435936278129066
0.0415220260819829
0.0450838536871622
0.041123740497217
0.0426618834901208
0.0402811073664332
0.0453117744465682
0.0401240929635883
0.044158646555352
0.0443007092623892
0.0521783098283914
0.0562425097510499
0.0416329592779647
0.0499667972601903
0.0410003719313398
0.0453422955739523
0.0414571673483603
0.0478837056315128
0.0429697401660167
0.0480719273060575
0.0419816012062892
0.044348224524239
0.0409262383262147
0.0465667922466997
0.0402593495151712
0.0458929726407625
0.0391682478875197
0.0452578002178105
0.0429465579863443
0.0462914051458252
0.0403904167840597
0.0424541662229823
0.043374976774353
0.0473960822194992
0.0446021747006657
0.0436562548322425
0.0527857692807763
0.0436535010588904
0.0620827255506328
0.0384677513198048
0.0543622372663789
0.0374328024338026
0.0502475531442919
0.0446709527691179
0.0466940292412118
0.0469653607831822
0.046655817804275
0.0415794544510217
0.0468121864832734
0.0428583311229598
0.0466549943389341
0.0452264766072582
0.0526236393189762
0.0577143404030882
0.0514844326135877
0.0420494179190808
0.0534570146930676
0.0409369305289205
0.0615883800403291
0.0459551849136802
0.0465324624550202
0.0491172875173934
0.0443762743700856
0.0493108572629901
0.0472901734675674
0.0491201962908254
0.0495939655465724
0.0474149387130856
0.0436231796958871
0.0494288946893357
0.0446987320347837
0.0460467752899899
0.0509318467075751
0.0487794706322545
0.0520618265400524
0.0482051586270931
0.0488827094206642
0.0538316327764844
0.0462739138981506
0.0500252579618956
0.0472908861952521
0.0519808189083698
0.0502574617024798
0.0562899779905596
0.0501191260461707
0.053127609575342
0.0529876793960084
0.0487447409287074
0.0546614643067596
0.0581477209413854
0.0448798616256049
0.063436426407888
0.0410659745538883
0.0755673037613423
0.0461003410088029
0.0624946506550301
0.0485808575642553
0.0514870939910378
0.0473481687221584
0.0538826502503644
0.0527766378345074
0.0495332633041005
0.0580197341837842
0.0420077985457111
0.0645989969935502
0.0436746792918162
0.0657172354369017
0.0477220748537995
0.0581984893642797
0.0517989894803699
0.0590628349223553
0.046359432718661
0.066601272492135
0.0529957158596875
0.0786114435793956
0.0603628009697193
0.0508449054356111
0.065590071047791
0.0595537189144347
0.0610988330985514
0.0605453840135921
0.0512365997985007
0.0651553055576977
0.0529166060604369
0.0667181817361643
0.0577350942492924
0.0737979173586326
0.059761584929537
0.056369297684777
0.0656154169031008
0.0651905469864682
0.0688286696327545
0.0730149605707006
0.0597208171939442
0.0673868539113617
0.0614242256733034
0.0800438854900425
0.0512353354556687
0.0987127732331185
0.0546578221689599
0.0956340356699768
0.0656680390407625
0.0845824176541388
0.0668906049851479
0.0831318923576928
0.0720284970373746
0.0851740933137259
0.0701975296803385
0.0858658425632984
0.0701920788815636
0.0923038020863106
0.0735184180337257
0.0791707197828812
0.079634395329644
0.0869022544369397
0.0931739544963563
0.104818912463975
0.0789281166235766
0.0891576975607546
0.0893967870506097
0.0924531682991025
0.0888733953915655
0.0825691085723877
0.0905766761444949
0.0871219886928339
0.0888240593777647
0.0978159417188063
0.0906487684826705
0.0971563153933348
0.0894647026592277
0.0993624792791737
0.0904610800271434
0.135560206717239
0.103914181373209
0.114283586959561
0.111348188691606
0.0972801941103462
0.112545615010561
0.0986752167082317
0.108481730677282
0.104443271644842
0.108003112801382
0.106476978076916
0.105993657496873
0.118741667854154
0.106140133915922
0.129833599384954
0.111481924119391
0.13227808623865
0.115361688200026
0.131224507521195
0.144738239977284
0.118711381144768
0.159822729868214
0.113581436933105
0.168075600564691
0.139434547117829
0.172026685136928
0.156358957278908
0.159701322451424
0.160197254558998
0.170138709889025
0.167366458650255
0.182445473742978
0.18589408529333
0.19159273141778
0.190433674283852
0.208573617382788
0.201505675438788
0.254580755557416
0.218884603791338
0.224801467072844
0.223250697541688
0.238658158231596
0.230465276404475
0.2439911771903
0.234170424879087
0.266307721488074
0.246813476372077
0.280959140339751
0.265443253659761
0.278072945423521
0.287530404910468
0.279235298185059
0.320327348370932
0.281474289106785
0.33584700437301
0.293565254456164
0.327984677319394
0.311825021972713
0.334750436098481
0.339378644381552
0.339331633839833
0.351767613345576
0.350806872489572
0.35742125139874
0.360352485075777
0.365885057303181
0.369347502140219
0.376394425183496
0.38648856595064
0.386965945156998
0.4476810095429
0.349198344552191
0.412442941058306
0.368502389928675
0.392866174797691
0.390781546276721
0.408487875723462
0.423468731052192
0.400240930774037
0.412847746636789
0.389052172464375
0.390791634645705
0.390732687275053
0.390553746473206
0.401526023901803
0.384401911640362
0.412307055345271
0.377466907211577
0.423269890997107
0.370884948484964
0.430096117709454
0.390144324872997
0.398709257536356
0.391614057645322
0.393899394522306
0.386873528415845
0.403000390787299
0.395983634893634
0.402090433682001
0.396498523111517
0.385938847825671
0.391420236478729
0.377223197604456
0.382674087170678
0.363494557195953
0.361238806384262
0.370141926351431
0.349933036294377
0.371020875415026
0.358152596858906
0.374110213125071
0.361679639005746
0.348724266864057
0.354905615003092
0.348590128327667
0.348359852986015
0.342488432639422
0.345830684338758
0.339936128599914
0.350603388448976
0.342921162729146
0.344769773804659
0.339553738395299
0.34567939089916
0.339516554488689
0.350929753176165
0.343441630733241
0.341457220218499
0.341876773175304
0.349075097545594
0.343836338939947
0.35397868045244
0.344512998336894
0.345835749959217
0.352104850150187
0.353251689228713
0.348728331358236
0.355724865816614
0.349822339891551
0.354217040131411
0.350500762300746
0.355758977347952
0.347514109959801
0.351162387596612
0.350723808792225
0.349631180501957
0.346445964161573
0.350109813331743
0.343532548093388
0.349758988689974
0.350919338455451
0.338649505559796
0.370207379497057
0.326717949678866
0.364863544997967
0.333683671324465
0.342917447077053
0.337081894377387
0.326143396282422
0.344427352705413
0.328700912035425
0.342922383441227
0.32110298694836
0.316459298029878
0.323734932363404
0.324844304192259
0.320629841368082
0.321612110515696
0.30348489704462
0.334477388104862
0.29699056603109
0.371866016292125
0.319800253264886
0.345300999896213
0.30095657661075
0.309242021732587
0.32376067211478
0.308933804124738
0.311790583009964
0.287838905834131
0.319636532309687
0.290201090559256
0.307912441065111
0.295915934951435
0.295472150576532
0.299032748044394
0.299463848585179
0.299366784745891
0.303840218520108
0.309525703655515
0.302213477337357
0.303837211544289
0.299578050370115
0.311229312914705
0.282067058071326
0.284795978319294
0.268988664785402
0.281712650646888
0.294017154046536
0.259471185685987
0.282067055722981
0.255398734875106
0.268158490716344
0.254376252700889
0.266499236798225
0.264523318092259
0.256362527045771
0.270476511896621
0.238810637482797
0.267525394689262
0.233308381301822
0.274454714897633
0.236576215497075
0.266339466554643
0.233176028707295
0.249988891435584
0.248979770316348
0.250944644893551
0.249263405322932
0.2265389602796
0.233373944283414
0.239247746586689
0.219575649662304
0.2349490960045
0.221263569856624
0.238219199448395
0.244609184614914
0.233879291090181
0.243072232375365
0.217419919676105
0.214717732948939
0.207208876200671
0.202090571371581
0.218553489687243
0.196173112829739
0.225375983060998
0.189031211422998
0.219961857924324
0.223010179350524
0.202050662785048
0.21984322061962
0.21082777251523
0.20439486474523
0.21711181826815
0.215455882943409
0.234805619572338
0.221929737758543
0.227327626387679
0.223774590333419
0.227314939549281
0.233222853279123
0.224818295932007
0.232893667924177
0.227652781487031
0.246120129939876
0.238207707663927
0.247681718970944
0.248560747487351
0.248183614182772
0.262691105952164
0.27283134453941
0.261959300819606
0.290681763868599
0.264405074018018
0.325145443211492
0.28211571603314
0.304800687795443
0.297101979519345
0.302364116060952
0.308861084439989
0.308632310451754
0.322489097999746
0.337629471319411
0.322766758180951
0.336781210917348
0.318917397207185
0.344600986899178
0.328912056396021
0.356461768624336
0.341786917369456
0.388781419604273
0.352793612540487
0.366575426829417
0.364101522861855
0.359379968772849
0.36733733232848
0.358132176907327
0.370513748971114
0.365999557681333
0.364161961777267
0.38046734082852
0.375340256389362
0.378727835977529
0.369904084077016
0.380785410773366
0.379526604887719
0.381606040382338
0.383611903990847
0.380759216289393
0.382284205912716
0.383748096745327
0.392185406553719
0.424136349602034
0.395668198664416
0.41643720895225
0.40076845152383
0.410445781074507
0.410146479765295
0.406140369095865
0.421629478300051
0.420559410025483
0.428522359183906
0.425208699816044
0.423203866774096
0.429311333906808
0.426102537848425
0.44832705079383
0.42945717496133
0.45406492870826
0.428971053987272
0.45702071999988
0.458406518410307
0.459803748731987
0.473852374924811
0.450902763002378
0.461863325634214
0.450148521758838
0.466283428224403
0.461197731973947
0.474231804774773
0.458875190592714
0.466186497945785
0.462465167701136
0.472846861036116
0.463669081980191
0.467439860583931
0.479674045156026
0.467991849651137
0.47454763857479
0.462033957006933
0.459436796870436
0.460512903212624
0.473444108037576
0.471910519457362
0.469959674690982
0.468644914528703
0.456014040355207
0.471803844944104
0.472523597941054
0.463797174230136
0.464214279176208
0.460027506832595
0.459038390696823
0.459696742437485
0.459165882432496
0.473769411050735
0.467654800391114
0.474821685410612
0.466918033628088
0.475246821368784
0.466238871855666
0.476627509934359
0.468484493202202
0.480174985297798
0.467198873432109
0.480073771232155
0.47263241422952
0.485903514649546
0.481163358963562
0.485285742921381
0.484200408221264
0.478913124997753
0.475037190075924
0.474612006810684
0.474233112740289
0.479006035896021
0.465379635358799
0.472519003503983
0.4590515949397
0.466106411533852
0.449944692065572
0.475268381131315
0.446612227959598
0.461340334034107
0.438467490252158
0.447132255212452
0.437303590935533
0.437391957500103
0.43791544550037
0.430893237711801
0.428157082770148
0.426297828892192
0.424978917159122
0.421391132757214
0.422668628526893
0.42279693333853
0.417016177762722
0.421845779095514
0.414973935989408
0.417919508510563
0.412600262225831
0.416286048959088
0.406614991106524
0.415214047025149
0.405590470831514
0.414632106771587
0.41727200293496
0.419695169977732
0.415031665769261
0.414482631812379
0.417002396642072
0.407921330296856
0.414237866925014
0.408474651456526
0.408681211318312
0.402785120222631
0.410514294562795
0.407277461272887
0.410857321925
0.407816126188784
0.408703956682695
0.40687386126641
0.409148506802634
0.406529436947413
0.40521565945008
0.404020612755126
0.405378484849382
0.406963478868799
0.409461211698379
0.406565488927894
0.40917899151914
0.409380925082767
0.401089387568409
0.410521219059914
0.402569785520422
0.408443976275581
0.41410436661277
0.405532364219572
0.404688127594792
0.405034369693971
0.408062006413751
0.403831383024196
0.406067183677674
0.406373408413391
0.399682772472825
0.402079046285696
0.399016250017165
0.398878237570934
0.394834058028416
0.392818460368231
0.389820842789134
0.383911344429011
0.383560421237465
0.381859278613169
0.378466532053106
0.372463321856562
0.36800831495095
0.367625907081716
0.363319727433209
0.365001704544835
0.363123794353987
0.358022270621463
0.356789107351341
0.358454488303131
0.354108573231423
0.355014223373109
0.353785305657739
0.351531049811213
0.349456686821127
0.350467759546065
0.351320758288573
0.351971052088227
0.350253438748272
0.349336007353934
0.34869158797754
0.352672110559682
0.353615317753635
0.358801275654948
0.352391885165577
0.357995976683101
0.353905962129569
0.359914862766056
0.35849428694257
0.358320499203396
0.363408726719083
0.364555003267582
0.364807323448105
0.364013995136392
0.368107787641995
0.367258486085074
0.365787760508224
0.369740210018124
0.368410385235544
0.369503198008879
0.368290279153175
0.369801582333914
0.370695840024305
0.371063669445357
0.370010368203446
0.367381892186364
0.370582114870693
0.371803914375418
0.370366637703676
0.365905058921866
0.366463024556611
0.364207203710637
0.365191021470017
0.366361787597698
0.362676433128379
0.362941898985756
0.360757212647016
0.358468055743923
0.35620903903447
0.353726524772823
0.355116344052851
0.355402406362346
0.351946881537525
0.354889590023947
0.351979226444814
0.353070021027692
0.351249657962425
0.350369107030487
0.347162678740481
0.346391305648125
0.343664244383504
0.342626179999026
0.342851743835132
0.341439926625372
0.340739298979757
0.342113718271569
0.337975917264083
0.336203301701866
0.334816241645695
0.336875264474148
0.332691324057988
0.333027542337385
0.328684260856529
0.326094587816819
0.324176721128426
0.324048926722543
0.322114073843109
0.317264470144393
0.316791282957162
0.314920533492054
0.313397496072682
0.311491770244121
0.308288192728236
0.304415177985233
0.301845333433722
0.300045299807526
0.299343166663332
0.299909225188061
0.297287754240617
0.296709994816405
0.298218934464194
0.298511071362247
0.295330618389371
0.294636272840138
0.292405374770265
0.292118456394107
0.28812038826072
0.285779245441247
0.283916542562425
0.28301181790755
0.278984341590079
0.275970686464663
0.274630282899819
0.268869985555803
0.265559281248585
0.262000860438664
0.260759295155049
0.260732267460085
0.259826437095462
0.261707766616837
0.263649169193792
0.266743820222285
0.270959869230914
0.278431817792474
0.28160590673201
0.28791273160234
0.298877149949385
0.304973717224053
0.316726883155106
0.329785175818862
0.340733540282899
0.353554347470231
0.364351663097327
0.379514469045512
0.389701194178648
0.403677754781081
0.41035956346927
0.42945763092718
0.43800674557326
0.450394776219099
0.463321105568306
0.476130110144775
0.483780662448565
0.498960584186993
0.500327996170345
0.51811323246946
0.524768602298299
0.532698613696545
0.536911880576802
0.547532324495725
0.549978690039372
0.560543612359377
0.566076049659953
0.568924386250901
0.573842697348357
0.578093860001304
0.58181596362439
0.587905353994748
0.584667762193988
0.590999979359593
0.588937656863797
0.590380463727412
0.583876766623399
0.59008463404469
0.589476904806675
0.592361639886447
0.594589840580282
0.598068063022268
0.598482957085867
0.600846453351875
0.603990372174559
0.606751007949101
0.603399752915635
0.614192405006615
0.617596308041666
0.621412889359395
0.625337251867123
0.634100612885302
0.634336192024848
0.643109751366272
0.649770303563883
0.660597477128716
0.666283391455926
0.677871932718599
0.682089093148919
0.695396631607495
0.70211845829201
0.710242943019089
0.715301326182179
0.731344982563828
0.728805022074094
0.742948523526114
0.741030837009349
0.747574028135331
0.748627686254023
0.754445244236923
0.755985177124177
0.748540339950067
0.739822155025281
0.746787713432822
0.74110144773153
0.739040667105267
0.732353956952928
0.741683549778407
0.738692172300411
0.741229247642168
0.749759897379383
0.761591206318812
0.769496393092721
0.777190301359878
0.783252921966761
0.793793562612877
0.810870262862008
0.817166907169407
0.824164510935125
0.84357992991781
0.856784424749859
0.868561103762756
0.875974089976031
0.888109911145198
0.911231470501998
0.903897391881272
0.929273069534944
0.935540474348968
0.956449770593975
0.952518710484005
0.977472799349964
0.995056653788469
1.00317495416446
1.03349196012291
1.05552092562118
1.0556952935088
1.0848310202545
1.0914299978893
1.11203206455518
1.12009261679672
1.14901627987957
1.16580096807512
1.16590730274597
1.18617005119943
1.1868391596134
1.20297774599059
1.21849672492688
1.19580343176017
1.22900701610428
1.25530058066959
1.22864526150885
1.23379168147182
1.22917098575254
1.22985170378703
1.21836512361919
1.21559488293187
1.22598604632042
1.20064635307379
1.19752300455867
1.20783522275641
1.21095207090834
1.22412339295825
1.21514439081154
1.22554591188938
1.24555331927003
1.24501125005379
1.25624266685627
1.26570701414116
1.25963525675117
1.29332268307289
1.28416209950188
1.30314570843965
1.31922821018304
1.30395676324498
1.35799853395683
1.32320201104061
1.34663919663791
1.37022388873023
1.35186213134319
1.37130513457485
1.38915235815421
1.41587697069639
1.37439311851555
1.42226699240619
1.38581230234671
1.42251329581597
1.45656306501749
1.40702691928793
1.43654265703682
1.4111470038299
1.43780991525882
1.43076041002435
1.42353876515877
1.43426741599313
1.43653256763277
1.45930994928136
1.42860244598796
1.45407951274247
1.50653276675257
1.44395166415949
1.51062504028671
1.47952229910982
1.44402989226647
1.40986426611143
1.4432585656708
1.42582676718318
1.42021114699899
1.38011102172472
1.33664019274669
1.34662838941496
1.30004136443177
1.25552503184544
1.2147508724823
1.22075312513715
1.19226736268432
1.129385187946
1.08431556863806
1.04724704387413
1.03512209716766
1.01896084194422
1.00948025334184
0.981705263161187
0.972903024873372
0.967632819827284
0.964946413776593
0.951532487278601
0.944939581040159
0.919468390783
0.93840265156432
0.919618534769016
0.9246803440654
0.901814972512084
0.884210664347786
0.882420919816269
0.882604519445821
0.857410903552794
0.847402332579042
0.821556948686916
0.800857269844441
0.785309364064518
0.775459358884245
0.747519592489391
0.72800067649838
0.710605247070903
0.679198851382891
0.654036910766614
0.628052024534538
0.597083783262075
0.575566962841459
0.548566371509226
0.522775329252335
0.497077516163438
0.476530895649451
0.458914533416451
0.438941316947399
0.427485778580049
0.409350484450167
0.393888554459284
0.377173350009173
0.370743407025908
0.359705325553754
0.351543835162899
0.343448731247933
0.332077758954221
0.330684533951496
0.324543770828107
0.321334926916481
0.319370447289932
0.318742115596108
0.31377267511859
0.311265949824199
0.3113344689888
0.311335935673202
0.313091090902287
0.314869538674234
0.321086692091878
0.316674742691087
0.322169557907787
0.320469266875301
0.318665470612796
0.315863481252614
0.319464926832436
0.314615003274209
0.314956686569129
0.314259955675848
0.309129285148095
0.308734564548606
0.30470278214332
0.301598065689559
0.299113375959897
0.298087640163112
0.295164769538164
0.291112000663851
0.289807537408789
0.294139145785754
0.294538984447735
0.297825417009869
0.295463206732539
0.302454496650595
0.303414237489082
0.298861002850747
0.310218010161365
0.306555020456476
0.309842943640544
0.309007134287912
0.314074868635791
0.30875723730343
0.313976380707259
0.320633996121424
0.320050868390395
0.321689312029859
0.322627876522298
0.326374309360715
0.31671385909591
0.319567238833662
0.323318673415693
0.324509859662977
0.326630828659588
0.331128093271171
0.329486433756434
0.326063430838308
0.330905483869748
0.336710752555564
0.333503185401061
0.342776186746934
0.346058056571939
0.349930875260723
0.357455833853145
0.36251616956437
0.372885888007359
0.388083252593133
0.397704230222121
0.406094459960571
0.418956120400936
0.423530727827291
0.425051185882937
0.430145713537328
0.434541244717719
0.434437763206831
0.420959284309567
0.424425013938077
0.413095593533148
0.408717854478303
0.40080198113975
0.399305370383624
0.381483113622112
0.380139798484917
0.38416589475075
0.37418419229169
0.380144423596
0.379566241844818
0.376446673550942
0.378069565143569
0.388312246384761
0.383206592876941
0.379219160493904
0.383989649655414
0.375642164531829
0.380099490947046
0.37162172917922
0.368127120112268
0.366795934921509
0.364896617873897
0.354488759342402
0.344164304760716
0.351206088282261
0.357400448234457
0.346636160069632
0.346789806824162
0.34218884986853
0.340021910473847
0.336216243727293
0.336869669028994
0.329694864071725
0.331618284123757
0.326718759721629
0.331263785756888
0.325834464284347
0.329332438784334
0.326061077608547
0.31886401011975
0.316044643865609
0.316630050500109
0.313399943076052
0.324165458520342
0.31662660468489
0.3177127507995
0.313341869331433
0.305976995234178
0.312911694919588
0.310767342768035
0.301643383036768
0.305094717355064
0.292784358013348
0.291361102281424
0.294572525901046
0.293618914243637
0.277452482618388
0.294947101961421
0.286591301663076
0.291477626378768
0.300294309241591
0.281720186725512
0.276211191529001
0.285214389680065
0.290313214969459
0.283037565574355
0.287375805430791
0.285655992896259
0.273595556086127
0.295468732665454
0.284325525767285
0.282982204303306
0.286963028849733
0.284313245043452
0.282914878662605
0.298227532174469
0.290493552196069
0.286565372372366
0.292156084613202
0.29408630065175
0.29260877373794
0.299488289390049
0.303493459453808
0.307950137622056
0.307859356704634
0.310709663584428
0.311831866976498
0.313710850761711
0.314504670091025
0.315726267015619
0.312243059005164
0.324316774893644
0.347474003235934
0.328232394442574
0.321650410399192
0.345324676939097
0.338229949702019
0.34705061458785
0.363440500640463
0.404437085164182
0.400272618242226
0.400097246430328
0.390811548187911
0.417214231535642
0.426567584554863
0.456567036057446
0.460349297191433
0.467458742965289
0.456980147642892
0.474316820370683
0.481089409714925
0.499026794641758
0.505597832605513
0.503819987537392
0.502122707109328
0.50651034256609
0.508529718813856
0.517558600473735
0.50177527713585
0.501934233155284
0.505869211359393
0.495534505199208
0.472662518345484
0.47976652799682
0.485382884158725
0.478760988963998
0.461776428547243
0.470407454221956
0.475915074062651
0.500066222522506
0.491900429471453
0.492043226000611
0.459022980047385
0.459636618396938
0.460336740246163
0.455205559183597
0.447841873132137
0.466019962625359
0.448043314609458
0.463123211908532
0.443254994517028
0.434701993652443
0.439762099128933
0.438577064230472
0.432986728111106
0.422497997376045
0.41638937951332
0.437991534438238
0.419313944748178
0.416440881059219
0.421537492333889
0.42897838717343
0.422260366136508
0.445260567579316
0.438782811150137
0.431456378255551
0.449527889442097
0.472807836116842
0.455205524641786
0.454472853898559
0.431749439577886
0.432548955329844
0.444955832485346
0.452764691259625
0.491007332746103
0.459315116638015
0.416492069676782
0.451544639577852
0.460404088485137
0.467382737255205
0.44344039186423
0.478418684324922
0.455958967644852
0.469782217330187
0.453765356632287
0.455951249515812
0.450209287979983
0.498394283368524
0.515160127898457
0.532270611469783
0.481384917389469
0.511161740446204
0.468309400975933
0.483102182009105
0.506035777397793
0.521623127426474
0.59757998176151
0.580186098901856
0.522705467487322
0.566559451703345
0.565632052184596
0.566167911675232
0.547432209798294
0.585902161496798
0.601555888965778
0.60726524799695
0.638708280529674
0.585701304785029
0.615363754008546
0.705812625090251
0.629172595873545
0.628920667986291
0.637104330771176
0.588446245046738
0.548301578975484
0.64353229011615
0.567934436044124
0.528940224338096
0.578813775434682
0.659792523848273
0.531270042010787
0.57667293412274
0.516126273435203
0.583184727825719
0.60755447729427
0.593192130918895
0.563679331348747
0.623780237547772
0.619520132839066
0.626900226357766
0.492397680857489
0.589884848887173
0.664857411633546
0.591496378879585
0.497880422752722
0.659278283303415
0.659606079227289
0.643177754509494
0.638157300696489
0.626376190259524
0.482518338188184
0.551315895957142
0.507273011316059
0.589972300175339
0.721573842126989
0.597890070183764
0.588042210252297
1.25504259529121
0.590161636746836
0.661344424187689
0.707678211116463
0.506668710916099
0.442072006967246
0.800788483311775
0.618398185273984
0.590055959539175
0.66452063472051
0.666159786821548
0.783117735305471
0.591450686339637
0.525069093327024
1.0105950736929
0.814271832147497
0.959399369338091
0.799346896603901
0.495430760035574
0.431205196153501
