3596
4000.36533379555
650.420452594757
1
2
2
0.0224402916685314
0.0191847664749591
0.0151696492883947
0.0230120751433502
0.0197308891138159
0.0193638179923376
0.0123682082703676
0.0167285250330823
0.0248544694439959
0.021099696154985
0.0178809291713649
0.0197043044127476
0.0153488639391079
0.0198227037570428
0.0278743411364172
0.0202177889804005
0.016878946688737
0.0185170829868216
0.0189496198195839
0.0116176258154333
0.0277468701369007
0.0141260656311768
0.0170710367220475
0.0169127344915314
0.0147328971528605
0.0209369720376511
0.0199607918646383
0.0104129233371072
0.019969923838415
0.017500344235606
0.0174689890538352
0.0161059281161136
0.0230282862892864
0.0178213163386404
0.0184142964337536
0.0149243312024175
0.00774252533274572
0.0207246134493471
0.020400996960211
0.0201954746271502
0.0143518769646181
0.0221655387313129
0.0202756303159845
0.0281018789620761
0.0186899844089086
0.0207160733904625
0.017387874626319
0.0208651308573392
0.0153057425964125
0.0156329194700273
0.0151899774854487
0.0171208971640309
0.0185716615821125
0.0170841057367601
0.0260510024585045
0.0124712740118309
0.0136404799265283
0.0169467097571863
0.0210462339491586
0.0219448161996845
0.0279928379878176
0.0214564476667205
0.0174167944401343
0.0116665308499836
0.0207415154124271
0.00915258848150412
0.0111762967907447
0.019248372310072
0.0230527491260991
0.0187031286142334
0.0230207525555395
0.0321094315429329
0.0152500343851223
0.0155015358857269
0.0157574259021456
0.0137939172471077
0.0222956439570917
0.0116407366783252
0.0132358282245861
0.0207260499310817
0.00904562590263722
0.0169745540173505
0.0217536764081307
0.0151439664528015
0.0330341020523749
0.01499669782712
0.0159902636400154
0.0264190482475019
0.010204015845047
0.0186033193702015
0.0101022441709974
0.0170577533193433
0.0167207520603657
0.0169276321500864
0.0171705426889129
0.0171701335132707
0.012495995828985
0.0225682423536619
0.0163748333020423
0.0217308944546102
0.00598127315124825
0.0547171018221663
-0.00513685007817341
0.0276363271943454
0.0139063684661483
0.0136237476105208
0.0428864056208078
0.0083021201985101
0.0149271031519516
0.0043045223210362
0.0118760202436094
0.0102311770766272
0.0196708155644968
0.0131275223645038
0.0187520888439511
0.0346294151892248
0.00663388600289461
0.0217444835606474
0.0150274853777852
0.020530596587333
0.0200727527892768
0.0513558979219585
-0.0013617064171871
0.0305452858777873
0.0127613598691459
0.0170772660491447
0.0207901072435887
0.0291628026302447
-0.00203163763648612
0.0273994328647227
0.000138690010574541
0.0224198899561911
0.00685912090017218
0.038154977917892
0.00574702933395779
0.0257927780027307
0.022841179699895
0.0200316289575392
0.031253608244415
0.0051028999367506
0.0171050566206077
0.0161052336968249
0.00301061299954822
0.029968525017812
0.00344303429169023
0.00743962479874546
0.0154328891510822
0.0236279017090951
0.00419536038982107
0.0201770284659363
0.00816851516250219
0.029125376393892
0.00922431816674625
0.0148376937554372
0.0152251035080699
0.0849847911188758
-0.0332077257275143
0.0580329306024201
-0.00990489036511007
0.0220647418235118
0.00508930228155949
0.0144369975673336
0.0193771002423003
0.0149620311179517
0.0185845611774613
0.0117915111638433
0.0223589578382661
0.0152777688450635
0.0157269938067222
0.0206923832054757
0.010007650235945
0.00914594578595641
0.0227785284906308
0.0245564425862429
-0.00037313879157994
0.0335530593252463
0.00666888780710469
0.0194240998195301
0.00416646837606563
0.0308539351261497
0.0021744140878104
0.0209304778720252
0.00535948014633076
0.0257191294109051
0.0182548835094535
0.0249281721076037
0.00585306069961361
0.0233126984231569
0.00244927744919288
0.0335574305671501
0.0217668217934482
0.0355860914752979
0.00119114336406315
0.0203138479904577
-5.49661261223472E-05
0.0238597179869253
0.0367375890197987
-0.00186834663306793
0.0177015536428048
0.01311984653042
0.00818897367847455
0.0206944432940383
0.00785131013915746
0.0314348822940174
0.0108907592563053
0.0325286679252519
0.0129091612009827
0.0131541092291566
0.0126639004561334
0.00939354947886465
0.00653157594949273
0.021074644106377
0.0424374050167977
0.00720709658864254
0.0155170598157157
0.00378959899239824
0.019994650943267
0.0271348025329433
0.00214870687051401
0.0187693894393878
0.0099033440792393
0.0177562947252403
0.0188213087563099
0.0169084528238673
0.0123641702868538
0.0184491529877739
0.0076382570540544
0.0181192609445709
0.0117482443962138
0.0256509873873604
0.0177750454371984
0.0128485929930578
0.0103354225157668
0.0122151740276175
0.0087430324982332
0.0303294398405967
0.0029869027423192
0.0183129574604321
0.015544693525409
0.025549191878362
0.015521812869881
0.0175010618991171
0.0157630842372185
0.0324385741307612
0.0120967629963391
0.0244529224382007
0.0113412216870443
0.0130269752964829
0.0139228079986452
0.0162110789253701
0.0344307443848292
0.00906975101564124
0.0194605997606383
0.00815211151846796
0.023383598216557
0.0113864823552019
0.0199119511261195
0.0153557664610781
0.00975812227107129
0.0230708201687161
0.0272867034594949
0.018041884486413
0.0220866495451271
0.0121815828873113
0.0406741750000867
0.036059812278195
-0.000888015808287428
0.0518269816086322
0.0163431756696877
0.0169343788962224
0.0287503701899218
0.00768910750845312
0.0451487462710666
0.0601020631591436
0.0145591702209142
0.0192308528005495
0.0143860115126538
0.0205842315934511
0.0140244341950155
0.0357759333006261
0.00035163697062967
0.0459798712422136
0.00329252273477198
0.0411756628780568
0.0168332355661485
0.0136483771120655
0.0295710108206435
0.00139485685583659
0.0165886178069948
0.0150345178130335
0.0238525503887866
0.0174123500301335
0.0340183103177067
0.00868552867726245
0.0332912922137028
0.0158065065659107
0.0342302451903757
0.0221167923494496
0.0181586152162252
0.0220651078569633
0.0212790307192575
0.0205120947333347
0.0228744170540958
0.0227974783052635
0.0219897314692252
0.0349374576312831
0.0147528752123041
0.044954713454736
0.0200529063315846
0.0106671495523591
0.0268725426646791
0.00838189408567655
0.0244293965659353
0.0195171086635662
0.017952802445666
0.0202836623233634
0.0208121260938548
0.0199287181492111
0.0235001241429236
0.0365090240403387
0.0110344103371567
0.0319532543715192
0.0158291320058316
0.0223960491958251
0.0150613789552702
0.0262617383662398
0.0219661567840865
0.0292829844313997
0.0240695105152864
0.0238976799286395
0.0391322385718148
0.0318089809757357
0.0240943137944136
0.0663241951298077
0.00609726442503705
0.0340384053615581
0.0144947435341352
0.0298012681128896
0.0252665435748663
0.0226210758930308
0.0263825099827954
0.0320322998870195
0.0263024276790774
0.0404198741806097
0.0260578942614675
0.04044245297092
0.0372194272649792
0.0576140673574551
0.0412899010940616
0.0333181990920125
0.0323376866768917
0.0327404405936736
0.0672455227355776
0.0177006223208547
0.0533546653436495
0.0385258743754908
0.0284736537026283
0.0402217249337067
0.03912437169682
0.0472684023351718
0.0336532764564712
0.0438051601406023
0.0283826823121737
0.0517967122180457
0.0311600356573249
0.0531165057554389
0.0378541283578417
0.0668412217995408
0.043340456313724
0.0492079170683097
0.0496586971351157
0.0484592997605433
0.0484915553463611
0.0815946558870948
0.0278229499798981
0.111866515660862
0.0494142387076241
0.0990137698485522
0.0485703209957217
0.0608286114416454
0.0641710671223513
0.0673821972160005
0.0689427019631639
0.0676453031389123
0.060903106210053
0.0717225836606794
0.06576162005876
0.0743043471930783
0.0753895725936674
0.0892085264762393
0.0697928610685975
0.0924514840548424
0.0802322454123198
0.078036496570828
0.094072688760987
0.0827583395933729
0.114429639485331
0.0916461920868334
0.0865878092022139
0.0822089619532223
0.0915708927763878
0.0881144060658101
0.0993542118215447
0.0926328967612693
0.0993242841433224
0.0967474265206956
0.103896243736196
0.133619302869919
0.0903901970693869
0.122100168829476
0.0991326279808804
0.121136434622747
0.119497446211834
0.109309006621803
0.125760176536696
0.107439635310851
0.116748855283316
0.124394326768889
0.140882776103387
0.115399541451868
0.128880584347376
0.134245196790336
0.118226160859083
0.140133580841809
0.132512961817625
0.14185639457584
0.128762320496712
0.157091678147085
0.139298970194447
0.148963248665991
0.155202924642309
0.148042818337756
0.13938851405744
0.182808320456775
0.139398377386776
0.167699859489755
0.163833879992959
0.152418830983165
0.158135513645692
0.177455325151575
0.176650420637607
0.173451811596698
0.192181810574974
0.173499787748266
0.154256816264991
0.185668843238303
0.176652124123065
0.182955069539418
0.180101195291213
0.202760004059217
0.18530014980736
0.207937797840569
0.191716060301683
0.206646631577193
0.188259594061509
0.214903436772402
0.206616576801904
0.222158455285838
0.209681954030444
0.218913256016713
0.222278895169688
0.217889978224653
0.216879594086122
0.221169647153916
0.234426827447624
0.253095276768776
0.220344653214205
0.246491364976014
0.233350359889827
0.247817386091375
0.244361862938314
0.286200018390935
0.234434357529597
0.262610592819697
0.252409791192867
0.265055909571955
0.240116675913515
0.297630138251058
0.261023643611912
0.282763769866331
0.271855993169994
0.270823025976858
0.266715833747839
0.304581188778956
0.292084212233139
0.303444515322674
0.268554722203453
0.322448447593509
0.28554926776993
0.313055562908506
0.307160078655787
0.322915709979592
0.3051040533674
0.328351577639728
0.308966925480012
0.332617697221338
0.325037536707092
0.345173591386138
0.327437554380402
0.330493071386891
0.3292683272126
0.362820349550669
0.344655425367584
0.362898603675799
0.343588685670087
0.379336848696234
0.358985183540214
0.38142288580937
0.365546042275037
0.383844007747453
0.348976252589597
0.3951795087039
0.379087566628445
0.402468506525548
0.367171818801184
0.400457677497421
0.392397780182065
0.417127579730054
0.411760630264102
0.409155473945748
0.390533668606178
0.442273165615171
0.421641603319483
0.442653958441596
0.426601629897655
0.439269632822233
0.430896989368422
0.450497675510744
0.419998485855032
0.456273838902063
0.429801188443333
0.467096213548374
0.443905934547442
0.452578684140525
0.450107023601658
0.491770435048767
0.484125093227737
0.489557651273443
0.4732271198222
0.515803169133428
0.482275792074459
0.49500624395321
0.48700907754123
0.52333885296044
0.511599434410412
0.52317534645906
0.500432393330889
0.537877855685056
0.502207421224309
0.510595330267275
0.504181859437866
0.533585761948133
0.495393585061296
0.547938361083282
0.550793896664029
0.553205821539967
0.544265625535747
0.567201302216019
0.540810170090293
0.58752668354776
0.547825015221277
0.565944318206594
0.561227965993066
0.613236048783299
0.565782594626898
0.607745727675071
0.556920244399876
0.565585550658367
0.564584820495055
0.612946715514227
0.588110282631375
0.605645126613343
0.585584001627718
0.661497180315554
0.593878490244194
0.647172090971105
0.626530182508893
0.635737890547198
0.597551596933657
0.641591639207794
0.644444120974043
0.674070416639129
0.620441532544153
0.632187281288194
0.652426032568278
0.699888819624852
0.641816297042311
0.68679464127005
0.638666486678015
0.683746359978233
0.678673167399001
0.705401939851871
0.676309242030792
0.686850511986314
0.663524447792022
0.717546869472167
0.681324804807028
0.746687706790078
0.692665381378661
0.715189717438091
0.716276670209517
0.730820440241539
0.677636978754072
0.700489520724131
0.68384214433923
0.74574843339069
0.696345004305864
0.743060085560455
0.695835888696947
0.749738927645303
0.714059835842746
0.754850972964886
0.746911571652169
0.79507200905069
0.762241896269263
0.784743662900359
0.760672660314824
0.76309463137745
0.744934079614534
0.762296910087836
0.74188661317078
0.781123665780279
0.766223806763165
0.81028308013619
0.778880766888987
0.785585273160752
0.765170167869355
0.82248447717998
0.767531584930622
0.812856364617086
0.777647579516619
0.826518334094538
0.762289592699114
0.783522377943186
0.805362284777471
0.821772667947731
0.817436985379599
0.861270876368087
0.80072890275576
0.829045422525199
0.768653503915443
0.818775042429033
0.797700917191974
0.817616948197496
0.803198114016571
0.845767610076516
0.865454501752892
0.855701731906911
0.850712399365874
0.871934378882434
0.789741474253535
0.849384585347098
0.845324874022733
0.86238298907983
0.863395138515321
0.859976338210252
0.835191150805757
0.887449424817001
0.841367029755942
0.893032301337583
0.849773658983562
0.902057920201905
0.911395860596605
0.918728658915967
0.890735920124322
0.893555739275589
0.881521570428843
0.908461823526084
0.859515384581181
0.895502232354624
0.887942742656267
0.9426114685625
0.871823426738885
0.903432307722892
0.88722526175638
0.885368323594868
0.85089582363039
0.917000998842594
0.868977470093236
0.94063518177523
0.849335786698419
0.948822339814202
0.901222842273628
0.886811945788752
0.881699324694764
0.927614822830003
0.890297456565395
0.938525157845174
0.901369278245167
0.922819646831057
0.899751583533125
0.943066772118381
0.884720487613741
0.89553678076387
0.914075675051197
0.956271350950641
0.88021480668936
0.946292129382359
0.912122111206681
0.944992043791281
0.923431453168413
0.94888316106245
0.901715882903643
0.962808604498686
0.891565921647574
0.983301210533095
0.908841301273603
0.942746146252391
0.90276504974261
0.969363721232417
0.931949523592211
0.967793396993558
0.909092041562731
0.939410669076396
0.907362860083453
0.92801224795961
0.908673073058736
0.936404773980869
0.939705665529071
0.942933244774138
0.907264154550864
0.923172248844952
0.893340183948679
0.930468051978229
0.954477553410348
0.96711518900654
0.922100883867035
0.955486939423313
0.945204499869262
0.94375744897738
0.937810203032959
0.96201083619656
0.942366557228372
0.924097936188309
0.901560608109058
0.946843889992549
0.938493211141496
0.958664679858734
0.918793632508426
0.946563528145891
0.917702543674733
0.912384658233946
0.935272355291943
0.930437795982758
0.901421410419562
0.937706303472135
0.934188200844782
0.976154720495012
0.940275238465924
0.93196174577301
0.927632936392331
0.940902578620862
0.892917699734277
0.953498775187682
0.923475091156687
0.937815355039008
0.921824103384781
0.955362423304619
0.901923337393555
0.92200605229573
0.930742577619778
0.936886773911737
0.919088979907209
0.924743154244753
0.92731597917595
0.924374012795216
0.917807005179864
0.928523124026062
0.890246669470238
0.912313490373128
0.887990251012879
0.941554844193279
0.913168267217132
0.910608287304631
0.918932413477172
0.955355716501813
0.930107843021229
0.940691488549738
0.880077688490336
0.899372670143904
0.936867780549471
0.911248277733702
0.865441987904545
0.894847413451746
0.919316284024951
0.917396454626734
0.911315359321793
0.933811527131346
0.909577211331477
0.904931395503587
0.893825253798924
0.912534949457995
0.877771358013683
0.901473139845965
0.887393960228203
0.860115671514775
0.854531258424174
0.908664031755731
0.867258833023997
0.891504384445175
0.884736064401517
0.886865762461614
0.851971078514133
0.85689045258588
0.865973386474218
0.875101464147091
0.845315964623358
0.881732749571991
0.861908435075381
0.893373688472472
0.870211415114844
0.878736662761558
0.840326309915225
0.872646156860267
0.85948085998036
0.864464672140756
0.837939456433483
0.867668484749042
0.836104424883198
0.849532895750244
0.812223231082761
0.836184675944024
0.845043531456182
0.83742027843976
0.816972656159527
0.850279268593152
0.827240808702359
0.836972272289949
0.82825449206227
0.841742376399624
0.847564692583149
0.824556211251168
0.812969926784754
0.81699409674153
0.790218714943212
0.816895176938439
0.803155389582521
0.825777767738309
0.796753209566581
0.789683459445396
0.816260824809409
0.824483149097683
0.814901334280273
0.796917168286681
0.794156780240174
0.813823852523179
0.79108866108878
0.802041115253216
0.788453578439951
0.780125674982216
0.781136478139686
0.799815617520852
0.766601110924545
0.780559843277949
0.787312866623459
0.770511780670128
0.766491557685057
0.758794487825182
0.74747617804397
0.766951517202464
0.760103474746918
0.768586756520641
0.747442171034559
0.739061344355083
0.731258783548224
0.748841885954832
0.739912877011297
0.732559055633737
0.702373730352795
0.735244553705704
0.740649304197403
0.727302868686669
0.729763761785071
0.72441426191031
0.71228179311349
0.723544725561714
0.716415579169791
0.707307918015202
0.694525246145086
0.700173701198193
0.693277062776184
0.705880369885462
0.693308524894977
0.698924205594315
0.682206018319977
0.709625024105574
0.679960191599338
0.684931614446922
0.680221123530251
0.665924024500513
0.666601463513038
0.682901681242898
0.657228563943138
0.653995061770278
0.656476097303086
0.654470252568305
0.635351676318185
0.647939434018467
0.646897963098803
0.659900820291008
0.65393561765746
0.639319841953909
0.632028149687882
0.622927829335254
0.622906303410499
0.632800288207874
0.624537774049896
0.623208872329587
0.614618769779567
0.625688458077447
0.60020506080755
0.618328944597047
0.614491830386131
0.61191774414349
0.602616269464461
0.59888021845393
0.603205451669035
0.596247977231686
0.584593323950485
0.589092655140798
0.585559162610326
0.581292876501415
0.579561031722812
0.579874658504033
0.566894207594043
0.580947915846351
0.571229072613056
0.57459475307069
0.562083825697545
0.569356732876263
0.552647482316383
0.561676578606447
0.547324710001541
0.543962748804952
0.556001917968133
0.554214816093315
0.529654786782805
0.531365454661282
0.533407275383413
0.533177118046754
0.525756603430712
0.531986176871176
0.523189542627851
0.523922900757875
0.514033910021994
0.525100563299566
0.520904435852423
0.509092147186786
0.508921625419933
0.509967753926003
0.500888694282647
0.502268815447899
0.507950198453112
0.50019068639312
0.484332503988775
0.500938008955744
0.487942449648561
0.493201002930826
0.475274903384253
0.46854824434142
0.476621151125089
0.490090784177296
0.471161100428166
0.476705054109158
0.470722966367964
0.469615194680928
0.472679653969868
0.472652531436139
0.469503994556236
0.469552195058451
0.462755851884892
0.463669389645149
0.447905691209206
0.452871030163672
0.440102132474975
0.43523966070431
0.445276010864093
0.444495233548203
0.43341893749934
0.437155894731491
0.440435184524951
0.443148216136407
0.427270361190799
0.428341376459686
0.43567361312405
0.431241788365824
0.422676945963682
0.425961739987367
0.417117218103439
0.417675343888572
0.416186142796157
0.418110179813214
0.415328198367436
0.413178248328223
0.403372528820861
0.405750086158266
0.403634786139957
0.403024193483913
0.389263483021824
0.397141852428252
0.398064538553431
0.394353667804415
0.388593411406076
0.387560599019721
0.391425167361997
0.390620860164186
0.384298481485055
0.38691360726489
0.380432302845787
0.38197938557142
0.376330465994833
0.38620325946059
0.375837208265928
0.36256341993373
0.36935177724886
0.371638027985577
0.365784262839885
0.357618318353788
0.360318506849755
0.366675518679076
0.360357577024221
0.357308094758281
0.349952778105867
0.353473245809797
0.353583432265877
0.351205452423209
0.342567442813343
0.347734350904848
0.343193828486572
0.343630166857212
0.34239961811226
0.347477753238019
0.340362455009517
0.328569841758772
0.328936239830972
0.333382499874913
0.329065296377911
0.330438154218472
0.331284643353708
0.328703200661612
0.316593887782219
0.326303243131911
0.322277756975532
0.321551492703033
0.316557249967672
0.316883764392487
0.320977293760144
0.31177546155191
0.304928752692899
0.311980461385473
0.314390109147331
0.302452772524497
0.300029670180635
0.309290676199702
0.299123198351473
0.302621179861687
0.304505204989168
0.297899748607885
0.298999554432835
0.298966930506145
0.298980661952624
0.296577228444206
0.297129305219335
0.293637346875927
0.286660681826671
0.285870499056655
0.281138255059636
0.292989269400254
0.289281037897375
0.293542170809462
0.286480263867324
0.283374572559179
0.285275187897747
0.2823291378378
0.287506550036269
0.285403865820269
0.279832502150642
0.289292102520876
0.28102627079601
0.287510491654517
0.283633914067623
0.283927902063838
0.28294939495502
0.282224314269804
0.280804597515273
0.282816543858853
0.283222505708561
0.282820160946511
0.283457761331615
0.285236780993569
0.283423854976498
0.28718705637853
0.287368643687625
0.293830601769802
0.293485993568211
0.295654935488764
0.298517362187151
0.296100800219455
0.296135456074743
0.299440876678643
0.299508821272166
0.302409211020031
0.301614636212487
0.306875093394593
0.304179345839438
0.305193817773708
0.305053698082909
0.308553017080444
0.310667572735838
0.305863428546193
0.305116433981063
0.312675181881201
0.316697159103916
0.31131788480172
0.318680558308827
0.320545881118605
0.315618229432907
0.321539106255989
0.321133091723325
0.32147440582588
0.32431581121618
0.320984106651247
0.331884027233234
0.338072529529979
0.331472824693377
0.335583629598396
0.339099679313701
0.340509103071745
0.344709438604089
0.351453500517538
0.349546419675735
0.353132425146939
0.354508156758692
0.356017539313549
0.358679874217726
0.364949155897186
0.363029197386689
0.370198805486716
0.374027996978437
0.377685317671752
0.375663039626551
0.379828063245734
0.379845834025855
0.37974322358136
0.385495484306822
0.385708861523892
0.38752541361986
0.389215783876869
0.388375632721288
0.391167412995921
0.391288247023242
0.387656085671797
0.389389223250382
0.394183402308304
0.387980408082702
0.397463473977624
0.39247412133672
0.397566478603906
0.40197227681444
0.394428267901187
0.392167763876703
0.393875799317817
0.387830219324661
0.393472294645779
0.389516948926558
0.381463980739721
0.385489992396519
0.389833482785239
0.391123873226897
0.384866362839962
0.386060713598254
0.387621383628194
0.391031090912044
0.39653753846416
0.387144005708348
0.388802762169884
0.396928179644575
0.38961447811995
0.387519830675364
0.387982272204911
0.38793095249723
0.389467080772245
0.394911927436894
0.386549657898464
0.392900334539524
0.383277262653638
0.392367828634353
0.400102356005878
0.398781586631146
0.395137044656308
0.394156831611773
0.394696387091035
0.393617029956609
0.389999857193309
0.396593482433838
0.390165210986822
0.391797650942135
0.395609562171964
0.387616779940984
0.387895323362484
0.391464487870728
0.385219764622279
0.380753814122267
0.389782375992584
0.38354688097024
0.382809125680144
0.382016554293289
0.375392687361457
0.373732054418743
0.372289746018816
0.372274786847897
0.379375600231212
0.3743481738879
0.370659224920847
0.368738568056557
0.370708764272685
0.364261942735089
0.357418652362032
0.361131930174438
0.357534608137863
0.353330437594102
0.358541423591703
0.349628870783643
0.350118176120236
0.34835999432357
0.348530022278822
0.340682709067741
0.333099233587328
0.339468811161642
0.323934193667408
0.327598760062265
0.32159082281373
0.323954416047191
0.321941468718354
0.319543758534871
0.312508939582049
0.308555193138764
0.316584866589787
0.310503725600605
0.306172260153371
0.311704639089962
0.306964273372232
0.301387690482187
0.295311731550805
0.294911682122158
0.292152633963743
0.290501530185143
0.290360887868913
0.289932558946339
0.28480155960282
0.280536284514915
0.277835658891175
0.278961237462145
0.274237066291436
0.272179242231624
0.277340134362323
0.272762525121988
0.270560385250795
0.272758546285007
0.267418732241247
0.266272843779657
0.263693468248469
0.264774577145961
0.261185885084416
0.259627157878804
0.26395344683307
0.254877451726288
0.255228400592728
0.255699058882425
0.251709018398922
0.253207232593111
0.254811113227262
0.255107377027748
0.251399685178094
0.251490963817804
0.24750851252494
0.241728582412686
0.248263661419686
0.243982479874703
0.242248579186327
0.238791646068955
0.241663951791637
0.24516446714283
0.241286426269302
0.236600991749385
0.232532541859436
0.238213176476077
0.235723724437604
0.2316219658819
0.234022774484138
0.231133041161954
0.232920790093915
0.229296907301529
0.230291630882108
0.228773385856727
0.225738345730935
0.226978660238104
0.222691969030157
0.227912955775936
0.221528593807366
0.22346863581844
0.21958688348491
0.216786115796691
0.217510137934823
0.2190231354503
0.217811339029494
0.223043034148897
0.218196877773314
0.21710451204329
0.213228578837479
0.21349327503784
0.215366626467606
0.214269863350505
0.212502974663621
0.2141572647853
0.21061830042235
0.212686017124942
0.208558883214328
0.208396341402584
0.207803382886283
0.207013896637296
0.203037306963513
0.207743228347894
0.206433265494683
0.208467967513029
0.203919495385706
0.20272901012913
0.204387397064862
0.195636973750603
0.199408796443798
0.201130721804115
0.197051446688679
0.1971459669488
0.199514177672989
0.200375986755213
0.200516791893761
0.196947383303013
0.193851205986472
0.199509424070187
0.194381952428039
0.196948393510191
0.195964559373047
0.192354931132167
0.197521377849853
0.194385411770635
0.191110442038194
0.189138724659162
0.195551089590927
0.190568609443579
0.197547755807573
0.193911191927433
0.19353514834402
0.190019475067378
0.188521821561763
0.188080150484184
0.185079853170592
0.18843979741596
0.19361396699675
0.1904019836485
0.187552382910594
0.18859696815499
0.188028102093991
0.184987332819125
0.187165928923722
0.183317089981208
0.183410637246548
0.186166930556329
0.186811010272379
0.187744346599272
0.187498467665367
0.18546242772776
0.18209819559573
0.186559807197958
0.184049128982558
0.18299761745836
0.182294977020957
0.184290540678558
0.175543893206902
0.179211869371713
0.178942471182999
0.178590450621374
0.178539830991437
0.178591318195101
0.180485002167078
0.174605732228466
0.177446328163592
0.178967349543957
0.177788188626357
0.176795489865241
0.173917259839246
0.177440474486722
0.173809186085994
0.1813032166409
0.174932728051152
0.172329427995674
0.173241970167687
0.1737898006034
0.172608227891955
0.16920649985883
0.169802437241698
0.16935971514851
0.170929783424248
0.16806154164169
0.165539571643047
0.174260332403613
0.168211028874049
0.170332725654486
0.163447287231606
0.167177827669849
0.170100889415559
0.165917889540098
0.162258400144792
0.166578385178645
0.162258078030719
0.167239855599458
0.162382997617958
0.166582070993255
0.160952953019635
0.161271606964016
0.160026104366385
0.16021150950542
0.15751599098413
0.159111821548973
0.159478364026965
0.155069737350599
0.151814043852832
0.156293340234144
0.153608137639171
0.152611931495115
0.155253722794557
0.155277358701305
0.149276579955648
0.15052733318003
0.154929205720412
0.156917572941388
0.150778227147499
0.148053879428258
0.150645580094384
0.150283551228902
0.143778476801649
0.150281860743949
0.14758065811124
0.14851799517876
0.141987685720589
0.14655732895086
0.14075026790712
0.144599980188246
0.141746705859723
0.13942090209878
0.139558233459433
0.14276291537651
0.138294441997099
0.141321185736931
0.138764931322259
0.137180032722435
0.135116764586835
0.135170698737248
0.138083646618215
0.13946794091993
0.136114704671466
0.139118501006363
0.132936281150414
0.133146936069616
0.132818778733563
0.134279857963032
0.132348415875892
0.128212697110632
0.127088304437368
0.130013722354463
0.125796445181494
0.127127621433192
0.125146520408093
0.128566631136368
0.124795347754829
0.125455983109044
0.123258372165859
0.126834781333907
0.122088111749966
0.121188393600721
0.123268979258478
0.119862174220726
0.123566560664989
0.122765717146577
0.118667041055434
0.119871508329906
0.117326849440722
0.11884383624811
0.119204066501513
0.117847046033789
0.118814775624647
0.120961407611911
0.117961250901089
0.120688081686722
0.116431020522704
0.116326587204006
0.113866028906033
0.11201783266445
0.113752877350379
0.112055859622764
0.113591653823753
0.114386092747741
0.108584879417735
0.110398485157254
0.109565379239597
0.110846269212505
0.109800939787896
0.109942545703812
0.109034902099856
0.111329936609168
0.108003019886623
0.107694327026997
0.105428704331752
0.109035640790015
0.106736156500166
0.10845863789818
0.106525637302112
0.107199329613674
0.105972484103748
0.104386589479572
0.107017994034274
0.108520407039172
0.105729332297634
0.103456611342377
0.102555141981952
0.104959064837349
0.101374646789178
0.104453438127266
0.104760649556886
0.104168120943921
0.102607647384233
0.101488041430357
0.102478422970965
0.101486561980868
0.101312497109733
0.102177562651349
0.0951103872367035
0.102872467848601
0.0954346197102755
0.101200140100111
0.101159093849838
0.100582627714666
0.102017469079533
0.101337913928355
0.0969875059051888
0.097812816183019
0.0979344924539536
0.0938197315865068
0.0946950506337745
0.0991822324351323
0.0946182683298349
0.0953216827396327
0.0963151087957658
0.099055230105311
0.0976160366099886
0.0987160592463495
0.096161126312885
0.0938510918437871
0.0957060133092872
0.0941750396897766
0.0953762983828862
0.0996290030714829
0.0969768827785288
0.0967480070576185
0.0962712632271055
0.0942571179484584
0.0923276669924461
0.0952571027721035
0.0925932355514529
0.0925519435814301
0.0917628440771653
0.0949813156938825
0.0935279428812454
0.0928612843960399
0.0920673663512535
0.0943086532097681
0.0936963604172142
0.092481778125693
0.0883808186954285
0.0951224902117708
0.0882106984473413
0.0899504862745368
0.0871182546785887
0.0904523318148901
0.0886569748189266
0.0918497683405476
0.0875931221776656
0.0872160858436994
0.0857915114140425
0.0900396422584678
0.0850499209822337
0.0881840575921504
0.0857718756809686
0.0895896299434774
0.0886107961521209
0.0873387041294958
0.0894515100721061
0.0867805747558077
0.0856061892275961
0.0867995609199229
0.0857544720680074
0.0869097606552994
0.0823111396587137
0.0856442831991682
0.0844829775358852
0.0843217319463607
0.0869894495986096
0.0829762672844287
0.0874303742686017
0.0879707950347574
0.0791164606143434
0.08334753466365
0.0836301990125557
0.0880010140109458
0.0798053629012454
0.0812552509288961
0.0794729572578652
0.0805490002680636
0.0835903813605868
0.0855346290583367
0.0830052875691285
0.0843209018121085
0.0782637460812462
0.0807253395297165
0.0788459417925239
0.0781156053171173
0.0781317699591834
0.079483944143277
0.0802059731750523
0.0796099720609425
0.079421659065587
0.0790578312643156
0.0794517895160017
0.082069394664723
0.0760299155073375
0.0764536906304914
0.0791032249331289
0.0777371558511021
0.0769792611598036
0.0809547323480247
0.0740037824542927
0.0741468868852722
0.0757631495160746
0.0738121308649156
0.0708455552202195
0.0715179516840838
0.0729162356842343
0.075230106824422
0.0749429661754586
0.0752305922470643
0.0720510022188241
0.077315602392923
0.0710509723540264
0.073428383213676
0.0696198569853514
0.0726094437613962
0.0703855244013495
0.0692260104213663
0.0684521938821712
0.0689557402317289
0.0690143061967314
0.0682907154507673
0.0679584028742126
0.067576680460053
0.067583703321309
0.06982045133163
0.069048197094049
0.0682368310367993
0.0670004046280805
0.0664606055313496
0.0663951831170392
0.0688593179260535
0.0628729420845499
0.0649673271130126
0.0673745724022173
0.0680814682387586
0.0638428050667146
0.0643230848469866
0.0626417379491185
0.064670405630355
0.0648720682851642
0.0624190213099371
0.0660321187097956
0.0652788814976594
0.0640238663291507
0.0604960452842152
0.0636138305661223
0.0626753772535278
0.0617236375764364
0.0608083931187422
0.0603784888620625
0.061897068708028
0.0591770841656984
0.0583297469193743
0.0583097961851839
0.0628432693992372
0.0580217392063126
0.0598861473424406
0.0593114539066629
0.057988122275938
0.0568175845317564
0.0599427171546607
0.0586370616206063
0.0596679455678046
0.0564641818780378
0.05980019152929
0.0579426521824157
0.0582077691356036
0.056961437580721
0.0566322704153794
0.0577969171783847
0.0559167108802112
0.0584581182892137
0.0552472802551256
0.0587402843289394
0.0547326059639377
0.0544932122425391
0.0551361601000506
0.0565374771661614
0.0544562516148733
0.0520542811134378
0.0568450964626109
0.0552557175727853
0.0558544748566969
0.0543690931032465
0.0545737676763367
0.0522844956081013
0.0541133676320458
0.0517968567751606
0.0539502343250424
0.0549891803098485
0.0544729839619828
0.0531793988421516
0.0551186927692826
0.0528027563403705
0.0511920985572447
0.0545725178137622
0.0523223207900232
0.0528040576895171
0.0511810280749326
0.0521873180809629
0.0528646303377429
0.0525290199139762
0.0517254825547081
0.0493441758162293
0.0539693784061355
0.0539250720575189
0.0505862334152779
0.0475949223679137
0.0541283020685535
0.0487406598805181
0.0426691357971264
0.0471305519959314
0.0477220234314256
0.0480897572249327
0.0503068807610386
0.0445420292166265
0.0515036251290666
0.0554352943791719
0.0453621079098645
0.0545579028978832
0.0478069946828083
0.0439214538149831
0.0531822902954765
0.0444963221522875
0.040135501872951
0.0463509706556818
0.0483833929777653
0.0545960142288258
0.0446969159877809
0.0472161782929545
0.0467143444927812
0.0484831431213246
0.0458512338031097
0.0495875810946807
0.0444545956568908
0.0466152745457421
0.0432315915533776
0.0510458464868024
0.0411638087541745
0.0525649426512661
0.0399486646837378
0.0556191753465007
0.0395579095424145
0.0562718231213311
0.0387484303367707
0.0593815369756091
0.0335085535545239
0.0567364147628594
0.0272575673247159
0.0542457729550085
0.0328685158210313
0.0662408902044892
0.0332581256009788
0.0684062872265694
0.022105208765886
0.0657007341107644
0.0292309308094945
0.0721469006796266
0.0204389978427244
0.0636192766789018
0.0240234879281339
0.0682850668037609
0.0271046292034613
0.05674328187754
0.0374300293676746
0.0565901047631888
0.0388663179761153
0.0430899259392488
0.051271174891846
0.0396873656242039
0.0551888810716642
0.0345994543589223
0.0560289935817895
0.0350114818133371
0.0577930731587322
0.0387842351771652
0.055326939240521
0.0409088771152001
0.0462452635994348
0.0444693108480009
0.044546272790627
0.0466508333922273
0.0411942537062545
0.0412354659432627
0.0464387565461783
0.0425017530591063
0.0453216709862441
0.0417175929172714
0.0481183484862679
0.0429072846822479
0.0506161503276852
0.0422457563824614
0.0476758323658542
0.0412847356498656
0.046501741800989
0.0449904927226285
0.0464260317110078
0.044597879936487
0.0471789065779847
0.0447490014243455
0.0474236335223742
0.0455355193065887
0.0456941661393167
0.0431413616304183
0.0466139120319794
0.0440402938146198
0.0460672388916482
0.0420079777000041
0.0461609939919028
0.0423084296472382
0.04643938210259
0.0427352475235211
0.0463227943860519
0.044413974970765
0.0454811377019652
0.0442128891127422
0.0464712660000455
0.0433325540668112
0.0441873120514241
0.0432784131431166
0.0445714666572807
0.0432423606452755
0.0478030675510584
0.0427712112128184
0.0446936711816255
0.0418174433542591
0.048895340664774
0.0431843056353208
0.0450162671678252
0.0425870368612916
0.0478938409686561
0.0443644584134261
0.0471109887996198
0.0429481506870201
0.0434801650754929
0.0435950573638582
0.0465947384727728
0.0427620204791111
0.0448777591974982
0.0423723983100401
0.0471515941163084
0.0426963578601883
0.0477370251632422
0.0453738986121297
0.0481393598728804
0.0424382261931472
0.0459332620372314
0.041388081909403
0.0460374498876813
0.0453110882747747
0.045459154174708
0.0398486876918501
0.0452671595270145
0.0423933942798847
0.0437936559635141
0.0423978979859114
0.0467713297544607
0.0429110696874685
0.0469897689540957
0.0449259684970216
0.044231420059741
0.0439060083334412
0.0460500889592041
0.0432562052413225
0.046315864073974
0.0456192808968053
0.0473263739308207
0.044093672591323
0.0452692355377815
0.0437683551350418
0.0493392801986194
0.0442079061699527
0.0462368450746042
0.0475632269785392
0.0476594604492866
0.0457188839305195
0.0451277279519775
0.0444385505257861
0.0461615414865063
0.0462348936136314
0.0471553079406725
0.0450399948236657
0.0481215401243797
0.0440332127697818
0.0463060002644213
0.0463700190345329
0.049588037775576
0.0449694810743448
0.0464947618722982
0.043922795216936
0.0460196904043499
0.0467076789657114
0.0483846029669561
0.043781283290266
0.046772859321685
0.0463544203254713
0.0490503382192639
0.045333126356614
0.047798862682006
0.0457544136934113
0.048334341734719
0.0457848217965183
0.0473526253091712
0.0475165551823377
0.0484092918492625
0.0462331938577664
0.0484866154822524
0.0444016941365777
0.0471209828080131
0.0464995438651742
0.0482519360118216
0.0447260823787986
0.0490700751125666
0.0501871695473511
0.0489784372647831
0.0470345835576782
0.0514112819289254
0.0477256776372482
0.0483962533094453
0.0461928246152858
0.0503328688815559
0.0484101823070159
0.0499963450887506
0.0500382646903674
0.0506666334387517
0.0471482391321482
0.050151004019637
0.0469368120431092
0.0490407012458419
0.0475404227486866
0.0517940914089396
0.04802569446793
0.0513195432617606
0.0474460168705965
0.0506766309787415
0.0498968680810534
0.0502805215100411
0.0493971458618795
0.0487842249013018
0.0485358340684584
0.0508501499292059
0.0489069882981863
0.0501323647377543
0.0493082308231369
0.0512227106845609
0.0498095898183955
0.0515146384496328
0.049886432355826
0.0500775273595052
0.0482623097974723
0.051529802048199
0.049323939364447
0.0487527716311581
0.048466448225239
0.0501705260684012
0.0481059331687678
0.0495425076556738
0.0464167757742343
0.0496254462608256
0.0484324655573723
0.0505126404487353
0.0451204591711668
0.0492187708667595
0.0483967528678626
0.0490660183054378
0.0466026115966567
0.0479073871786902
0.0477183133517214
0.0502907670963523
0.0479150236020994
0.0494151068373408
0.0468833760225148
0.048504694436605
0.0464529687577584
0.0473228255370473
0.0468093363180303
0.0478454308258117
0.0485882652050992
0.0505952088809775
0.0459992036560217
0.0473793805179463
0.0469966798776649
0.0467658125768544
0.0442089251098671
0.0495681872944135
0.0463854969275547
0.0479676894049434
0.0466920231459337
0.0469334548262645
0.0456510821780829
0.0485183464282932
0.0452736210404673
0.0462555733799557
0.0465169246443976
0.0473640581978377
0.044766783075287
0.0478742281187939
0.0474872584443994
0.0467511630496252
0.0433016011199148
0.0468363181187395
0.0441386788254253
0.0453607816761921
0.0434656711601917
0.0459134815839595
0.0446729106247913
0.0480809821653745
0.0460515325546954
0.0478140721366033
0.0475711851441975
0.048218279118363
0.046289098781255
0.0485856008011298
0.0451393943917247
0.0455611191754385
0.0424091566479669
0.0453323269267988
0.0456171740964474
0.0454095953407525
0.0435773489476161
0.0481298049923593
0.0462949641850403
0.0464579915132598
0.0427616394148834
0.0448291859504491
0.0441113773938559
0.0450432864887421
0.0459550113083105
0.0469842092515484
0.0414274095438533
0.0439529930867253
0.0466120580702329
0.0477462509515647
0.0450895872458806
0.0454627609601497
0.0439396924234035
0.0464597665298605
0.0448515946020038
0.0446449122571693
0.0445607316795608
0.0467337165517505
0.0454033196599042
0.0454845259743475
0.0433455459563438
0.0444634146336486
0.043566433086104
0.0440161468383577
0.045234789650701
0.0467235578436942
0.0451691870531029
0.0430715548217067
0.0412636711988544
0.0448290361155034
0.0430418546711421
0.0432269934502506
0.0427788426321206
0.046076118745172
0.043152481035092
0.045076827897191
0.0430573923241113
0.0428250528296259
0.0426291834862656
0.0460690390660196
0.0405629484031858
0.0448299579062405
0.0443664729293571
0.045654315991588
0.0426493034171492
0.0441479107648794
0.0427761677360912
0.0456463660719896
0.0415869029468238
0.0426804149776615
0.0423508251992589
0.0435354333708629
0.0422519254190975
0.0426271059259752
0.041454281606037
0.0421433378551511
0.040830082651295
0.0419842355287766
0.0404001284700148
0.0442692056739269
0.0389496292594467
0.0403575061601766
0.040369935025056
0.0443853275282307
0.0403729154543159
0.0422531236526775
0.0378886851918606
0.0385153745647382
0.0404785823403334
0.0400008971900759
0.0382503324891638
0.0394650113198115
0.0370538513180687
0.0397252331593898
0.0406973745837041
0.0389910242008776
0.037005182513879
0.0402657944391128
0.0378215175166723
0.0391592896227163
0.0374210346186535
0.0391514358353891
0.0391934957687632
0.0398630718356988
0.0376079861023785
0.0384209476659822
0.0380080009434847
0.0384547327034903
0.0369671897570303
0.0358460460638401
0.0384815894766355
0.0375150234295761
0.0408994541016189
0.037961468099351
0.0385754226131319
0.0367306388590439
0.0368552140961447
0.0355701309532245
0.0361385870380864
0.0385153073476612
0.0362258455737236
0.0371804564924705
0.0388942116890458
0.0371547188059229
0.0369647519382065
0.0374141192223571
0.0365669491925413
0.0371837760285801
0.0330821380742263
0.0383734457916097
0.0356547559838062
0.0365301010734279
0.0354651447870449
0.0378121289438703
0.0368665728318538
0.0359275113543016
0.0370834112531738
0.0366384562761301
0.0389215140507663
0.0371591466257697
0.0338930055513151
0.034998625471661
0.0322348111640072
0.0369188460698538
0.0354813251207957
0.0388310476142888
0.0361581694440033
0.0366062231254615
0.0337092873869876
0.0351955239063794
0.0346262859304924
0.0354653876561544
0.0333618029723027
0.0364268039565545
0.0343577617005635
0.0353406211291274
0.0331206322011743
0.0349723993851732
0.0313186617240636
0.0361394708652674
0.0337499873904655
0.0363384798958377
0.0322758263418408
0.0385304430692629
0.0307650321481181
0.0398465111594251
0.034425079346217
0.0383517982133254
0.0344805548602047
0.0338095625483628
0.0356988740256526
0.0361790338583937
0.032466810166374
0.0337240194388414
0.0332332964779592
0.0370087720665132
0.0338320872209668
0.0352146030906538
0.0329023181895584
0.0336166142544675
0.034136999533624
0.034438162771113
0.0333983289443407
0.0350615297260062
0.033679292326625
0.0346478161181405
0.035405575035953
0.0372154963947438
0.0318594421868333
0.0356830327536055
0.0334604911747452
0.036838992523799
0.039697830667439
0.0316390050995774
0.0352750591804629
0.0317639193334424
0.036703147654522
0.0309113200837436
0.0355520330227952
0.0331052554695909
0.0384009430631362
0.0322554402217919
0.0355532460734826
0.0335663308739217
0.0335434550248846
0.0346249795721969
0.0346984076916733
0.0348826365929469
0.0329815753570374
0.0334715139412663
0.0341070231562755
0.033909630764758
0.0352576319627968
0.0328961889152362
0.0352789990480556
0.0353284215273049
0.0365310747102931
0.0316402724592477
0.0335728629818452
0.030250178779535
0.0372071710789537
0.0365537486227986
0.0404033791473454
0.0321928132273389
0.0333875715505345
0.0345305433925981
0.0314645419861281
0.0341761846371757
0.0333105772951867
0.0347465495923476
0.0334793663163041
0.0355118048227586
0.0326794190343412
0.0329372378765082
0.0314897027547099
0.0355985968104254
0.0323890627641781
0.0322949657365757
0.0323542920784432
0.034374972821887
0.0316138206550305
0.0333369201522693
0.0358480938014961
0.038362730114603
0.0412692982196366
0.0296559001376508
0.0359565208051809
0.0304104878155819
0.0340985453527958
0.033681889441404
0.03704722598386
0.0342090693609493
0.0352102140282226
0.033392068101887
0.0337161230332691
0.0315461044322886
0.0333446632274811
0.0329312500294265
0.0355518702808568
0.0329101757021291
0.0342572802764037
0.0342343311779764
0.0334374571945574
0.0318405554072405
0.03173814388362
0.0341448021787514
0.03264642695128
0.036728016383786
0.0306594708440578
0.0432056320894462
0.0271952071605972
0.0460219660573206
0.029795221789627
0.0383273830723649
0.0294598034393991
0.0368190741497226
0.035607066624505
0.0367523643595167
0.0362052474070898
0.0353353571491417
0.0323427644836285
0.0347798907150453
0.0337045015821479
0.0344391021858057
0.0346158694594412
0.0403762144153079
0.0423859804831774
0.0404240820365339
0.0289587978168637
0.0393937135528574
0.0329900859605564
0.0412908792033597
0.0370124085494907
0.034120664810399
0.0381326151011192
0.0339216562676345
0.0376818225410129
0.0353828436046878
0.0392857444027762
0.0364502027188622
0.0355801916171867
0.0352925670426093
0.0362208433497039
0.034757960554178
0.036128702486234
0.041352133983173
0.0377029485349048
0.0378552614668698
0.0367945806744041
0.0362211633663163
0.0402707886637421
0.0345872186865333
0.0389576320309235
0.0357005845484173
0.0408115973729316
0.036004401179788
0.0394339058633915
0.0390255110226534
0.0364318201031591
0.0403951782199653
0.0401248318104069
0.0389909038903984
0.0426219404112049
0.0336116390365276
0.0481557507912467
0.0334361430031625
0.0526378744161537
0.0400471544927492
0.0419239124885046
0.0404528107885287
0.0374599163914274
0.0410636634152985
0.0379367927544144
0.0451691758392159
0.0368233830452498
0.0470960944393193
0.0308947302054075
0.0496591956890744
0.0322667984751175
0.0494705040954462
0.0366493643612105
0.0442070027431249
0.0389002398613372
0.0466599895487552
0.0385964539401754
0.0485012200679515
0.0419192501149066
0.0565107901962585
0.0478655868634384
0.0389783057008212
0.0464824242702019
0.0473421708631497
0.041559525843296
0.0510831640593564
0.0403894223540362
0.0476030524623303
0.03731942181063
0.0489233981530151
0.04694264723932
0.052064842103909
0.0471744801908386
0.0465676739325747
0.0472298451363635
0.0528282551411001
0.0480940624337803
0.0532953586180333
0.0437999659705773
0.0520113709221782
0.0448220543112927
0.0646502766151728
0.0369168732984299
0.0713871620864407
0.0444347794403374
0.0663149005822498
0.0506886387881127
0.0608640408709148
0.052158565607256
0.059208599887507
0.0578712520297304
0.0622847356427706
0.0543994020091278
0.0631526387493007
0.0512424659377498
0.0614147511548332
0.06235285211251
0.0559648538273172
0.0641684712254592
0.070587618290604
0.0733374845272455
0.0732075160686204
0.0648321597192996
0.0674282354102691
0.0703747771092518
0.0703906463155596
0.0718105761284635
0.0640883854103298
0.0726652978812244
0.0703962847758211
0.0719902631216771
0.0799347867235283
0.0727940457549878
0.0791125850606187
0.072952266111714
0.0788615947253808
0.0767924648455145
0.0984028639861019
0.0823697646759049
0.0825417164925628
0.0912279085225798
0.0707665049181062
0.0916446622394512
0.0805407969910855
0.0874610826287289
0.0862164007450232
0.088308650943771
0.0885781691178166
0.0868255909239048
0.0969835098716707
0.0868447231119821
0.0998462049316578
0.0963881817145738
0.0975576586083251
0.0963748087738807
0.101519038742143
0.130767368352347
0.0782625253137669
0.128334719073647
0.0896039116296227
0.125546818042723
0.109775561610139
0.126958200647383
0.119558477858906
0.123442147946609
0.125224631978432
0.131428456660489
0.130576967219837
0.137684943812159
0.141094009669612
0.1462035739109
0.145005172478012
0.158506207288852
0.154134428430581
0.177974670339169
0.166566266759559
0.167972469380379
0.174466833016157
0.182043660250733
0.176187284674752
0.188943792656614
0.18070652512176
0.202330354489927
0.200414424778937
0.20935544452245
0.208456746737108
0.209672615703323
0.227740187610348
0.214248833640424
0.24488898549469
0.211882719099037
0.253261797260062
0.227766825766093
0.252410261645212
0.241344683143328
0.25094935033348
0.267173901861632
0.255775820864
0.273415452950209
0.27133636606521
0.273799980557185
0.275258834124584
0.280520152369096
0.284346715795649
0.285655591634538
0.297144584849624
0.295018571245759
0.352540349138235
0.261286977608186
0.302658138384474
0.284886027767559
0.298229886781561
0.305395095998457
0.297784223031559
0.325820725723492
0.310630926950984
0.312886512081318
0.301987013616492
0.300601393440731
0.30251015705453
0.301254842843481
0.305833353563156
0.295880328097012
0.316545335769717
0.289311249783585
0.323539648281693
0.293972432468613
0.322278541727639
0.305821983792959
0.301060957097785
0.303310007246059
0.305612471283562
0.298601470558996
0.30722163821624
0.309928147258106
0.29700889049956
0.31233792091439
0.29424198040369
0.308692608927336
0.299785681541879
0.308993751798899
0.293158889049583
0.291749254168981
0.298390533737734
0.285831025527405
0.300843085100683
0.300205832916055
0.292878102743427
0.293602135023118
0.279052004129979
0.291171884569511
0.283959837435145
0.289702315395699
0.288375022549066
0.290503989437449
0.286668642691667
0.294162369838963
0.283190661562356
0.29565567338719
0.285718514202702
0.293996331236798
0.288865474144915
0.297272128779229
0.29371162830217
0.295549943598281
0.300879922623886
0.301098131009675
0.293902900417397
0.297050050661466
0.295263915746422
0.300657178155543
0.295556944233271
0.301483411790481
0.298440824943348
0.301918324165346
0.302542273964391
0.304761996623771
0.297901691374217
0.298283090900573
0.300462471592359
0.300794324161089
0.296556257986611
0.301059508546679
0.295389878384863
0.295407053849407
0.295424216667952
0.294583909766317
0.294259443840993
0.280325131228008
0.303548700848721
0.285578574765878
0.296290444499901
0.276468468097289
0.276008520612917
0.280920220284366
0.265117921028866
0.288221174773924
0.265125957971843
0.2744999737423
0.26033143188823
0.259501579761167
0.257052682313969
0.263443512372206
0.252732346729923
0.256230109560121
0.238094611493824
0.26212480679855
0.233033951837731
0.2749469002266
0.264557589930712
0.25070049012817
0.233483814977733
0.233163899904361
0.239432314970179
0.225676887232394
0.235969978030157
0.21483541124663
0.238929939988111
0.217382854903733
0.227094019566282
0.222004341720042
0.217539015549857
0.220605920559792
0.225369097296219
0.219691649101466
0.221423130944035
0.228123774266651
0.219634528753278
0.217793092240955
0.210596631497264
0.225883417631455
0.19858825364914
0.198853103395871
0.198385883374064
0.200799477247776
0.209682462282557
0.192579897145839
0.203396414142637
0.184927619776685
0.186368528549429
0.183675042259451
0.186356533198378
0.192117046486031
0.179598625206327
0.198567967091783
0.170393550471647
0.19151063920052
0.163124200891904
0.193633751865523
0.186335539137053
0.192372663389414
0.169672442451612
0.177569685740142
0.18330004699273
0.182843341174122
0.178374927150211
0.164852093322143
0.167061184971058
0.175965668976149
0.15939883828422
0.17001879071874
0.161015987652719
0.174977317109588
0.182219146593601
0.168949067564725
0.175528314191957
0.160458033869891
0.157965490704276
0.157457416519815
0.154820764709422
0.165524543967171
0.148761830924911
0.171169105966016
0.151946782283554
0.161539732568258
0.169200579734489
0.155894704465737
0.168478160546751
0.164469254834537
0.163170009824125
0.170442557697166
0.171998056433218
0.189421881644614
0.178552122000855
0.179142860994316
0.182921383717103
0.181654926923046
0.189934155302644
0.183020741665819
0.190367714223204
0.186694533916228
0.201252116088701
0.205077756909443
0.206417158878176
0.205184216437031
0.209315366571121
0.213662014544231
0.235033704355499
0.218275283898238
0.243690948746881
0.222040824713685
0.261872441573545
0.239040937460949
0.251497817732078
0.253786447121753
0.256518453981338
0.268047640341099
0.259913902815623
0.271619076170195
0.283709888165317
0.270234690259344
0.284582560783422
0.275824080112207
0.29256825070411
0.280577563639393
0.299525520512216
0.29691402443559
0.322652052933122
0.30928883177645
0.30336094211645
0.314977049821997
0.299369166071158
0.313332354736473
0.308834235281375
0.32059490976912
0.31366550064114
0.31196675722158
0.32968321801798
0.322678818778996
0.321934993779185
0.319905506910073
0.32098839885833
0.322684581640684
0.326850923129845
0.33290041110599
0.326483134809496
0.332046534246271
0.338316203843663
0.333132941758893
0.360401650221114
0.349025056150585
0.350177822641565
0.347261385398315
0.35150204960177
0.361683528558489
0.353103457067481
0.364510463053622
0.365043653588138
0.366221510639769
0.367776909790527
0.37067163326671
0.375687620035518
0.372427869876064
0.389022626842798
0.382057526401623
0.390168329677879
0.384540879716995
0.394150971594126
0.415658910718425
0.398214492657928
0.409902241865766
0.391268637944838
0.408739611083411
0.393580611728204
0.408519826318338
0.395559985933138
0.407345002476793
0.401373683862154
0.408367397464304
0.396578077629347
0.402720582847656
0.400946931439623
0.401996332208959
0.408423630627662
0.404644877331815
0.401153798624265
0.399201819048627
0.401121603438252
0.400817536738211
0.405391228453482
0.40299904126521
0.393761596739491
0.402398616758455
0.394183053193774
0.406635520576841
0.403579760888847
0.399817788260865
0.401087169696679
0.39540128098796
0.399993999877141
0.399864317787577
0.395154145586696
0.412919903028958
0.400874262141992
0.410368742078342
0.398129515840319
0.408253549330244
0.401047192202873
0.413664874040721
0.407793783757415
0.417777645280073
0.409548337797019
0.419991735774305
0.41588641204944
0.416304394674826
0.419128785290466
0.424654088795795
0.426092516669436
0.422983964518019
0.413922276321734
0.41755086510428
0.415644310764229
0.416864551372008
0.415295962938776
0.41360664230924
0.401060288347322
0.409099892071996
0.398544997953607
0.411607682611745
0.393198588843903
0.406260490700552
0.398135079209756
0.38492470445248
0.383234808670951
0.377483784157565
0.379794363497119
0.37691914275
0.369703836440758
0.37087571341702
0.366558978490212
0.36586947854277
0.362087921804011
0.369606106124581
0.364237217003064
0.363788221384876
0.365145582404722
0.363299852064986
0.359688502218894
0.363468325166196
0.352115324066552
0.36644142945269
0.355721435524511
0.358271172789916
0.363501001822212
0.359173347279829
0.364686060278026
0.356777166669084
0.359277072836362
0.35599729678772
0.357546333482074
0.356429563828037
0.355407859898234
0.354543913678707
0.355804098312778
0.354563628629854
0.356265725409831
0.355702151483495
0.353854550957611
0.354105039814204
0.354936873180211
0.352319063593191
0.349230929505964
0.351814229497485
0.352432571922994
0.349804530135457
0.355477275017521
0.352493721591674
0.352712304441004
0.358827459399081
0.348392612584809
0.35616054455873
0.358634538696062
0.358050441039858
0.357935665886566
0.34987770044891
0.354790601670485
0.352966019082201
0.352507931551762
0.352849979083866
0.35289376922804
0.35311013551
0.351492779199459
0.35295506771062
0.344669239296323
0.345164520231474
0.339763249411185
0.341407246966565
0.332312936080818
0.335086082232313
0.32865497121296
0.326083973311425
0.32695895558897
0.321824806288134
0.318280467026603
0.317035561043513
0.311720810894674
0.316777879414311
0.307964179238784
0.306525326044688
0.310535530677017
0.305529573656168
0.303771968417697
0.303084749212036
0.302683900117655
0.299881394813427
0.301691679422371
0.302349933737375
0.299578470683399
0.301400420053606
0.303109866383229
0.299548754093752
0.301854549349973
0.300287225397593
0.305562967398587
0.302727601812072
0.301856994816322
0.306391636945062
0.304841023203612
0.305488791457674
0.308908796148315
0.311868295822762
0.311122573779333
0.313524585711727
0.315967908200539
0.319195371456175
0.318756242931567
0.318402434351677
0.318682789624305
0.32074037832234
0.318260203019761
0.319590434224954
0.32211103702394
0.324223203937952
0.32581089950302
0.318895707033379
0.319309330262693
0.32018439530474
0.32151906837002
0.320942036635314
0.318462237831404
0.316070680428717
0.318939524364111
0.315980468589474
0.314168139402291
0.316107772217787
0.309740568170593
0.313342036756981
0.310217405250642
0.304816829067877
0.305951335355833
0.308092233692936
0.306984315937675
0.306860887239654
0.306538316471585
0.303715550393618
0.303805593094114
0.301781441458573
0.300938559651515
0.3014321159542
0.297493396421399
0.29750195328264
0.296962108594308
0.29683447190742
0.292736258503441
0.294199453664411
0.2929362360455
0.294336277835528
0.291956628764131
0.290598318957158
0.290405356609973
0.289213783060197
0.290607962858946
0.288845281208665
0.2819413100445
0.284546586592397
0.28136456063279
0.278050765960044
0.275724870393757
0.275285676843797
0.272946188427206
0.274361798895439
0.268837073240324
0.266295785835796
0.266313226728466
0.26350443367611
0.262485955773242
0.261997925393281
0.259128019441686
0.259201489502227
0.25808263676576
0.258413696522462
0.254947631977661
0.257519314310007
0.254815638847123
0.254874845782709
0.253742044941129
0.254277123108894
0.25227260599314
0.249289252967906
0.246527326313004
0.244701012057984
0.240389547200942
0.239339038549604
0.234443841771402
0.235428108708891
0.231836070951652
0.229892573397938
0.226339615842847
0.227038611589402
0.225991708672205
0.22802806465766
0.229056443263228
0.231245769201554
0.235426717864859
0.240663782844538
0.248660317521559
0.253079664186414
0.260330983561515
0.271324765488512
0.281290942904876
0.292413620630585
0.303340250956539
0.313672693277021
0.324853997259818
0.336081365098076
0.350600124970432
0.360424052831538
0.368547883150353
0.386169471970499
0.39326767212479
0.40400824677786
0.418652168066125
0.429619841950788
0.437028034926684
0.448124503326921
0.455956443481696
0.465882488509911
0.470346281930327
0.480910938660422
0.485698179129346
0.493321313818578
0.500914912794702
0.504605774736825
0.510149720511837
0.51721224802653
0.518500510797547
0.525749201245185
0.522707790893285
0.531700402508655
0.531214226926384
0.530589764257878
0.532239910728382
0.531249950678913
0.532259332462873
0.532301667662496
0.532438283655765
0.532683960759959
0.537591372217367
0.537226192088045
0.537268817496218
0.545150400679212
0.547558296280053
0.553219113388891
0.552934585860544
0.558628630141267
0.561329825054124
0.570971418119149
0.567599751483227
0.581383795105375
0.582112406164716
0.592505228142584
0.598745471121733
0.604625553114187
0.614026589721199
0.626077428481842
0.62792643610717
0.636479082427995
0.647295499898509
0.659333455135027
0.663723080099264
0.674939378507447
0.679136294741338
0.686620991366254
0.692069016283024
0.694484201849701
0.699557851870642
0.692804228282655
0.689689292357411
0.691059008327272
0.687724227313196
0.687974753291877
0.679520140928693
0.680131175541104
0.677287496426998
0.681492381261714
0.682235180665694
0.689312459140541
0.692841491513295
0.69392400176017
0.707597543616338
0.712127884992701
0.720692354954058
0.731497656633911
0.74162438874077
0.757647303166879
0.765887193537386
0.779089645934703
0.792366025340444
0.810570361790137
0.811752045080171
0.826693426311933
0.834327982730767
0.852517822662453
0.863294434078211
0.874452932152473
0.887947595310132
0.898686078647518
0.912377851977544
0.936870816143668
0.951836867788097
0.972078756287824
0.97666908845525
0.99981427248382
1.00549707317441
1.03026014240952
1.04358522721371
1.07586869046621
1.06672083763133
1.08009996587298
1.09634307435922
1.10522984379497
1.11124704447383
1.15636011002389
1.13526406152789
1.16195059033591
1.15530018762743
1.1493793771522
1.15243478756701
1.14787371176199
1.14596859280128
1.16252089922551
1.15646012392855
1.15936379210112
1.14604840722978
1.13611990138982
1.14096341383998
1.13317144263016
1.13244090391524
1.15324213699262
1.13718828441189
1.12926165297203
1.15965745095004
1.15034762271333
1.17840045128074
1.19652644567856
1.22785517843684
1.20897603296919
1.20589730495864
1.2216955614929
1.25812083587684
1.25874803665507
1.27524682451572
1.28599136868228
1.2930791082956
1.27942832746621
1.31595992710001
1.27315271798728
1.31606568971861
1.30598788004039
1.29655717013258
1.31452587795748
1.33203325617824
1.31855218059582
1.31105764763633
1.35776441855071
1.38692883376105
1.37307392743296
1.33295485775204
1.35529577825354
1.36209791610872
1.3891247454572
1.37662206576399
1.37465027454922
1.32649244587625
1.34123578077733
1.38835608086956
1.37327541923633
1.38201528612471
1.34775784058065
1.33165882965605
1.30796927053571
1.31328966390421
1.30393202892079
1.26704210843403
1.25513341002116
1.24605680158079
1.18612542303464
1.15939102171574
1.14246954947167
1.08722321383659
1.0401114553423
1.00376451572894
0.957991433174348
0.945001281321941
0.898742002145989
0.889632221987408
0.861806159696921
0.848810169609406
0.83160738949256
0.823330972840758
0.812808489552957
0.80091742989699
0.792998956133408
0.789225687983778
0.792415433741618
0.775972775061264
0.774834046132131
0.752065567635633
0.745536894525878
0.734971558273172
0.728045558969295
0.711973468151072
0.699076638649177
0.682222086644919
0.658274178433297
0.645159310843577
0.634924861559599
0.60945023291645
0.591654660905687
0.573159450699466
0.557507332477496
0.534352686915308
0.507374696077489
0.484613763466954
0.461616320183257
0.437359874319199
0.418325152994751
0.400768260911395
0.381216826741109
0.362138150678086
0.34794595647894
0.333582204695005
0.318870652102179
0.306311200307529
0.29573100926942
0.28499027978689
0.276902616991021
0.271190295600199
0.264072439667049
0.260434066073975
0.249618978652971
0.248410850794832
0.24646686350304
0.245376544476751
0.241737459966454
0.24376520071057
0.235582313438427
0.236100570390775
0.236434392706121
0.24020612808349
0.242468469837347
0.243494200972877
0.245104190448978
0.248206792749735
0.243559133107629
0.250681142741977
0.254352736278927
0.25209711264626
0.245296003391626
0.244944659794454
0.245816179167712
0.244872703573945
0.242114031569457
0.242837147919338
0.240918237785847
0.237984772623669
0.239082297754245
0.237797282224239
0.233874911085841
0.234156837396393
0.230599509962313
0.233233581096012
0.234195428126736
0.234608129364985
0.232918921766417
0.235296766375035
0.239274098048038
0.240665127210671
0.240567538229913
0.245816347440062
0.244494816942891
0.250855431763261
0.250818627333211
0.250777116732905
0.251497998213552
0.250788591710733
0.26132641457076
0.259497076883372
0.259989760389342
0.258774423410513
0.255068073620363
0.260847965814211
0.262201028055086
0.261624748374272
0.264482059006129
0.266215046943822
0.26788685067158
0.267216835440935
0.2654662139236
0.273042933161771
0.274488091739054
0.280444959975023
0.286816632030815
0.295930994022133
0.290558230938012
0.301509117130379
0.316814539640325
0.328103505229239
0.331170996592049
0.337654385787545
0.351851744196754
0.361181219032105
0.365507191333433
0.365733966523698
0.359445071766093
0.357737305035377
0.357084363227319
0.357756988381234
0.349597557424819
0.340623338619064
0.331097622709251
0.325799010278291
0.314541453923748
0.316676247884932
0.318081304935854
0.314953588641346
0.310179679090432
0.320503616056349
0.3149496162743
0.316666489171515
0.316802818139283
0.313345572935781
0.312030254030822
0.320410726225536
0.315860761834693
0.306922887414688
0.308731526036424
0.305168800722065
0.303766980617922
0.297367654011454
0.294923444546124
0.290648673799601
0.289532135875528
0.294093927105511
0.286696079524378
0.282925539777174
0.285305005975007
0.276127238601555
0.279338804645225
0.271798934461925
0.275217232595452
0.276235665228073
0.264457897214294
0.262712499631873
0.261371089631608
0.26476893555118
0.260577477635116
0.263161248914899
0.254018627138111
0.254972737208355
0.256468511683614
0.256089674570414
0.251606964361073
0.249279914103269
0.240015008921324
0.23831054531926
0.24330931465514
0.24209184176162
0.23719905556742
0.23780899994369
0.234176082597992
0.236151037963821
0.242206828750342
0.228330108695777
0.220253543652306
0.237499642159238
0.227369069235447
0.229954683620244
0.235265638953221
0.225855592232258
0.222618384720443
0.224786247867257
0.22475281626605
0.229025277406038
0.22925218630509
0.22746369363959
0.227184433550657
0.231766561853563
0.226379584558879
0.229320476732031
0.232755760393491
0.238070437221385
0.239001171423663
0.242120250353348
0.230180980399453
0.238176938105128
0.230152304698096
0.228450392656251
0.244510875004488
0.252523547108958
0.241355780757239
0.240202145326419
0.247714381978703
0.252227420591945
0.253220332661601
0.25306805017668
0.258476652400117
0.261858114424058
0.265706838632397
0.26464402642793
0.272093019065705
0.28707291183684
0.282459769647432
0.286220198672073
0.282938155775208
0.300855659861575
0.30042851472409
0.319957215448182
0.33869859910406
0.351765646952203
0.341053814535171
0.348885384456584
0.368913690079095
0.386243804150699
0.384547321247121
0.390779415505491
0.40565103418695
0.429325328241057
0.422345851871285
0.441898219715209
0.436943515031851
0.443041583347289
0.434676954421035
0.441698317183171
0.425958198523295
0.425499494569983
0.423895741991002
0.428802821911923
0.441653533794656
0.414748254204546
0.405215312959931
0.416633996678571
0.407693549023809
0.40607462719906
0.392449704895063
0.411153144778527
0.411856959136227
0.412324753531592
0.390253551662104
0.39854212486336
0.402651978326826
0.394058708465106
0.388299461990108
0.383013701665668
0.383921899389146
0.386276080564656
0.363810398843414
0.381382874780098
0.364683715907666
0.355578773598623
0.354081001794809
0.364385935564354
0.345845955600328
0.378599405086762
0.358258314211122
0.365080771407063
0.35557471699039
0.338408357368358
0.346127706943861
0.372997502206745
0.354455323651001
0.371268603015059
0.367610587068748
0.360461390007984
0.36424781568508
0.385620791679789
0.355353084349724
0.361000342546729
0.380720597954584
0.384309503598816
0.368355425352745
0.378320490598964
0.372123475080662
0.376495815973733
0.370427833956354
0.37559603862602
0.375920076408902
0.363341412362897
0.354259385963562
0.397415191839522
0.365863846165091
0.385996206430872
0.352330886609411
0.371077947898307
0.402008871308626
0.41278556720819
0.387665054370375
0.433815043061771
0.429127890097421
0.395375709382469
0.407888151721091
0.454401154645182
0.427773020513046
0.447482445448448
0.449301678649797
0.459991785737638
0.462445464774646
0.488689498666839
0.502056291577789
0.523402410778704
0.535181781839712
0.527707410344341
0.510492480548313
0.507302587892818
0.511392078536691
0.526877374887133
0.516623547891798
0.560263064479448
0.493495417667152
0.492553593470672
0.511943002101894
0.523823464690723
0.534273503451111
0.559672570252327
0.569878135656554
0.482634872860747
0.486356154394221
0.547191022963217
0.495459031960434
0.487145357471052
0.436295797598147
0.492596070474963
0.48191402476784
0.464379345783254
0.53509214532624
0.481310217980703
0.489238325805278
0.514347198645227
0.490064026666466
0.497732467151289
0.455978015760706
0.447961368176402
0.461213266768692
0.451159800704958
0.440192452362131
0.492809190036196
0.435578977326038
0.482793622615411
0.501740051609011
0.472494059685537
0.473912231234987
0.388700613941185
0.419385434635661
0.653009562178212
0.687608923859352
0.466556598843382
0.585167224291545
0.585282872518018
0.572504433767391
0.678841333317336
0.571329625435863
0.518641511483114
0.491371977441177
0.656613425572422
0.690351975173103
0.491531849679041
0.340483283863804
0.47648636228672
0.365781330506495
0.408375305435027
0.69067530901137
0.58138908434657
0.34563247683922
0.646026512496212
0.584950227617672
