3596
4000.36533379555
650.420452594757
1
2
2
0.0436999129112889
0.0469125469431533
0.0550434700246504
0.0436386086002111
0.0577673421436928
0.0426180173155997
0.0505564322000367
0.0410019494897773
0.0526727041613709
0.0392449708322606
0.0440190955797721
0.0421804958996723
0.0473580463069402
0.0382489830637848
0.0465372220522828
0.0394433052731435
0.0507502970349466
0.0442770329204254
0.0504301635422655
0.0396990139237145
0.0566919892282801
0.0309244628961013
0.0484179172349895
0.0431137043167335
0.0519648184695592
0.0441634929027146
0.054793143152345
0.0368945866283523
0.0458379720558856
0.0410587192234084
0.051926733338981
0.0448694175271567
0.0609352149951009
0.0434632220716965
0.0458487223855838
0.0371374689962494
0.0529743713397475
0.041915677359287
0.0487039603989394
0.0450416736456173
0.0497360230970406
0.0336150456721538
0.0458650387655
0.0455380179285261
0.0559585786878258
0.0476606595401194
0.0523802614310764
0.0468957169412921
0.0560831484908301
0.0462197900301616
0.0501499901134203
0.048524452693308
0.0437820931605248
0.038924986008098
0.0603294332028311
0.0405345384201548
0.0497223506975975
0.0381803130020774
0.055492581000722
0.0470627831100984
0.0524265528270518
0.0389661824784659
0.0521663636221507
0.0482815567138944
0.0507698420454345
0.0374965932979462
0.0492325209033957
0.0382334231940178
0.0564465901907608
0.0364246568073415
0.0521245331443636
0.0513034038046436
0.0569540039313252
0.0352330113424251
0.0472037165473119
0.0396587645021567
0.0498160052822524
0.0378098846073898
0.0518259193201748
0.0344395625741316
0.0517062537098615
0.0352887743226529
0.039108049079349
0.0338669634647534
0.0583223525744741
0.0395362581249216
0.0478034802670873
0.0502397272437172
0.0423361134872525
0.0334193623871738
0.0501506949896021
0.0346042318842565
0.0420207789097371
0.0318137957706823
0.0419744869860605
0.0299381655810148
0.0399666948187441
0.0377917259491021
0.0495466766579825
0.0427243459130037
0.0465286956684573
0.0619743187872298
0.0417901704939969
0.0520309188882806
0.0388634808513144
0.0357929995360459
0.0656010416969397
0.0402915782394868
0.0495677357488244
0.0337763742585266
0.0437532335011487
0.034416249005681
0.051852629289137
0.0343082907000928
0.0568169609788784
0.0473564411066106
0.0501596379355405
0.0325234077381672
0.0404130719480686
0.0333006105882295
0.0611491918269204
0.0587634010717613
0.0371345813552638
0.0439622089826858
0.043283558955134
0.0323572193169696
0.0556335741376884
0.0480157421795318
0.0294973462654798
0.0368011191606357
0.034881905107351
0.033912123831974
0.0439210745090748
0.0622162789997572
0.0471912866075151
0.0452394735580328
0.0457012088234575
0.0498775721187739
0.0699654491157532
0.0208169936807249
0.040055062206254
0.0366676534079291
0.0398119300552465
0.0496357580926239
0.0448415448313619
0.0271852786520985
0.0465694409469879
0.0463359773109514
0.033448243610025
0.0311406835975496
0.0422841392144699
0.0410370890431423
0.0416407819188596
0.0369051360967856
0.0676260116485941
0.0624092542645038
0.0306883890679138
0.0549004381498103
0.0259773333596186
0.0420609062593007
0.0267782026146467
0.0412563638628438
0.0421374195420793
0.0397353180371478
0.0356865044819203
0.0433042447055918
0.0517024866845554
0.0328248677119723
0.0448587840407883
0.053113557590704
0.0435613056932137
0.036708172521167
0.0654936655505665
0.0347965439156015
0.0362888496122043
0.0427689133338527
0.0425067698797754
0.0320239692558667
0.037629812642253
0.0490326308245695
0.0294624419906021
0.0376683770468599
0.0314073106837601
0.0398567762031107
0.0504344612797857
0.0398348036820741
0.0348346874963488
0.039358527543722
0.0340060802002892
0.0522161097064607
0.0537348748213065
0.0513663778287721
0.0329846269438067
0.0401366735377073
0.0242851921339423
0.0612884101061335
0.0558275881356153
0.0287515092153331
0.0434924625133913
0.0324560138491901
0.0320114073343732
0.038651141243952
0.036967030242722
0.0391684014674078
0.0415533301303133
0.0587618515366935
0.0397337572878338
0.0371411062047645
0.0283170612950634
0.0364236563439085
0.034001128169255
0.0623837433418871
0.0498767809900356
0.032996561035706
0.0344648484755886
0.0264822337490488
0.0525783587022446
0.0479696898701761
0.0270282005226215
0.0371083182085257
0.0358133428088526
0.0435880220458946
0.0389821226569368
0.0349668921980186
0.0376483308329834
0.0382973625516236
0.038488668132227
0.0338491958487658
0.028383773748433
0.0444998376978958
0.0415423317424857
0.0357260245113183
0.0351662041355091
0.0352856569781276
0.0406835478918152
0.0508196266313637
0.0339644385539628
0.0448301425151937
0.0395891340754684
0.050158320127796
0.040188167233188
0.0377685554256586
0.0371391850771292
0.0448071877529718
0.0384455010286163
0.0610129780706932
0.0284272104372062
0.0476788970467141
0.0354437054528965
0.0525899800530655
0.0454683770639702
0.0484612469375461
0.0371048624961898
0.0345552787383788
0.0473476978887451
0.043971797022304
0.0439924244213572
0.0364280757478044
0.0385992794668309
0.0453928743060983
0.0446761760498076
0.041111779600908
0.0477885223980354
0.0453522683339552
0.0903108884145996
0.0454633126141773
0.0490417626190905
0.0711595919599404
0.0219618934124459
0.0453108823230609
0.0418162006890685
0.0363778267022251
0.0800789295224589
0.0747332621810435
0.0495385448311986
0.0399046491277397
0.0436474587356162
0.0311168353509167
0.0436171378990959
0.0515624965961542
0.0501692681108463
0.0693676560235572
0.0580464380378478
0.0755041862206274
0.0226142930339944
0.0628942707769462
0.0430665889583333
0.0362961392170713
0.0416735509399086
0.0381726433125139
0.0378683195388885
0.0526244733555273
0.052274809462729
0.0398948475919359
0.0533960442236736
0.0442223427837422
0.0638635405431119
0.0502957991176948
0.0497129027612894
0.0426320641763921
0.0526034456565099
0.0491698566634766
0.0534336285894278
0.0400267203040407
0.0504532289281818
0.0519186091398529
0.053125448006633
0.0773231614773487
0.0463391742476266
0.0483442966251632
0.0623527321750107
0.0478474501299084
0.0538737920267983
0.0447623240787168
0.0464038464835355
0.0450644894300888
0.0535647152580187
0.0465519554024634
0.0662807783674517
0.0592561999850092
0.047835335302421
0.0532195694631172
0.053351481161541
0.0547936751159795
0.0544867601311002
0.0640399644253577
0.0541728149485324
0.0628595349050208
0.0549376087759429
0.0613315896726078
0.067628891629614
0.0522447605793234
0.073442263452394
0.0663608413578609
0.0402109318112443
0.0599786450105461
0.054368293908625
0.0636376696828975
0.0563042050762033
0.0639727732525391
0.0609605614000795
0.0641933282082753
0.0750080303757814
0.0755691043148871
0.0623156917981857
0.0855225955433837
0.102718758021177
0.116011336148004
0.0623328983726874
0.0764114773577391
0.0676219835990784
0.0958156907901934
0.0989364734660708
0.0652707006753507
0.108220397223423
0.0711044813502541
0.0790571671591176
0.0786173896777748
0.0897896268503455
0.0813321405680055
0.0854628500881096
0.0854167732047979
0.0805159381226787
0.0928414839632984
0.0915851613294533
0.0995994515084205
0.094783911267454
0.114157452838468
0.0909816073554689
0.0956694424182797
0.105556131399468
0.0993640088096733
0.121515353876409
0.136061432626438
0.109106114097591
0.149554599544337
0.117672322944901
0.165195439522087
0.112070679728534
0.129954283020199
0.109772724124863
0.126696647782704
0.120723647490268
0.128067699942671
0.119179268978737
0.132896655116462
0.127628257824285
0.146308025940604
0.141372292216032
0.150997599280685
0.128606903671331
0.163733996578083
0.142338627817658
0.155964804309611
0.148918352161221
0.169191473001174
0.188474263977965
0.193371416062675
0.154359868298563
0.160981293469333
0.16561745271351
0.164567900405906
0.18117246316277
0.174439275736149
0.183351053753404
0.181551214506878
0.196310359148233
0.214002140869704
0.183313677433034
0.212292378081168
0.175476736771842
0.218089436596481
0.211270663741923
0.210006458655478
0.211465603797994
0.20721685765
0.202426797443487
0.235328675708305
0.228475575269742
0.223135699933985
0.240467967633554
0.231686263540826
0.224184035590551
0.228268026431635
0.231561363323946
0.235096429007028
0.238812091627685
0.254681529996956
0.23841651460855
0.261171623033475
0.266047563587382
0.25438509442971
0.257683505217229
0.290195428424039
0.238206421687949
0.289116969014559
0.27112903139941
0.286263802914142
0.263182704989837
0.304528728151773
0.311419889626565
0.322821641020694
0.338630505346139
0.29282581767809
0.283003232304508
0.32147001610632
0.296643829021871
0.311272616026009
0.308992771698074
0.334077681274992
0.323291266542754
0.336512277134367
0.333789136223862
0.348166909211356
0.327572382646316
0.349910206037876
0.341463970310822
0.363733418668443
0.356446348090838
0.362615447884134
0.354638029635107
0.393354223404955
0.395627738216361
0.390215217540108
0.407790605927632
0.401864178666467
0.383212114615954
0.398836485765934
0.398848167071054
0.429246492738905
0.418040732870641
0.433999148876397
0.383288728050651
0.447491468670009
0.419028079923779
0.424911419915759
0.417059642237905
0.463855755732622
0.445919601825574
0.476688887039715
0.439578057198866
0.46984140228673
0.436375938350775
0.484546575940145
0.474806069606898
0.501037560672052
0.459288873958341
0.492688916813509
0.47929283095312
0.484101217892473
0.466517307191346
0.52910511281932
0.49958126993006
0.521949325947692
0.495992817651589
0.519607438070141
0.513754969981357
0.566708663593969
0.552971510525267
0.57720040503759
0.527362878748904
0.547865621621261
0.537337299454769
0.563287611045836
0.580954911345039
0.627366024990891
0.58140671378503
0.60399188088215
0.545302219452503
0.609690076661378
0.581999617284427
0.610677315684332
0.596846863440375
0.628207266852703
0.598799713643643
0.642722300449536
0.572695893116912
0.66250478019728
0.617331681420801
0.669044957539167
0.665272613388652
0.70725107379815
0.616942358735339
0.656318133764265
0.669403658243701
0.735538048779638
0.707011701833743
0.703421960783863
0.688759105936954
0.725559095576705
0.643988223607839
0.723036186443045
0.6688061871556
0.713952883441971
0.716286532272739
0.733204950889351
0.732027429185559
0.765517817422876
0.719059881141379
0.773840515385715
0.733629482500223
0.798303761314432
0.745289383750961
0.828158058846684
0.753319958901055
0.805391807321961
0.777205289303073
0.838179765527194
0.789000366897018
0.834491073354149
0.806628419519132
0.884755596148402
0.814548778244735
0.883790412019286
0.792071390165278
0.857523148615455
0.799800251245372
0.875233289641178
0.812070288344637
0.928598235184828
0.842790931526305
0.89045626231707
0.814689663497505
0.868803389625917
0.854713928541304
0.893403380010213
0.860206151898657
0.950114090629225
0.832630452540862
0.892506999191754
0.83170885864756
0.998311322504954
0.905252988226208
0.975817209470617
0.919870187614087
1.05258704843729
0.956066559070541
0.97981320711786
0.890719600913501
1.14394051251562
0.938699189729319
1.03822233289803
0.949766660948737
1.04925530245623
0.958509934000236
1.1233938605531
1.00111830449785
1.04015287666287
0.942869414898369
1.05075235106556
0.963631423989492
1.1041011375305
0.99426703407971
1.04728859588598
0.992663930127646
1.13327963855887
1.06457065741855
1.05876701464259
0.977984079855834
1.15964741061845
0.984147700951028
1.12223003253745
0.938901712395694
1.07884926786098
1.09396548780934
1.1956553087242
1.06916518870384
1.16092704646471
1.06015688189741
1.11450103514477
1.001151515751
1.16276045263052
1.12411967898218
1.2423828201416
1.08131506690344
1.18483531248808
1.08314579234643
1.24184331182365
1.13748451666514
1.18248455653502
1.16627620608705
1.31438717254502
1.12583625587877
1.29350165132042
1.13028375116479
1.157472303264
1.16371311233981
1.27618599376304
1.13981601738505
1.34354360069636
1.09758467229386
1.33815759624438
1.16154267187557
1.21391545610001
1.13816588511131
1.24866060145199
1.15130329525889
1.34794311101667
1.19814181177839
1.29230296614585
1.18833218224951
1.29560480108081
1.26057853788621
1.39463400504362
1.15219834034393
1.42700755676816
1.27547154719001
1.41837266472865
1.20122820483211
1.36880584743431
1.19850702520708
1.44239917248195
1.17538860967796
1.3443285431407
1.33506158344293
1.43058753886068
1.33484053169366
1.35783185596135
1.26727947981295
1.46392599027623
1.23170269174311
1.38584533920748
1.23525256050945
1.49900152877871
1.18328754827929
1.33379557373484
1.22463343756338
1.49529257696739
1.23174279232562
1.32713349870003
1.20809848855756
1.32560167043606
1.29649531003276
1.66415712426227
1.28965296287407
1.38794314417046
1.4097122365825
1.36036276019594
1.25109057615632
1.49793016212673
1.38785699104028
1.6589499989264
1.30008406791641
1.55976544469758
1.45822685552524
1.36479320472623
1.3196443838789
1.63980652036354
1.46412043317042
1.7026428264213
1.32043518369205
1.6496005490642
1.26869732671531
1.52132037200405
1.25400738071435
1.49891111465806
1.38375894790245
1.5462057255787
1.41732427471494
1.82164671776117
1.45211612670652
1.75252254802794
1.4347405983174
1.43028798369733
1.35510812239861
1.47263084122987
1.27839800562576
1.4600843405046
1.37297722484307
1.46523160309832
1.40343891419798
1.45660817380103
1.47865496330915
1.49282449413441
1.39331420715274
1.47097430730472
1.52106480949936
1.62549265030553
1.34528557992472
1.52277909287763
1.37133957790547
1.63269909359536
1.36529745624772
1.56082517452568
1.32780865308415
1.85880241557137
1.36819370939091
1.50240324115947
1.27265247487408
1.49800922798446
1.3618828089693
1.51571218855156
1.59532159897011
1.47701491913996
1.48998998904012
1.46939407979299
1.3942578533553
1.78690361934371
1.37181327613933
1.4689478553127
1.34524404507824
1.38485629626447
1.36071238383377
1.7451497396182
1.4285727988865
1.53720287901848
1.40469415540662
1.43229542649381
1.47763429781407
1.54316303849541
1.44667339747679
1.43994778310091
1.40339093492701
1.50167307584718
1.47254542833267
1.48872661074147
1.40250369606041
1.38166652580259
1.42113701484862
1.48186983762912
1.41193024329565
1.4590006468763
1.42151242222382
1.61031927317563
1.44832606255839
1.64009579370862
1.3325912232249
1.68401991077608
1.36774752106095
1.42171332673513
1.42617319625899
1.51486421229996
1.46136922023696
1.44217443935963
1.45504815162004
1.4796047069473
1.43676867852335
1.57724137802136
1.49296072271579
1.53638078874106
1.37456147605343
1.43776243729367
1.50123102073542
1.50576995643301
1.34624359085316
1.58260918062551
1.4334973921338
1.53601945821301
1.3914160657172
1.56530871257158
1.45401495268729
1.51164123594224
1.42966237642701
1.577315300077
1.4511709085764
1.46732129622779
1.38844934446758
1.32032351735337
1.35076129010774
1.41241256114517
1.32511784334091
1.38674489877974
1.31832268205996
1.50549552559658
1.40887013392557
1.4258343016037
1.30243668196507
1.38026617955853
1.39716249761183
1.48604670963071
1.50194996185904
1.46870307984881
1.41812938330521
1.42964654992719
1.34846651720679
1.46668599726526
1.32265025212496
1.4109728206103
1.33753823892155
1.42957406976703
1.30327389976096
1.48197560537809
1.23734873357617
1.43991690500288
1.31314269886747
1.43660635511132
1.33915718205717
1.34717506626248
1.29615719906575
1.46218830680884
1.2965798210909
1.41317142435129
1.33698128417459
1.37317225564797
1.34719655844743
1.39999120488489
1.26866385848007
1.35523683093278
1.26161455685993
1.51536119177453
1.28963864371067
1.38033703409442
1.28013022103439
1.38366937023449
1.24621045447497
1.30400187935341
1.33140340717901
1.37101758708656
1.26315725942728
1.32750130893694
1.30609242693247
1.27857806245404
1.30214862006853
1.28948971741968
1.2652486011876
1.24817730532577
1.24851150176926
1.27999145360142
1.2186775972309
1.25950979704975
1.21032398108424
1.2626343123567
1.24431672355638
1.20822610523382
1.22184312157831
1.24482510715116
1.2477921606085
1.27578249672385
1.21210127467655
1.2370803441391
1.21561968525943
1.22271284057254
1.18768182229335
1.22728097611043
1.17219108124594
1.1698593516267
1.14342605693622
1.21634628798467
1.10528924329651
1.17954183131193
1.12760313257815
1.09273192978167
1.15825719351666
1.17484044931153
1.1365169002258
1.18107220669215
1.09465529943361
1.09244366956579
1.11000183837539
1.14200545934811
1.10062573157183
1.14801509613872
1.13409353920627
1.14021402457735
1.04602066424724
1.10640915453793
1.07311244159903
1.15410280678795
1.07346465096268
1.05318879073877
1.05059140289055
1.08837337239947
1.06775397792254
1.01678896514266
1.03226043245287
1.06535068282658
1.04537863498355
1.07527049590676
0.988102271439252
1.06639054105628
1.01354903028875
1.08723721949364
1.03271331062329
1.02843037767124
0.995659686629131
1.01331074412118
0.955453169321849
1.02215571097556
0.975372189628283
1.01294310791431
0.957946544873834
0.987546375038099
0.929031668353149
0.995308669208917
0.93588092418979
0.979119851897215
0.968829045620748
0.96314455465803
0.918362094223608
0.956225802913244
0.896442169377986
0.951262087908775
0.925050936333854
0.924907823461862
0.910699137084689
0.920542517942459
0.87483193312312
0.914954285606727
0.855545447603434
0.898267423224654
0.878944393292332
0.91933755693953
0.877382152369593
0.891358485729702
0.858523147395173
0.899056497708297
0.857314315493595
0.881944542647927
0.876140452029935
0.884061540287363
0.834833577842908
0.840878228089352
0.84009224179863
0.833010579588448
0.814006431057145
0.825529331424822
0.799742354379992
0.807046577783791
0.807926998776771
0.820622966075491
0.783703248679536
0.822524065088442
0.79148138834262
0.796871916774773
0.778581459780666
0.797207645692486
0.777447379428985
0.778362137649689
0.779308983521943
0.783070406052355
0.764071745639042
0.774445545692495
0.755211647044264
0.775361966869989
0.750299396249446
0.756808551696041
0.727972779430821
0.768085168826091
0.742049406167816
0.733136951120651
0.724280665558201
0.729764528733639
0.72008053473996
0.752470730034319
0.714115474205735
0.705471865067683
0.690810900113858
0.709107179175103
0.680610207238017
0.694737359868081
0.702325766456364
0.702775555916256
0.678165703601244
0.695173690823428
0.683082550450533
0.694172600140033
0.661867971619459
0.673213716120072
0.658263595756806
0.669340283802658
0.652496359396194
0.665732842394051
0.642079983465048
0.660120680840366
0.633665726398726
0.658592982560998
0.645694191728709
0.654292416643802
0.637448945453325
0.637588956370484
0.613678051640734
0.625216058698291
0.611988524502433
0.624979275833745
0.609094791729279
0.633305522970427
0.596701245675509
0.599523225709772
0.605585997910072
0.593482396179739
0.589300122597763
0.608860946008047
0.587697462426685
0.591563366439047
0.568708404545248
0.587127334498937
0.582457324579552
0.595517933431702
0.571141036401649
0.576345768460649
0.564892913342184
0.571617295063604
0.575804771744524
0.555224218606899
0.546219460582976
0.552301970211232
0.553675144991774
0.559550042375518
0.544094702930741
0.555464998252161
0.544620251070684
0.550747000769924
0.535608591063242
0.538500201921981
0.527002356142485
0.543435246313968
0.523483938221381
0.528379009386466
0.512190988080089
0.529328940207409
0.510363698054044
0.514546707494252
0.514671921204066
0.52131456280093
0.503022555400599
0.51203589359711
0.49643954265841
0.516446445629013
0.501318680616336
0.502182572800988
0.491530687775698
0.49927745856839
0.504287077999977
0.497919972030195
0.492379322595344
0.493487107001918
0.479797721207162
0.501062578037319
0.486415797422173
0.494219561857772
0.485921662384598
0.492010519014621
0.468431367132051
0.481094843390091
0.480543393454454
0.481027851479201
0.465582109938169
0.482491325512725
0.477573062360333
0.493058195156641
0.475887219893823
0.47505807322351
0.483872992477095
0.486991864691855
0.472493275281257
0.481432435859785
0.466889438295446
0.486488942892797
0.479914977507763
0.486254370963077
0.481657651018105
0.481124225124302
0.47218367348184
0.490088575199955
0.479182515676442
0.49108118025136
0.484210271441754
0.502798331233426
0.500538763453218
0.494365727371624
0.49902648380269
0.507381119278837
0.502327878228814
0.512241788894144
0.498731531390156
0.513596671712408
0.510057969700479
0.503486341150269
0.504648357024133
0.516606442898472
0.504811970654718
0.517397990622968
0.51389577770939
0.522216353233575
0.521291265731445
0.529447962168727
0.523128374906837
0.538873804127397
0.524369334235827
0.525476769940089
0.528515019619287
0.531605699905779
0.538289166305149
0.54691451485714
0.548390237883223
0.562045666504947
0.54916377396813
0.563399457672449
0.55943604940704
0.567166844366259
0.55958504209613
0.573602682950322
0.572263853437618
0.58926545205297
0.584531513797089
0.605687434515762
0.60127322909749
0.60726942270668
0.59597272436527
0.607541935985291
0.610424263546333
0.625678027461603
0.618507742314499
0.615658322513055
0.620157781173741
0.639610894768654
0.626838728768269
0.644521669469573
0.633547236965452
0.640483717089795
0.617792247712896
0.64852032531174
0.630970701339705
0.643487273421807
0.638603931970216
0.6373393046801
0.63096227836638
0.626750919028198
0.617096340234429
0.625299109155115
0.634713337161994
0.638502201663281
0.623828297116728
0.631204217642877
0.616007679479036
0.632417253203041
0.623352764743358
0.632483558545467
0.629595497869102
0.626623886105646
0.627258887523823
0.628159807338483
0.63202917983491
0.644721315258934
0.632453545011002
0.623057517880384
0.631428124630891
0.632227257953275
0.62162952294299
0.631444278427237
0.617222304653867
0.638702925477617
0.641076543583892
0.6382336899249
0.632675196615877
0.636414785028471
0.634443410273809
0.63700604188374
0.632618104341929
0.630905501968449
0.632022987517512
0.650518222200208
0.629898452576674
0.635754908370149
0.630372203510983
0.637377384950571
0.632857717671241
0.639395007397594
0.641538638633363
0.648339717397516
0.623261552552752
0.635966964003714
0.637410996282792
0.640415904149862
0.626422133156357
0.625207040117608
0.629109643533007
0.637913551047627
0.614500955808251
0.613267801289981
0.605611871119337
0.616115873719645
0.610144835297903
0.598481856908615
0.593454104721954
0.612255608702446
0.599978824331146
0.590573300935253
0.591347955629818
0.587615408897551
0.576872385398141
0.577294959002872
0.563738026975573
0.583247327844435
0.567042784617668
0.574202639660406
0.56111436486649
0.564739575832333
0.557845410389516
0.548262694307321
0.54059138377667
0.535440856156996
0.523578055528373
0.538836558316197
0.529126700721288
0.524434747190699
0.520191395713987
0.523772964113468
0.508473119171883
0.508581125920948
0.509717637905477
0.509161714521208
0.493174903301177
0.495724085250276
0.494535691414602
0.487534036923305
0.48333644426649
0.495176779196682
0.481462244275619
0.476513316477876
0.47378166077054
0.471994209407368
0.465133653637898
0.471624963215559
0.466578015760468
0.459952203518118
0.457963894154582
0.461564788641566
0.454207705129915
0.452783813841657
0.44821576682969
0.45654943243573
0.449673846679566
0.451996800587399
0.443753173096212
0.444550078162612
0.436604375100208
0.437589637596564
0.434439773236639
0.433058769399766
0.434001359183533
0.437894604252745
0.428749189608727
0.433217908164075
0.422124701016244
0.420922669427287
0.414647366128105
0.423593886404395
0.419904574228685
0.420762448754819
0.411580450986282
0.408541067255621
0.41408197687733
0.417832170282176
0.409471884272243
0.411015977952848
0.409884758684171
0.405636869927604
0.39812328003654
0.405637521657593
0.398786678741139
0.403293576218029
0.401272585050129
0.401301252922745
0.3963237483861
0.390798138550782
0.39147247538922
0.394699509563866
0.389888251511258
0.38878903344897
0.392582576325963
0.390136524397037
0.389338015308945
0.393152011452425
0.385853025875322
0.386612045173424
0.376392537591706
0.378337275778629
0.378196544046266
0.37380639481692
0.373714570620648
0.378137063903725
0.375433810862033
0.375035865917497
0.370314600806279
0.37638936317536
0.370304747201648
0.367402562367489
0.3688720486654
0.367757922647042
0.367884958681953
0.367773638085178
0.365621409688159
0.367951799654938
0.360838126267105
0.362674646651813
0.364064488603867
0.362266032701518
0.358672435573258
0.359040791617919
0.360681019043061
0.359420601243759
0.353317465064645
0.357152578576939
0.356707293437408
0.350393523036213
0.346762216306198
0.350708480391849
0.349138580899192
0.349997441172212
0.355552072732184
0.34942814632265
0.34221921796672
0.35642225684458
0.345544046609575
0.345638097925454
0.348427039860355
0.349362630407123
0.343299310598837
0.347510174560738
0.345268464895733
0.346348954399021
0.345456321608671
0.342349600946385
0.343486633582836
0.342779760614971
0.3402536380371
0.345687609842404
0.338494725075474
0.340979370376548
0.338149001130301
0.339444425733841
0.341627474175433
0.339425770077806
0.339242415585687
0.339841052561418
0.336458322842716
0.339068437781594
0.336859654359476
0.339595327737184
0.337447156130889
0.335349599751846
0.331783605128294
0.332261717723076
0.332762670105179
0.333525598701313
0.334205713377725
0.328771357533114
0.32704416177415
0.331334327312913
0.3286252498317
0.328611211366696
0.327610144264654
0.328781134326451
0.321482031508261
0.325053374099525
0.322521359868979
0.323028551904701
0.32008606103726
0.324461373283914
0.323040868414297
0.318904921750279
0.321014640532771
0.321662254897937
0.311649112775798
0.318074065051542
0.322084999056364
0.317916092681894
0.314791206472128
0.313268936155961
0.313602613077324
0.311827250231112
0.311605286026866
0.318111522694338
0.312326025120716
0.310817659036637
0.309604206428503
0.310389353279854
0.311181903327178
0.311331629973278
0.31172409573807
0.307079821051628
0.305310250811062
0.300961228835896
0.305307995452919
0.30483589080755
0.302965743110204
0.304999119591493
0.300253123520321
0.300560847373831
0.299172071840913
0.296350582176624
0.29753563505854
0.294921324333985
0.29073328071755
0.293123874342074
0.294045152173847
0.290548863202838
0.292440868097288
0.293104414977443
0.286221204829171
0.287176592215474
0.291478358145428
0.293385077366249
0.291108718237767
0.289211675088848
0.284190269731881
0.281807399650736
0.281253873651384
0.280330404973988
0.281943576651897
0.279940907396021
0.278189515421384
0.271495662100546
0.277969937090738
0.276884945372026
0.272715759644656
0.273095464255306
0.267471870388687
0.270246451629018
0.276857776995709
0.271520476748015
0.266340476313992
0.267179661462037
0.265643215120556
0.262016562645964
0.263441533622106
0.265859831836391
0.268049278280629
0.264180182187017
0.26029053330435
0.262837761924861
0.25995422739017
0.258512397197705
0.258033723410086
0.259975681170622
0.258529282668535
0.251285483892376
0.25108307942607
0.25233630083018
0.249568844111213
0.24733864791907
0.248786520857524
0.248287979177464
0.249766558573603
0.247306187268018
0.248880142407297
0.240965103272921
0.240607731020641
0.242663105046136
0.238761119123287
0.241353470204288
0.240966183969797
0.240448261352343
0.241211109398142
0.24107805923237
0.238076730229588
0.234151628910798
0.236456729278274
0.237599466871361
0.238907423316577
0.237201701315358
0.2387362805637
0.235496227136584
0.23318317347776
0.232249545628449
0.230959539596656
0.230713031566723
0.227612929273352
0.22735012887042
0.227213745110115
0.225071326876618
0.226801223699071
0.222587546864006
0.225257338601169
0.222952290840973
0.222998210074774
0.22311030393047
0.222784009606977
0.215283007074047
0.221047178711484
0.222252978072351
0.222353931757324
0.217170201233591
0.21584325278272
0.216904508015593
0.216336554188422
0.215926368449149
0.217697167991655
0.217699093557991
0.214818578390596
0.219186208656798
0.211913747457505
0.214356825968101
0.214887797682999
0.210057909387632
0.212510404166854
0.213038868670499
0.216031906022325
0.214055843197532
0.209638163244093
0.209528251916874
0.209950909159325
0.206564529278916
0.20824048918246
0.203430970897142
0.207609127154948
0.204105294813131
0.208644156804743
0.209520979533821
0.208116118309369
0.205560785165436
0.204669699657596
0.204132891282981
0.203056735806244
0.204876257441737
0.20194848740152
0.200650918976936
0.20349838851123
0.204454490094799
0.204951641459753
0.202889418967967
0.202775509026256
0.20099101285896
0.20259732093168
0.202628501549372
0.199195375300656
0.201320726181665
0.197652215347595
0.198272751405856
0.203156316169049
0.2013438230081
0.198882605753922
0.200682005564579
0.199324252583406
0.19585417853344
0.194085070013398
0.196432374305705
0.195421191916718
0.193577386788829
0.196031293198716
0.194661893812739
0.198019237249542
0.19021864204695
0.193771292110364
0.195209489850083
0.193132593922754
0.189187325234824
0.195631298539134
0.189550614168638
0.192894219051941
0.188799350199206
0.187352775873925
0.186652637900469
0.19031791887608
0.186794832916416
0.186027900835519
0.185810689255601
0.188975613084396
0.183843770609651
0.186066452833254
0.183320406809713
0.18306982451121
0.188296664688613
0.189600313608514
0.186552586569468
0.186500586245764
0.18251170638484
0.182890698649525
0.182278852578327
0.184422132557523
0.183123662977812
0.184761914040825
0.181215135060379
0.180511551121155
0.17995411218597
0.181273552932276
0.182853753629298
0.183674386804792
0.17511592451907
0.178902655937582
0.182116762839502
0.182955099618494
0.177734841507625
0.173603966177819
0.172617186462887
0.177336249526502
0.176821225318414
0.175460574393807
0.174759046682268
0.17304957495422
0.174108136305943
0.175153719922242
0.169426387726311
0.176452816942504
0.17073267111231
0.173106850310798
0.169574720471074
0.170997419142486
0.17048908808857
0.172204211307537
0.169004169662102
0.171744733368881
0.167842887699376
0.167002023900167
0.166776350393686
0.165969144773492
0.164724217855639
0.168228579872601
0.165000575018801
0.162651814102903
0.162660129034034
0.163708398469729
0.158701458777707
0.163390746653495
0.160540980511378
0.164275107873608
0.160339527539214
0.160077953338855
0.159001391451036
0.16232032305927
0.155551802192365
0.156808306270283
0.155149412116015
0.157038421859263
0.156495331644972
0.156427802823766
0.153715477611475
0.154314990401598
0.151310691481097
0.153523037644282
0.151742524507608
0.155042806955746
0.149755459921157
0.155102522991942
0.150805297073929
0.150647870094572
0.147769282240675
0.148867783506238
0.147410218974309
0.14840399780869
0.145344146507896
0.14379949682992
0.146412017727047
0.150540175490804
0.143903615874845
0.146223810426737
0.140157647863289
0.144792607303874
0.143127090573939
0.143842782102578
0.141290636800963
0.144908283777504
0.141692000690281
0.143983777521802
0.140837721309514
0.143021386440926
0.13786910147134
0.139953440836109
0.13603461431925
0.135065524235531
0.136228729179045
0.135477293503496
0.134681174658674
0.136784273133541
0.1331113230559
0.13716236546396
0.133588220666311
0.136188450564423
0.132658504128746
0.136060029508674
0.134201531189054
0.134543489279963
0.131795586150137
0.134202427585435
0.131101894050096
0.134608391285135
0.130605465779225
0.13106936176894
0.129711621602475
0.129369531501575
0.12686952727357
0.129141151321459
0.12679914140596
0.129853316751284
0.123182096415982
0.12878428296432
0.125858012940153
0.127564739975578
0.125741322761143
0.126175899330864
0.12636932407628
0.126523321391097
0.121899524062092
0.126473358940111
0.123138495707015
0.125889115106677
0.121221808751832
0.12713961811402
0.123862945084012
0.12373371879097
0.122470576896943
0.125359178875586
0.12239327414732
0.121479000310782
0.123044055029513
0.126922958887767
0.120505777631002
0.123241032737037
0.121951077769068
0.123309951279888
0.122042217502284
0.125773097051985
0.119150171702317
0.122805567284292
0.121537902822316
0.120812137923253
0.117762571623537
0.124589074629703
0.117194648537088
0.118235202923181
0.11077011903313
0.116253847506938
0.112523773457371
0.120004482433598
0.106040884095166
0.116912837911856
0.115395026154943
0.115800195921923
0.110916154234126
0.124701247063357
0.107547655433815
0.125664048591236
0.110304542319633
0.106391987882829
0.112996134067328
0.116398990943479
0.116137217146599
0.113130793053443
0.105359564289054
0.115089153805176
0.110100504206472
0.114205629182472
0.107334292792059
0.115237546867032
0.104349749416236
0.108682547377399
0.106122369780863
0.10868856101213
0.109311418768461
0.107610247437137
0.110347058961432
0.107524579837252
0.110713587731454
0.109984755562914
0.116158113556555
0.104166622704175
0.117429687107165
0.0979657406941516
0.110560286431534
0.0938273559519768
0.124757702670457
0.102598844327803
0.130283334972334
0.0876836393001666
0.124280158910624
0.0887908579670226
0.140787380436526
0.0818760352413699
0.134697291519432
0.0743726938309297
0.152204033206138
0.0752806637004765
0.13810471385712
0.0808490809019595
0.14131591738733
0.0812554934152045
0.12557707972465
0.0931426220038972
0.11857398329716
0.102012916527428
0.106281428449529
0.111687353578369
0.100179437677595
0.1175989068813
0.100424451554123
0.116040723799329
0.101446974681989
0.106875527328232
0.105855979594175
0.106614081702103
0.108622761284758
0.098703538365833
0.109533016566008
0.105099935025441
0.106818706577243
0.103754122824969
0.104631330180476
0.106891550171117
0.104123579658464
0.108804835441046
0.10376809150296
0.104928003162223
0.106918755820259
0.104064337942031
0.106019264999127
0.106558259922166
0.105579707869216
0.10629447415168
0.106243115070904
0.105905659958219
0.103683401345685
0.106474943808052
0.106730837750953
0.106331920345395
0.108530444692467
0.105900070636136
0.103851973625939
0.105865447793694
0.104027204496239
0.105348788580284
0.103662744419127
0.103993242743268
0.103587586721385
0.108004877444201
0.10646580715767
0.107225788712069
0.10339103078446
0.105458529857229
0.104561085592186
0.10617016125213
0.105644290214311
0.107893712221594
0.10255950928186
0.107759335315914
0.105162107134418
0.10584135583414
0.106475572617917
0.105267799853734
0.105394450035197
0.108517837950138
0.104137846348763
0.102880007254676
0.101981273552027
0.10680065112774
0.106423384797089
0.107551568596363
0.102927759555422
0.104445482038702
0.101537739386408
0.105393167114769
0.101470959461462
0.107549556661733
0.107597366507045
0.106546356031483
0.100836624937945
0.105504453005348
0.105434024793827
0.106296066039877
0.10473048692596
0.105777354356417
0.103530840218706
0.106131293277558
0.106760558899149
0.106850063506624
0.103793898333934
0.106980170421377
0.104693885419857
0.10631215650254
0.102983367837465
0.106081065246043
0.10411484689056
0.106877352032023
0.103637794294633
0.107096554738419
0.105890482395951
0.10887916820562
0.103762673569815
0.107533898212008
0.106230291198336
0.107297051956013
0.105415207757183
0.108503041869803
0.105849325207544
0.108963800326631
0.106397555767286
0.108392750234557
0.106014858131222
0.107367810389453
0.106517292674535
0.108220150018837
0.106980146783826
0.109275662727412
0.106889822470494
0.111289536743854
0.106577896448082
0.10987397485966
0.107637832178879
0.111121768801856
0.108125950705491
0.108980452513807
0.109679418514067
0.11077091320686
0.106144443872688
0.11056026791946
0.107649087036847
0.112884672636004
0.109205628969712
0.11029156518096
0.108160051481819
0.112460751516559
0.109068029243835
0.110210014927586
0.108234139050385
0.11232442500139
0.108582350333168
0.110499936315451
0.107461503411873
0.112796896294275
0.108294598465776
0.110688449906449
0.107053397160936
0.113133359944098
0.111614783452206
0.111197211194176
0.108100811913988
0.112229149934094
0.110297482903657
0.112799572586666
0.112245785933909
0.112983958434466
0.111406370018412
0.112855614967665
0.114939382689298
0.114114256340776
0.113929189069704
0.11489543734854
0.111642975385681
0.112790929811226
0.112983662400357
0.11566817072185
0.113854551718384
0.114995340127502
0.113909948908896
0.114649682576552
0.113498006965127
0.116065210542741
0.115376668538118
0.116098767734453
0.11382030208351
0.117504797953609
0.11495922610599
0.115356520632732
0.114829317843536
0.11425896355231
0.113939596659947
0.116762254512613
0.114524201408096
0.11491077442696
0.113907652217759
0.115060695105588
0.112675153665722
0.112649215942681
0.114145242447593
0.115784620721819
0.113192840733303
0.113893946410049
0.112655483181524
0.113985509770497
0.114305809096982
0.115713196329923
0.111379345348619
0.113753793359499
0.112265015683478
0.112329615076191
0.111166209458082
0.114018023019064
0.110177633350932
0.111622196676657
0.10855690231912
0.114804061631185
0.108723208934885
0.113969830382899
0.111684539939024
0.110774903462295
0.11114689525305
0.110331805984484
0.109804467715488
0.112476695960085
0.107487198559083
0.111230140843803
0.108897228421669
0.112920341689477
0.111132201055638
0.111385507414139
0.108868423764212
0.11161968804038
0.106547236632953
0.108243664892087
0.107314455178323
0.110468181988893
0.106076316524231
0.110186990285862
0.10892752019125
0.109094536870605
0.106299065198263
0.110066539083969
0.108283471185243
0.107955491550366
0.106515461114698
0.107879481487976
0.10374186246445
0.109024601408131
0.107270186763173
0.107565733331249
0.106833892373122
0.109268652428403
0.105016145275381
0.107747070660253
0.108456496856047
0.109349203786943
0.106420283233968
0.108600245730799
0.105287301295438
0.103935783132019
0.10279514796808
0.107920354246434
0.103521600046854
0.106910544960924
0.104685059209418
0.108780824562335
0.104260226685826
0.104952440874179
0.104355684741311
0.106191896836958
0.105378407410568
0.106279588496196
0.103683001708769
0.107774116800903
0.10340465476744
0.106055460463181
0.104381607320326
0.10665759665933
0.105105771646797
0.106867824163434
0.105085220854189
0.107604133848615
0.104081477020176
0.103923392430719
0.105427161859554
0.104863795968293
0.103346866679714
0.105027873534408
0.103499325054167
0.102751657996128
0.100489435696259
0.105235287652106
0.103244590894141
0.104526183120546
0.102055172979103
0.102165037714448
0.101329071996915
0.100950946428156
0.103189055447502
0.103719850160381
0.0999289130065812
0.102719521504375
0.100453690563103
0.102244457813163
0.102507341546609
0.102991396791531
0.101637589885529
0.104486949322037
0.0986050579136174
0.102858232521274
0.0973996023486911
0.103353382616329
0.100048257412778
0.101189754790505
0.100654488964187
0.0998117347851563
0.0974577355283355
0.100935276906691
0.0974387263342136
0.0971216680218915
0.096817746691759
0.0994405086310219
0.0963091809180766
0.0977213969374457
0.0980507220758921
0.0956892600919527
0.0950634209555956
0.0970377638580721
0.0944504820589838
0.0983497175197133
0.0931697211683142
0.096666686253607
0.0931917240563905
0.0980910468179025
0.0917773772526917
0.09584558873167
0.0933568066634822
0.0943491084258181
0.0911712997223137
0.0940701318765742
0.0896296509947894
0.0922589827414356
0.0925193423981128
0.0923159203056767
0.088110812494262
0.0921819302713604
0.0899838647792929
0.0920552537860108
0.0900393219273611
0.0921330466027287
0.0881470989855182
0.0906847774438614
0.0874082663392759
0.0892041936170127
0.0858298707441913
0.0918908773566946
0.0883656527962214
0.089094627030165
0.0869809291000206
0.0903757452646334
0.092632438521407
0.0874260878203196
0.0900759223957412
0.089508900779325
0.0866087753666485
0.0839158297616166
0.087329918477482
0.084778854408381
0.0861699552775731
0.0855489982366377
0.0864427893697927
0.0880448087073924
0.0864621408652287
0.0860106354703465
0.0838352527548807
0.0850373271741522
0.0825247117703091
0.0859368665867469
0.0850183534772002
0.0842408201352152
0.0821044172437306
0.0848113045582856
0.084546234112867
0.085250940927444
0.0873667225832307
0.0824546683537295
0.0882736914290969
0.085069736965568
0.0809249365540465
0.0834503535681805
0.0795099933202373
0.0846861463166441
0.0812624938844264
0.0845242880545148
0.0823809695023454
0.0847239513225294
0.080763963939858
0.0848477597927054
0.0788109796988113
0.0826453858889358
0.0799249137519874
0.082684046461711
0.0815674829118359
0.0821971703134868
0.0787361441964439
0.0796473509210411
0.0807809608962267
0.0805792187950077
0.0814121199774007
0.0818161078240709
0.0776024797817921
0.0841633538412684
0.079125087043618
0.0943018021163452
0.0766982236277658
0.0855513894588029
0.0770826347071413
0.0796011522657754
0.0767114341304948
0.0827910145516698
0.0775925161673981
0.080483030380888
0.0772199415320407
0.0815944150099832
0.0751248414146772
0.0806458072924054
0.0771546838061898
0.0808626746993068
0.0755179623476924
0.079418423855274
0.0761169835780977
0.0788966472086843
0.0768829325537188
0.0809852930528072
0.0822416709838362
0.082155295792154
0.0729223508476643
0.0837114333503329
0.0749789004547739
0.0905953116135615
0.0802271545620414
0.0746704209286566
0.0790758732686059
0.0761199477670754
0.0790769890412221
0.0745358868849116
0.0783324491263091
0.0744730833796756
0.0845641834381839
0.0744722158727342
0.0802514608791363
0.0760618079607848
0.0774532395983916
0.0769986418685987
0.0777181689430857
0.0778595595747797
0.0787617617109894
0.0783512783009576
0.0752435875361429
0.0773729552071351
0.0760153173302886
0.0777349450848236
0.078953248214242
0.080995952704879
0.0816477832038164
0.0756835682817455
0.0783627161868825
0.0740142633187445
0.0793874767438109
0.0806941663124109
0.0900773535979772
0.069701525233013
0.079177548609991
0.0772149988597966
0.0745974651304678
0.0761473284988821
0.076152905855757
0.0770067754302079
0.076691526903179
0.0781829667084614
0.0757668653506751
0.0771596121458427
0.075077874121367
0.0771016155208759
0.0736760184806167
0.0790262613792355
0.0750226413766788
0.0770040229401724
0.0720375180509128
0.0777458876997132
0.0786646026159086
0.0905473371997547
0.0897780266169304
0.073344810618357
0.082788321066628
0.0753472007491509
0.0795168219531883
0.0742666739049002
0.0816987238707507
0.0762852925362504
0.0796774914533382
0.0730550539660322
0.0770412747931979
0.0726463726156612
0.0779054662147985
0.0727323450061582
0.0785560346167106
0.0724184629116218
0.0777412139310708
0.0739376559031261
0.0804744328656873
0.0743495105973489
0.0763522759738444
0.0735640498525198
0.079298564677356
0.0779289058840128
0.0801572700002999
0.0875034580041076
0.0809254661643143
0.093889610306676
0.0705006317913032
0.0889330552739358
0.0713697229414249
0.0843221879660589
0.0754916724902327
0.081270170993808
0.0814198394140139
0.0803710100128076
0.0754388107670164
0.0812720766524117
0.0781282789416341
0.0790052689975272
0.078662829437632
0.0875353974284489
0.0913681972508158
0.0862917159607289
0.0774593725869227
0.0871957159503552
0.0782415493911133
0.100218129741519
0.0778810950713956
0.0824846843831405
0.0819473953667665
0.0789670039087155
0.0833138479095372
0.080393193607998
0.0850059338813704
0.0829691763438473
0.0828858437533073
0.0818668351579358
0.0829496071168457
0.0789087755091421
0.084351848065203
0.0868215663195108
0.0861709377467395
0.088137608368089
0.0828485399214157
0.0853946147270293
0.0890917391975361
0.0811073870227075
0.0826888701106912
0.0810331148065041
0.0899454853121275
0.087395751815838
0.0934860869952186
0.089762447752146
0.0933951071440799
0.0923330101734571
0.0867043559752165
0.0919041729079607
0.0951295444138238
0.0835737015242904
0.100162725497229
0.0813193011532003
0.116710430437521
0.0837490634952191
0.102468269497594
0.0835379891155418
0.0918854911799573
0.0874140456027094
0.0929646795550811
0.0893186134613788
0.0932232056075172
0.0971263406398592
0.0811442420155708
0.103619280883754
0.0848395025950294
0.103655501615861
0.0857525656856776
0.0982152735499205
0.0909647918519953
0.100146954526789
0.0879260150787925
0.104224081228237
0.0927814903281266
0.125529250408127
0.104204420751653
0.0920313418070005
0.10522352316623
0.102007310536218
0.106218036670689
0.101024458273353
0.0947271733817941
0.106416983484419
0.0913863700916267
0.108788986863477
0.100782517739302
0.116885917139689
0.103293369166692
0.0991711127254341
0.10870595542124
0.109654522070793
0.112656952472734
0.113153846497649
0.102231363891287
0.110510682665342
0.106393125629104
0.127702038581508
0.100679213387128
0.139381441198264
0.0999518321449726
0.143661112566944
0.110017572500801
0.130306935131752
0.111716993713207
0.130250225842166
0.11699241905398
0.1327637264579
0.115251740981408
0.135683276717428
0.119714728471154
0.142794580606137
0.121622996485636
0.129135111120879
0.132924424376265
0.142904697828116
0.154494768320338
0.162706375349485
0.131830181292315
0.148588734573018
0.145153050283073
0.152852270167188
0.146668465329169
0.140973514806838
0.149717819320396
0.148609428018548
0.152965289967655
0.160122798759905
0.154228311039328
0.162426897826599
0.15105483914265
0.166119133814958
0.157576093030587
0.200866040100476
0.170475573892573
0.178956148709893
0.172777934570389
0.171071661889303
0.184702863305039
0.16868301061012
0.17884609829425
0.175636694208863
0.181413500962394
0.180917833221052
0.18013683109609
0.195656725723693
0.186995850009176
0.207834165361375
0.187871301297445
0.210921247677664
0.18764356129789
0.209538201054823
0.231569952177279
0.213365274647524
0.234705844278076
0.192986062416105
0.244023378872645
0.215933506279409
0.252146897075141
0.226410502437699
0.236063144413694
0.2410534467736
0.249090559614592
0.253087577763942
0.264734890282357
0.263874819067974
0.276121397493086
0.27539815016646
0.292220915839092
0.288980620340189
0.350450136794594
0.313324128938946
0.317328939452915
0.314827083384051
0.339912685194182
0.335611245649614
0.341093220953449
0.333007395945173
0.368541596445479
0.347497685612053
0.395063873301541
0.368318754629861
0.381276601924494
0.396080907045521
0.391909974652634
0.422836819945886
0.402040886535552
0.457193833842741
0.407203930036613
0.452010754320556
0.430171183059989
0.454910139175353
0.460644568118869
0.473963732433765
0.476696641338159
0.472584523121997
0.487819370344773
0.487687834003742
0.496114485784981
0.500551131980189
0.506275745486726
0.519619668375058
0.523182504148157
0.600617430309363
0.512043989368653
0.556093473119616
0.508461366161783
0.543923219186994
0.52835267823099
0.546387792674395
0.561434529589719
0.541062994993068
0.565457864317982
0.532170661280926
0.540301000000833
0.54696147265142
0.542958899965714
0.55150047795104
0.538317311164931
0.56755097538139
0.54052363607578
0.585967785627132
0.538686938069982
0.614988141827835
0.541755818215312
0.549226641253907
0.550427058142308
0.554731525002388
0.540158472759153
0.555509835113725
0.544636012607384
0.561839853768782
0.541290072310818
0.531665082003588
0.55294348234534
0.541622765679314
0.559458785069326
0.531532968652521
0.523299212987291
0.533629334223332
0.512512878648966
0.53386744841252
0.520661969624467
0.548429992228934
0.519137907980183
0.521024743721881
0.532877726790552
0.518608365487497
0.519691756381997
0.519052785750881
0.532408381904451
0.526868336587831
0.515962821574254
0.522167754544001
0.52757706735147
0.517299576498031
0.528899571469702
0.526242678624979
0.533636986134174
0.526600180270215
0.533793082921797
0.534704138958964
0.536380284306151
0.53062904300578
0.54223161774035
0.534256374604135
0.534053428896607
0.538848899698407
0.538062181890967
0.538874928191082
0.549012572615011
0.539875018287649
0.54220727029744
0.533602255492433
0.544030517514066
0.541636709465819
0.53704994436603
0.533165387216933
0.534502675440124
0.531482953713726
0.532785923017001
0.530465290580093
0.527806464062381
0.524830112051125
0.519954028060398
0.535967351211639
0.509498793989647
0.543445067763491
0.494339029917028
0.503444005425003
0.502287731008275
0.489880248972837
0.506651552006016
0.496017282830519
0.502901673703472
0.476293972743574
0.470426142714479
0.464766264509275
0.469980681426311
0.465834071431159
0.458046522454289
0.439394777263291
0.466278113977124
0.429134792115112
0.519879789466489
0.446287480120886
0.472996556670648
0.423375976777747
0.423045362703082
0.429142580292284
0.425716496836257
0.424111424767149
0.394455713759494
0.416795062210037
0.384864207297476
0.413579093932544
0.392242547988845
0.393950837627693
0.393859310680569
0.389721563431573
0.392856408803848
0.394891750236095
0.391986411789736
0.38931202990237
0.390963212382039
0.388451348252422
0.403084312536088
0.359713331491846
0.360865193894663
0.348208844177427
0.360506547914617
0.368786960318202
0.349206743161955
0.367533780447712
0.331638618437455
0.344110295983958
0.330162728999441
0.344005179766758
0.340266290681289
0.331970930419095
0.344700960254862
0.316914896067016
0.342211589470129
0.307869157542088
0.360934474314412
0.321434724425777
0.349827808263996
0.309312395540451
0.321681975455765
0.325349522832715
0.332620149023943
0.32466005669822
0.29824741317172
0.308390586918583
0.315457473605188
0.299581648385128
0.312483284919529
0.297881497796936
0.316929479927659
0.329378906992664
0.332934568315235
0.328438895019912
0.300817274511315
0.298768864080376
0.293777218058969
0.29225979419971
0.306270364972691
0.281324582865401
0.314255477168267
0.277364751875128
0.313830990589473
0.310209948381359
0.304724146408203
0.315273454310851
0.305743038269969
0.303284250038954
0.31632186505533
0.316618085121531
0.34664243078887
0.330338919249518
0.340738420044431
0.335431297458471
0.337906367455742
0.346595980371035
0.341383798663198
0.350055508055726
0.34888039840705
0.365234588536288
0.371502435901327
0.376529284673509
0.379839191076325
0.382222664867485
0.395813825898457
0.409518976412876
0.411566817408212
0.433077166305715
0.409086564357725
0.472161717010547
0.426871253144054
0.466808034745501
0.454684073695239
0.461956074421994
0.468459274031875
0.466744354932766
0.485789171218769
0.498442499207723
0.498292776234166
0.51223254746646
0.49555907509883
0.520288857181961
0.505428801376913
0.536793982574636
0.527110667154131
0.57656984298186
0.546333365009262
0.564586081512717
0.552590066991252
0.540661127083728
0.5524370441079
0.546642119988693
0.558895880624143
0.549318371440853
0.549838919169468
0.573881426260965
0.581498359273359
0.571778346821572
0.559687885392342
0.574191086491077
0.570435573305814
0.57692603546512
0.580680886600261
0.579285996312691
0.58654670515741
0.583696444622317
0.589224136893617
0.625500787561678
0.631510134570713
0.62645317770235
0.601620314383098
0.615055969955693
0.619669592201039
0.629190893817612
0.631229956169031
0.637813068982205
0.653696912427556
0.644423787136217
0.653260506084345
0.652040603918243
0.656590727094861
0.683216523272433
0.662649634892486
0.685268475487048
0.669521266463643
0.686210275627013
0.697069937579957
0.719946439573326
0.702872513494091
0.692225106790653
0.714363257812356
0.700701651679164
0.709890896350901
0.697413854990565
0.707368195155158
0.697273619725197
0.70886602227873
0.699351452346854
0.712508639023063
0.705311196425368
0.697913729261298
0.717315892048022
0.730673314510129
0.707510839149197
0.70948718779586
0.706933116559726
0.704040554886576
0.705590654206654
0.715276107230602
0.7077506651544
0.703199430476549
0.69758779349128
0.713487719293801
0.713877511945929
0.70784471466122
0.705774626287835
0.707499985211504
0.693351380246406
0.691770710905255
0.698093933559218
0.715693933823112
0.718436189051464
0.721440311538138
0.715824871053385
0.724024771751906
0.713945744565392
0.733155311883798
0.727737800082408
0.735086460605719
0.73144789483951
0.749684744592407
0.742112530115989
0.751444798418865
0.739331921625203
0.754195578177296
0.762888442969273
0.755915572465203
0.738893402408317
0.746052060104877
0.738701810679736
0.746901622083329
0.742660750781106
0.740226866745795
0.72465187211457
0.732760944835915
0.715112655305395
0.735612875862268
0.717869829738447
0.732577480860055
0.699276073044974
0.695759737644598
0.690697531444677
0.696845573528613
0.687333917913643
0.681613297291882
0.680795242507801
0.677629161772538
0.670136728758279
0.668370305532837
0.665844588266712
0.663935255855369
0.661458011408216
0.66154246224332
0.662659379175138
0.665361348594338
0.651295028283708
0.654282516817201
0.654225880259957
0.663941869688535
0.655461007425469
0.652822035216493
0.653688146951304
0.66540136620376
0.659382098414948
0.658296053083921
0.655835083474151
0.64826384974432
0.64898959747945
0.644541107914594
0.648457812256298
0.647107190275338
0.650826731178131
0.64180777300762
0.65013522345314
0.649327528690924
0.645917320117627
0.647086769829944
0.646350842129522
0.641522647997982
0.649746767567489
0.643175999195431
0.649243449739563
0.647675183674116
0.648250552122293
0.64067708889741
0.65490505030142
0.649378966534194
0.646743651427954
0.65055821029366
0.647290402664976
0.651791514572877
0.648475806740657
0.648551609694772
0.646934818638517
0.648264027188072
0.649708367613251
0.650112758845074
0.651075676022675
0.642105029985616
0.633067226095752
0.636072849701524
0.63350076080717
0.635690753677013
0.622665833041555
0.620588281222002
0.618573953592622
0.62104950003317
0.615001886812149
0.608718303122095
0.603384565781346
0.598965574169844
0.590354147877519
0.584041909000341
0.582830403545284
0.575539255002987
0.574332594538669
0.574550419207536
0.568600226823885
0.566700874856714
0.562156729473095
0.559338711870275
0.558657830496924
0.56183710483894
0.560922722029901
0.560059226695059
0.557195652182736
0.557924506691784
0.554275382180509
0.556102816074645
0.559849707020328
0.561153624613719
0.556396978430395
0.55937761311071
0.562220252833693
0.567647488464144
0.567615651705188
0.572269723334094
0.570473576437745
0.57100692238464
0.574889430011422
0.576229217862798
0.582330201741701
0.588138282840592
0.583938099869206
0.582879490863636
0.587131299112479
0.589502452479908
0.592044343492491
0.588888149945973
0.592874961078012
0.593107723828705
0.591630293635616
0.594596575655957
0.588992646301231
0.592331573761348
0.590606540867355
0.589573592175743
0.590507149012701
0.5880289502076
0.582390180787847
0.578498909050633
0.578391264853996
0.579972209275774
0.577745934828453
0.577995889298584
0.576261558136044
0.575388427054804
0.567348638382511
0.571051127387476
0.565652103497707
0.563861085197799
0.56272625717887
0.566155099626572
0.559237873096353
0.556989192129729
0.557918551956272
0.556855827827964
0.554094514837193
0.552338124778571
0.551415501821399
0.548529752558955
0.542817081935428
0.544593125446357
0.543351677785776
0.547565465318705
0.542939653337583
0.542678387179385
0.541936553264852
0.537803682146748
0.535431733301825
0.533689933381513
0.530396146032809
0.524918792882678
0.520686002559619
0.521024931898723
0.515522319757336
0.513737230575712
0.510359765645393
0.508391659576332
0.503333207734632
0.498211090936341
0.494276075577095
0.488292478752673
0.489212709379871
0.487427961810158
0.483125555084114
0.48267085440687
0.483105016270386
0.482897113976737
0.479536161412519
0.478771367040374
0.478146611484653
0.471579428615262
0.473107601073528
0.471424343220214
0.46793517055255
0.465486207308542
0.461291059242187
0.45617281066096
0.456232836236138
0.442361764106698
0.436175949080109
0.432570868761841
0.430583107091494
0.424556801844365
0.422615228314498
0.42077660027232
0.417209063063446
0.422493015879097
0.423127960145065
0.424505476356431
0.430994890853091
0.438885144323225
0.446471984727252
0.455872173956084
0.466310744198145
0.484364499729066
0.500185060944457
0.510437067050363
0.536072462472106
0.551954089378775
0.571407321312926
0.587044223512919
0.600116251427187
0.625304557404294
0.643322535627801
0.666298427037189
0.685086809276241
0.703212546318892
0.720597659013024
0.734969075760666
0.753996132520746
0.768217563113909
0.784440279450276
0.792513300634555
0.811311606149371
0.826800939777174
0.841634227081288
0.852383049995373
0.861248187388061
0.874084842907438
0.87518142043927
0.886502416115476
0.89108202305886
0.898725276033745
0.900123516800963
0.908907904894895
0.914189825191467
0.904731953938733
0.906555340486629
0.913788477789403
0.911922631625776
0.924078522776086
0.920052192202453
0.919728272710399
0.924205298269332
0.920401218194652
0.923522634996773
0.940516396436705
0.936275217047661
0.936758239293856
0.949470112717497
0.961463688968533
0.960516704164819
0.964849261071303
0.975551345456111
0.977966817732137
0.992314396313637
1.00702810528885
1.01286018454349
1.03472373539662
1.04218223781452
1.04606174790743
1.06953306327562
1.0951172198195
1.10529109668474
1.09949483017837
1.11543184636223
1.13049392362657
1.14121821297334
1.16487306934292
1.17967315886005
1.17579612182944
1.17953859983225
1.1853030328921
1.15386963578506
1.18995505206571
1.17500186765901
1.15536050332663
1.1568467588066
1.14329859309287
1.15194936932993
1.14155154519217
1.15234342714569
1.13852049549404
1.14641338322937
1.17429983580296
1.18212288442436
1.18316424874989
1.17840326759282
1.20785165139334
1.2407564745887
1.25426088091268
1.25719582468895
1.26006630588945
1.2958508586378
1.31203667375311
1.35086742580481
1.37342047027674
1.37822038950873
1.38109028772385
1.39698878751713
1.46336103767742
1.44942229466955
1.4779215027788
1.52782223193447
1.5031067199889
1.50336747119266
1.58657463550244
1.57805356331027
1.59290354506228
1.66959226139674
1.70574487984474
1.67702577606937
1.69512635000463
1.72079221854308
1.70958268825493
1.77402474474799
1.92540051655564
1.85111059678027
1.84728469847544
1.86786664822116
1.79903309935452
1.7745227773704
1.83242755212869
1.84419120512095
1.90110617502294
1.94611308891973
1.85592511454237
2.02860898981308
1.87767516894831
1.90965028693079
1.8671878788429
1.82565059950704
1.88897786095882
1.94511546676976
1.93737576280246
1.88837816000071
1.90634040608187
1.84613685732583
1.83798230822878
2.04523877578764
1.91078123107974
2.06891038430027
2.050633530736
1.93782557924355
2.10648535586008
2.01358058925039
2.00675614993213
2.08675013521409
2.0973577864766
2.08781823384046
2.06019504469975
2.19819381736978
2.44341328984589
2.02233219379547
2.17650688505415
2.2242972856716
2.06066107621939
2.10720735033436
2.17253862491145
2.22498791628545
2.30810535691114
2.25172223855336
2.29743416708449
2.17349168242197
2.13295472725367
2.61537560084034
2.21032020024487
2.92588927308962
2.1397392708341
2.10252016730956
2.11578174303584
2.62517845373376
2.20247315508149
2.62362122120569
2.23636843998689
2.35319866874872
2.57510512943352
2.27421844687137
2.08394792469877
2.04878824273916
2.20083507543119
2.28320284126022
2.26264047459026
2.2725049202524
1.9388073433856
2.10861804965311
1.87818298081098
2.14925023032331
1.78384974331416
1.91227638557483
1.81403030328268
1.85275252253721
1.73126027436633
1.67545857581976
1.64655114563631
1.68653702863542
1.64696883143092
1.73193931291656
1.60111197722437
1.62199588872039
1.57031714197893
1.56661318340878
1.53620178604143
1.59257579946448
1.52891645624492
1.59335020951427
1.51168885672317
1.53240663161867
1.47873168718118
1.4694109277302
1.40101959662513
1.39011192546962
1.36307965380998
1.36293619772503
1.32184955844276
1.30543386430625
1.23873793942867
1.18503263199103
1.15246036611471
1.11413613051254
1.07410797866504
1.02803498259391
1.00156162423814
0.973444563645694
0.920316964943323
0.876485231203164
0.848779408078567
0.825504129736696
0.793677060134167
0.761229087388405
0.738944959685961
0.705878557574681
0.690314962892994
0.672058751129678
0.645268770099382
0.644717355612346
0.621557951856635
0.623481057717098
0.604012484622134
0.597909076156494
0.600066961690296
0.591975863374609
0.584363862521928
0.588036474905983
0.587377727124504
0.582644857053539
0.586077453261574
0.576374839254794
0.583759001954345
0.589900884869808
0.584014205236445
0.595011147076675
0.595837188493479
0.594226092983009
0.597216437790916
0.593359868533529
0.570044149434432
0.585501144702208
0.575493745475191
0.580834971244561
0.567652018679172
0.571563351056957
0.569617173358067
0.557140349420826
0.55790744074052
0.557811413836445
0.552095128875866
0.553859441390042
0.548335581701201
0.549026344835466
0.551409509771345
0.565962508958888
0.559678057055544
0.563250067480792
0.567654212147524
0.571006622042262
0.572053863546167
0.582842328206263
0.580856790611336
0.583151087120527
0.582814306872386
0.586152038326249
0.593625479154617
0.589761789753872
0.595975437689456
0.594921766563945
0.591499789401955
0.599956672737733
0.595841572873567
0.594972101778964
0.594009426074133
0.605323434708768
0.594367241430791
0.604074815870089
0.608434583422937
0.614247044437642
0.610545154762122
0.628306399594044
0.633826019695078
0.64694963567468
0.654616998096835
0.671719535028771
0.674167950490068
0.701815978768054
0.717183760699747
0.742620851226772
0.756117409869457
0.767763045431117
0.782683961989163
0.788066517223633
0.773698767754413
0.797544521194943
0.788468501052461
0.779358268624265
0.758887111977495
0.760652327838446
0.734103795539017
0.741125910099964
0.70452098941092
0.721632391820467
0.708632613431033
0.69221735345569
0.702730133545279
0.706374818398091
0.701381522150329
0.714572209784188
0.702716431553652
0.706730595419813
0.71193330990588
0.711488896107381
0.705271184358736
0.701869739460756
0.693965197279328
0.700765431767746
0.679924453250031
0.675947555016081
0.670233259885851
0.662626577286542
0.658224705033665
0.666627846313907
0.63734719971633
0.656857147268921
0.643635093374275
0.642687053548677
0.636911876590229
0.627414966712301
0.640127610256252
0.635234194150199
0.631919100084465
0.625464545586212
0.618188803994132
0.622129804062567
0.61233699000168
0.610199465851438
0.60485186774643
0.616439493548322
0.587057209272508
0.593592876777755
0.572041302458959
0.595819796201248
0.57388867602429
0.568971611297208
0.570848588751513
0.581875212820052
0.573252345108799
0.566564437481083
0.563598918659157
0.58491640718668
0.549053714330357
0.563132384182186
0.545989929814573
0.562559121985431
0.551642170953742
0.555227243284166
0.538200997727067
0.540788569646167
0.538899278580249
0.558812789244143
0.543780426887752
0.542304434716809
0.544609224780043
0.542881700658432
0.532663735135566
0.559430642574787
0.531240761182526
0.539709540135262
0.549258314582261
0.564169554686165
0.550435703404908
0.5653373734778
0.56927669595417
0.558419394050534
0.549955045904809
0.561744708426131
0.564312804062498
0.568018686984531
0.576206526727135
0.605165602144843
0.576281583044561
0.599415548554795
0.580463784800713
0.586332402609245
0.590936723790288
0.610635383492965
0.604244533505564
0.650910237267156
0.632856312380246
0.625918239884816
0.627470039280942
0.660187439675563
0.647991744878086
0.685392438142931
0.670029735466188
0.732089273910616
0.706220435319512
0.767756121719895
0.763141678270667
0.781288077570821
0.797297471588781
0.824529135109411
0.787684751251597
0.827845729687414
0.852506715923273
0.95410757914637
0.895544772615946
0.930988051620524
0.913525805811293
0.993451586842438
0.922721349271343
0.908678990900077
0.887800905450187
0.919161463894085
0.905074579552878
0.942953976439328
0.933426942296093
0.950784686778191
0.918076850006099
0.956983593461829
0.918228394732261
0.911014920084038
0.887605565411626
0.929952589916207
0.925913790166099
0.901751882477807
0.862469069034358
0.884249521894337
0.898348540104154
0.847370797941927
0.837806399368886
0.850353373847854
0.80479611948727
0.872570865517352
0.871295440142595
0.860665331246528
0.831016337278086
0.856200468131632
0.848048163576821
0.813502129239338
0.826260331525692
0.804923590365764
0.818994643159178
0.823083322726873
0.766676233107128
0.811181884007313
0.845780944812818
0.810252360772208
0.837233063595763
0.851593308424702
0.798115518781929
0.809567491874326
0.837010193263814
0.864589522052459
0.825937404585542
0.770892594263029
0.808973878792204
0.799052171413112
0.774013117224301
0.904972106894707
0.806154614552156
0.95146430580056
0.847615863655214
0.870437422006831
0.83613286206325
0.833639694053115
0.854220390528145
0.910377871792994
0.851161393697598
0.875688028902404
0.747460130510757
0.962762836300143
0.917316243775124
0.931461540359754
0.868680416742972
0.86571035505056
0.943354073501822
1.03530529438489
0.916103562195125
0.92385389508869
0.924318314538554
0.953241547602114
0.919157556044922
1.04513967149405
1.12850590632945
1.06459892068079
0.896395804426892
1.02763523315753
1.00819151860663
1.03656386430236
1.16233628911133
1.37768048803983
1.33151048663396
1.11949640010521
0.955700918353009
1.09119210612683
1.25609319693852
1.1795854241866
1.0439022508915
1.20784705728123
1.08335344203961
1.03832039955049
0.996410746734228
1.00115546168561
1.02641393245584
1.1183038490127
1.04346045797729
1.21607657483471
1.08242960743582
1.20251161820772
1.00664114989852
0.965257707591205
0.881252690641394
0.929495256700145
0.963686787299502
1.05866435725247
1.02679110237335
1.18972689441819
0.925387535679654
1.67456693386673
1.31625805560218
1.15689306608748
1.01729483147709
1.16713072403409
0.826514780994907
1.25030665999388
1.08226198085959
0.99909438333957
0.998786923023187
1.62512246288149
1.53710775302945
1.29976319173884
0.725364882032142
5
5
1.56169405720675
0.968376218850887
1.03727403617748
1.24026061568727
1.4487050357767
0.792818016819924
5
1.26334969896974
1.31776289293379
1.07082894836261
0.912371978851612
0.890132115735358
0.798458328711669
0.860611309686365
0.91737715710986
0.482094037922811
5
5
