3596
4000.36533379555
650.420452594757
1
2
2
0.0272725975942653
0.0174865577347123
0.0292882661032074
0.01761093613465
0.0278624643141354
0.0223005542330012
0.0244111819424384
0.0178600923609468
0.0377907194920583
0.0236077262375609
0.0274148366127009
0.0240848573553769
0.0226295760454694
0.0127840331077977
0.0324399276559021
0.0173647673573453
0.0299829592002043
0.01625999100279
0.0219871330654167
0.0157555300022265
0.0285650154095069
0.0105447927304917
0.0252508700899375
0.019996171981979
0.0322798922244768
0.0208234079388476
0.027626097055659
0.0146863794407001
0.0305531673475952
0.0150325153919807
0.0268908706220005
0.0156967318646711
0.0228546787542419
0.0157289141092495
0.0270437892290421
0.0124787693295714
0.0242404246227631
0.0138131684354296
0.0206259362519044
0.0163211578424075
0.0266971110392198
0.0148328817991153
0.0233390542379155
0.0280649955088716
0.0299778081229499
0.0159268993566732
0.02852796832808
0.0213392320171666
0.0297748327823352
0.0132096239518782
0.0214510127216918
0.0193099619221842
0.0304011919566022
0.0237707439006759
0.0379433790775265
0.0187844734339404
0.0246874035685738
0.016315012453638
0.0346824677754953
0.0238396221923928
0.0389392449941946
0.0238310310947409
0.0308875973380591
0.024775946723351
0.0242683840972178
0.0154979424324468
0.0285822336192723
0.0132807351446213
0.0335588886025022
0.0188147298350606
0.0372748929045227
0.0255845925480936
0.0276210645037093
0.0122590152714608
0.0264930830328101
0.0167756242277043
0.0257203846740656
0.0101030054369216
0.0226944834785348
0.0213683064381891
0.032981465816482
0.0148166825814523
0.0217027390303806
0.0196349234392704
0.0444287746075316
0.019841604915374
0.030333866959417
0.0287030033515058
0.0332543644405703
0.0152331833043034
0.0242192363082994
0.0137882068622615
0.0286735981073205
0.0134023355759157
0.0229597202074065
0.0139032446455986
0.018980237534265
0.0172673250382267
0.0350161948401665
0.0184939198109205
0.0252536776233665
0.0414536525323774
0.0269605403576664
0.0293253763318178
0.0298245256593792
0.0265680506263668
0.0356334531027866
0.01567153829521
0.028870352131726
0.00719055808655324
0.0237453807144158
0.0172752299050265
0.0305086896538556
0.0137009023753301
0.0377297593482444
0.0248452708642194
0.0272541264265458
0.012421824407373
0.0244636550342584
0.0174290207992024
0.0427257707930597
0.0452454184074721
0.0287889989373796
0.0267381994806514
0.0264511716722881
0.0135461495280348
0.0388183118138099
0.0379029748900275
0.0193558780218547
0.0192872922631595
0.0187014744634012
0.0145857876991672
0.0227865499821631
0.032994481474347
0.0348170914812198
0.0235199392050514
0.0265503393915151
0.0321515765654959
0.0369540549164133
0.00797160414157621
0.0211178308155754
0.0158656413635013
0.0235681691618995
0.0338446314659319
0.0291189525743827
0.0112976850793761
0.0287810334561251
0.0257409057765714
0.0184562796812623
0.0107443032548932
0.0248755095553752
0.028938469096062
0.0327679678627273
0.0180110271080692
0.046661244115999
0.0348353255596031
0.019820822685408
0.0385226993036875
0.00865884754698668
0.0231488389511537
0.0130546431383807
0.0162556036660554
0.0208009397781824
0.0243314816571444
0.0196382912643941
0.0231913044358315
0.0393947725115164
0.0213707098738549
0.0295011704830132
0.0340184687025595
0.0229466252067434
0.0147252628813783
0.0380096567203027
0.0100941704963209
0.0205531418803857
0.0329039267489647
0.0277416815829015
0.013469976653572
0.0229632846125903
0.0301308957730763
0.0220378231642562
0.0191469405949597
0.010585409718104
0.0247163503279211
0.0303322386073814
0.022153132130713
0.0201465714795826
0.0191329021283603
0.0235085583876616
0.0309393083757075
0.0332965072055044
0.0385954427120266
0.0206759992564357
0.0219545177875599
0.0119588467825855
0.0404121373155463
0.0286692601433784
0.00465042932401036
0.0257969221081668
0.0158672935494866
0.0193459742451202
0.0253244341361099
0.0195678061089401
0.0161543266299288
0.0198457979217856
0.0395730185399114
0.0312203447912436
0.0247399496824799
0.0131508772185384
0.020062262131129
0.0136496878841056
0.0382882399365989
0.0403806690192775
0.0196710691313624
0.0181619816767853
0.0131861818229513
0.0351591343702811
0.0249555557870149
0.017399123881927
0.0230825760464782
0.0182515526768264
0.0220480569171562
0.0153311818505122
0.0151117463412803
0.0226061302513726
0.0193918161919811
0.014067107156063
0.0182161717986227
0.0178769464964699
0.0227107534624437
0.0250610785071644
0.0130066090528655
0.0149367776259797
0.0150690798784763
0.0226718367551041
0.030092133488808
0.0163970757242458
0.0216407043555607
0.0191726404764996
0.026932231834418
0.0178706529518081
0.0200196468641306
0.0198930403269513
0.0265685895509525
0.0144483287626112
0.0299038025248073
0.0123802272243801
0.0261294029708652
0.0190382699699474
0.0292986207453026
0.0206960776457083
0.0256424459933104
0.0184184114625221
0.0160866933055454
0.0198005322910587
0.0221236215972746
0.0301893875525642
0.0240146989160549
0.0230240511547334
0.0271158874686272
0.0251622409644802
0.0267655188449209
0.0254766426629081
0.0195395565174223
0.0615655906924912
0.0276986051934586
0.0283160107928548
0.0423851816678137
0.0225177485586747
0.0325851502569746
0.0158109740797305
0.0181235981997783
0.0630176636882272
0.0321680620059156
0.0245152578824159
0.0299925525016491
0.0220650056135445
0.0116860174437164
0.0247768840150677
0.0285847021036353
0.0313837796062173
0.0453879025195134
0.0347384410274742
0.0549919134975522
0.0131426288807275
0.0408214235759379
0.0237319579441629
0.0158383514986639
0.0197091001623754
0.0206281043964981
0.018207053629694
0.0260526178400374
0.029055106968801
0.0227649374050506
0.0254351290514333
0.0191252420272424
0.0439757154445846
0.0271814319577207
0.0281713353260716
0.0205012020597926
0.0277022926034517
0.0174846670936826
0.02561736913454
0.0163926563906291
0.0288606635868174
0.0246942445443849
0.0216779532501417
0.044916247250796
0.0348469667948457
0.0254676231396925
0.0340772125048851
0.0206767152823636
0.0253322794268003
0.0178605674375505
0.021876000833529
0.0198271283391135
0.022631502193163
0.0199228511800989
0.039297172942055
0.0276594413264229
0.0198036698112155
0.0261221864503994
0.021275828113935
0.0254033558379438
0.0214579714960442
0.0261887896597184
0.0292378221730225
0.0263992664330118
0.0167022135106104
0.0283329302279697
0.0304008617115374
0.0204376907868
0.0451482614939705
0.0433381598812555
0.0188077291811822
0.0294406867470156
0.0155478144155028
0.0290669120661144
0.0211180429774159
0.0267411483626339
0.0253847205635334
0.0280753775908158
0.0327700425828088
0.0356251581759424
0.0299733763347186
0.0366067496452323
0.0426906588579895
0.0704984307765979
0.0408025651974083
0.0339974604288772
0.0215966025284202
0.0415430505453397
0.0461762061407045
0.0320984371472354
0.0570567101245934
0.0283668910483645
0.0321495251809383
0.0322867377854625
0.0300862930582034
0.031757826241219
0.0369420333754235
0.0309810530379937
0.0322272790110551
0.0312903072375171
0.0336339031428547
0.0353761656157196
0.0350075147934424
0.0513097523125051
0.0417211301045648
0.0386569773468814
0.0384684870966729
0.0367126706045724
0.056361676850168
0.0619688957210435
0.0475320274069515
0.0785410066896328
0.0504350068635068
0.0905116778445467
0.0401668301970339
0.0549064092847983
0.0393993201057009
0.055359292575238
0.0486891917658867
0.0457945985939097
0.0496908728617777
0.0534228925723374
0.0455822317261498
0.0577426074490993
0.0458607680905124
0.0645578195326453
0.0469961921383089
0.068786305668068
0.0569392309709784
0.0585497413099287
0.0559576633160984
0.0673890178993446
0.0880051863516053
0.0888710806979929
0.0636894685604408
0.0782601848096923
0.0770127484450569
0.05582246943816
0.0732592197239356
0.0672145048307671
0.0713536137379628
0.0712885268340906
0.0859780351695575
0.0910454828838158
0.0764377699970512
0.0898176745559452
0.071541967258472
0.0966732084561096
0.0897216710747427
0.0843145347449304
0.102664061531024
0.0915913157104624
0.0813828853168478
0.103966706701943
0.114625514565387
0.0931216511025807
0.111473675308899
0.0977159832790882
0.091721112146959
0.0957759882637997
0.0926646167765148
0.102054410686948
0.103798905179735
0.118799099598189
0.106217550935331
0.113602997378122
0.118953868091968
0.108359718377981
0.118500535872514
0.131007791733981
0.108900485714516
0.129235058258073
0.110981273261317
0.125507249048925
0.114603573381065
0.138412727502447
0.143744527052314
0.127321762157459
0.167212252980033
0.143978355221832
0.127709986454094
0.136692331051248
0.138713846813311
0.14718237473182
0.147955599426171
0.158199893863338
0.154588869336899
0.162438307889101
0.156014095336449
0.163479375741862
0.1442902405892
0.170824952357947
0.162964328160566
0.168880699758648
0.154687779228057
0.174747811465763
0.17935756881326
0.178110588748336
0.191610454415963
0.181297075051922
0.187304454886398
0.209231520999265
0.197218042072631
0.200828292616993
0.189771373686576
0.200085720240787
0.19642308839991
0.214839906116976
0.201801140252025
0.20888803345792
0.193871330131908
0.215500382454716
0.207104238782987
0.222607530712289
0.209206603480011
0.217628531840209
0.229887359134327
0.249639013945013
0.229885275616937
0.233846808922094
0.238845500928783
0.25443984694793
0.231592347060157
0.270870241083359
0.233352317184496
0.256247024594126
0.236591499958267
0.270661853047365
0.255729253623972
0.282590385758874
0.268619028077559
0.276703620036597
0.283591384824039
0.289157734508515
0.265783029399676
0.292126341567377
0.274700618732395
0.303561036962828
0.294207459993745
0.306655175141448
0.300602119037784
0.310706387216303
0.304755284732301
0.318773396057684
0.310694842231452
0.325387451993927
0.317001795316569
0.341288534919066
0.327818862451495
0.316856922466361
0.317871316186656
0.342046526169283
0.324885069663524
0.356444725653254
0.349207862609099
0.354713145625156
0.345742338747215
0.369469603897516
0.354633723480253
0.383638592141717
0.369303540446679
0.394334551457801
0.360146534269382
0.380332003552897
0.367528911498178
0.419205104995312
0.38362324764085
0.40356033397381
0.381301133602819
0.388141833821923
0.38596902181934
0.41414842570674
0.393514477242242
0.411573323533983
0.382250334477572
0.423980541076971
0.407966262064137
0.442775581455989
0.406202736336356
0.465707475800912
0.430693902640596
0.482007959962375
0.441176742964438
0.461450343840639
0.440903739190869
0.478403647079871
0.465825015654381
0.476463339188221
0.422228847847406
0.485762681545487
0.453821153943778
0.479074831042744
0.47173720939652
0.483163754432572
0.461758288023241
0.508380361361523
0.492666359020896
0.517133827330779
0.490136677979273
0.518891718431178
0.495635301266626
0.516006128644909
0.509882648353447
0.518308892086211
0.479487243493116
0.52407832221105
0.525046994593679
0.550922415789702
0.530848075557938
0.554351242227862
0.52270220672574
0.576230325133725
0.548710539367528
0.550770857251531
0.524634682239538
0.569909605698882
0.546096749071744
0.587193863567516
0.529780433426273
0.581774614877344
0.553880584228593
0.585567868123854
0.552630108750378
0.586504152937947
0.554962922792991
0.591319728041113
0.588769981419579
0.611839008022037
0.587562579624738
0.615964621998623
0.597721959598837
0.618745911902836
0.574582048866901
0.647259854773062
0.593319860303612
0.629450050089129
0.588331758066761
0.624223797836532
0.585831541720631
0.654450293716087
0.599657652182404
0.63065003901844
0.60307097667641
0.671621710425977
0.586150106201063
0.688915700860571
0.646318891961256
0.719044201428475
0.639847159734108
0.646317478865102
0.627024061313985
0.671745747724076
0.648578513640255
0.666740052110127
0.666145407136325
0.685364410354508
0.627679457687989
0.703451197177503
0.649835140513433
0.704176248994554
0.655687499317625
0.692296317649961
0.676457446164683
0.718924403449092
0.658320539883388
0.74371202640913
0.659010589160235
0.746080394938317
0.66982911186911
0.693530416548948
0.700643811441668
0.706052274448961
0.680085665909689
0.705071656524414
0.685762993105238
0.735613708103551
0.678913058225524
0.727519694802346
0.695188212127428
0.743517419268446
0.676125586870349
0.760755429064196
0.706874999583793
0.758796782253095
0.733091744521549
0.772131089911912
0.718641558911739
0.742169398442744
0.693166676951309
0.760819700858558
0.721146718211434
0.756528100751806
0.738551408945453
0.782859276813297
0.754663287748369
0.776199355575629
0.707764172144903
0.78640421558461
0.723956577245027
0.787540229221106
0.716093903898008
0.778080027128961
0.695971515582907
0.786743346035703
0.728790962310261
0.779958971176519
0.721879377227285
0.773620001980974
0.714134106204032
0.740256185228911
0.717833460445473
0.807874602033175
0.705236046111604
0.76957438705188
0.758218081684541
0.776039065966237
0.762812427159473
0.805978022406098
0.765526749132756
0.787482156268699
0.725729768109857
0.799192620139522
0.770236942495853
0.798004194553378
0.747965606347897
0.805043719698114
0.724640090621071
0.802375878234816
0.741452684846311
0.778703395052241
0.746864196101896
0.817826344852615
0.76721795398956
0.799268356007611
0.759757498215605
0.805897523166011
0.752009644844104
0.797763319454664
0.756763036887434
0.841404651758967
0.751004138858235
0.775875268449363
0.75481336102058
0.814092005844471
0.743929503488019
0.791205588334027
0.757089096524705
0.789452213204794
0.780789592579701
0.855475213889969
0.754882291208622
0.795021154309283
0.74521451910819
0.78538596572782
0.750090285978065
0.811257415014612
0.749498735569325
0.786439775103583
0.720275980499496
0.793501304627353
0.752478812777989
0.797986117933303
0.759519156220529
0.803596027323441
0.736132529530809
0.802950935770547
0.768271656697
0.818739332195332
0.744039110801322
0.831032026974502
0.756895095637259
0.76553893033558
0.750412147809154
0.801636037054075
0.740577892310067
0.790314341661821
0.737828573083426
0.811371543901265
0.736323048736424
0.778757082300066
0.757600695474803
0.785595339113496
0.762348357334846
0.794066922696495
0.764754424207699
0.780848442011075
0.751386811247969
0.779112812581539
0.750941118482493
0.776922918838876
0.724034312549869
0.766553444201396
0.726365509283773
0.76982086388717
0.745348850826363
0.779092278280329
0.743764707447911
0.799876283445332
0.761801585180031
0.778527084953866
0.729419811777951
0.775670066656091
0.72913217557346
0.792557540118922
0.740185430262546
0.772469330216328
0.711292981072905
0.753806416810215
0.727453750325527
0.755723834919568
0.730609463444909
0.762145372968724
0.697107555375775
0.752663968968571
0.705618789013088
0.759945453139259
0.700644251186455
0.740315818104516
0.711370040832222
0.756276433595674
0.713235220405784
0.762697739215615
0.706024126052014
0.72567199792211
0.716542685723618
0.747887689974471
0.708949846245441
0.746363036752406
0.704246705463437
0.746922554591313
0.69467407246808
0.703814786503239
0.668245398408045
0.724939688390478
0.683589814427237
0.69409552025577
0.692385299292951
0.720102109119754
0.673592678636698
0.711322857461064
0.66714971389902
0.715188339492174
0.677967805975646
0.699041066941533
0.65789618076795
0.699111320839403
0.661096955218292
0.685811012069954
0.654030401387381
0.690121020002801
0.645916931212819
0.686847429391182
0.64239728178065
0.689208405161554
0.652652657443999
0.655543337171803
0.640576775314499
0.664742130047282
0.647279003609997
0.655720837128328
0.647937032225861
0.664073352268745
0.632498533297783
0.651499217021676
0.637160938717333
0.66094172620338
0.618925436984478
0.667594867570088
0.619728898389773
0.638205305179218
0.615576579437871
0.646033036573902
0.630534861268435
0.621843659272918
0.601924588033115
0.658591919179192
0.590035307731905
0.622034405856706
0.589228254606587
0.626064004830731
0.588697119408821
0.618494514563809
0.602128089541055
0.629949079923588
0.571119452197942
0.613850518777667
0.590566477429191
0.599518685629284
0.605798109371266
0.591480164982369
0.574387461303837
0.591239377526941
0.56430942610478
0.596771763816419
0.552826464399337
0.589006199766587
0.577113119815754
0.578012000700138
0.560039448352382
0.583763592665567
0.556085310538954
0.56681864639081
0.531181910618847
0.562391182970052
0.5493890039362
0.562005854851493
0.520623102321384
0.560450374024157
0.533521905501088
0.550255109235041
0.539455493970083
0.543236198729193
0.524146191014339
0.549774203441651
0.506858372113958
0.526271376657368
0.50209168197989
0.526534122061239
0.503188124910025
0.524225889667345
0.503079421623254
0.51055490807341
0.496080732406835
0.518500602808532
0.496957848726823
0.513488684497697
0.494585210124808
0.498728819025968
0.483949936804111
0.503378884280884
0.474115131293496
0.490798647287718
0.475001929349282
0.48374747898276
0.482933216192828
0.485748243259428
0.465909986314123
0.464264720744604
0.457688849856254
0.477789169793028
0.452712982446995
0.473938430469296
0.452837532249075
0.46867864591878
0.445096243159244
0.456281111527045
0.44241905019521
0.444547878484993
0.432156008060277
0.44703540441647
0.426728358378258
0.452168249869987
0.429888035995031
0.4436051282992
0.424665669521089
0.42785103125207
0.415204819358886
0.426958383494091
0.405992908545725
0.418153201358889
0.39571487690402
0.426251256579896
0.411821992020804
0.420405226217792
0.400117418464824
0.409167181339196
0.391636390745097
0.406189472603965
0.380332604265522
0.406966867790738
0.396048049249495
0.394331928232855
0.376238142956411
0.391736460034711
0.384038339023174
0.383799093791216
0.364525293884229
0.388818250368531
0.371396621378725
0.380295365419705
0.367715473576225
0.370206289698747
0.361608072669422
0.371312225793982
0.357253637914421
0.36733113662082
0.36069610885007
0.365870981748748
0.350917332239223
0.365539292740549
0.345677541009777
0.35242108414358
0.32975592066328
0.354261524114848
0.334498445833463
0.344524781035813
0.336216994355998
0.34387814287278
0.329838117606596
0.344224583843143
0.325346771271974
0.334743022929023
0.324208668710009
0.331074579962237
0.316681868278197
0.333025961911229
0.314207174756323
0.328284359715946
0.313129849121435
0.320954178901695
0.308991044001108
0.315124228792361
0.308461312372633
0.316307275000921
0.306757728642753
0.308100507958901
0.294183028792024
0.314783861172722
0.291372075222961
0.300359545919766
0.297903438172088
0.297440150307278
0.291498415413084
0.296155622036906
0.289648243120615
0.300468142571073
0.286624080977406
0.295606203984608
0.283042976020911
0.288276478644182
0.274794126451962
0.289750753026854
0.277077538939831
0.277863530245671
0.267793313267397
0.282917034653832
0.273153861298201
0.273173654204339
0.266291930024091
0.277170636122332
0.263196978343579
0.276204587038011
0.261616102842678
0.266856241769354
0.26167716581029
0.260245067716105
0.250293828190525
0.26531383937089
0.254115748025169
0.255993985004628
0.249319083928969
0.258298213334477
0.248496668235877
0.248005314493564
0.240517331344944
0.2501542464741
0.244059055769797
0.242659193621514
0.244483127189178
0.248395674321342
0.237264512668515
0.244555811638337
0.23805395967197
0.235221075680748
0.220918966479599
0.234537835369778
0.229979464332527
0.238304644168173
0.228139472099662
0.228078174339148
0.228031279119519
0.230453710596365
0.220278058981366
0.22431021483587
0.224836959586642
0.223270840137585
0.213102260019077
0.222712533589743
0.21528134925382
0.219262357651117
0.213589624958872
0.216158786883172
0.210664408395942
0.219630161180189
0.206580551674825
0.213862536047806
0.203721243192071
0.211238097481487
0.206321862669
0.210492533004233
0.203213732302145
0.205854536446031
0.199443813388823
0.205474838703578
0.199428438586015
0.203052730970772
0.192809889477791
0.202333474723006
0.19879083768991
0.20132683071556
0.189921463056738
0.20024521647991
0.19256946672215
0.20170416330948
0.18971672995525
0.196710071540795
0.19210680078696
0.199153389987909
0.190086398255076
0.196302051837989
0.18896178285757
0.200907869157673
0.186729104419338
0.198519521641034
0.189750740108254
0.195944794359818
0.190759125648942
0.20029651348398
0.193340986057838
0.195062931114773
0.189529202902064
0.198397086460348
0.193003566171613
0.205002172418968
0.196472736610835
0.206508273052436
0.194805617313899
0.20003295335648
0.198694209372622
0.209146883512275
0.203599411609103
0.204551237638249
0.196656797206149
0.206584878957839
0.20387358854315
0.208126445584195
0.206902758588895
0.217594187047165
0.210049324896289
0.220944453571301
0.214738186784711
0.215930734564579
0.212155150266922
0.222942145636512
0.219213988668338
0.219101867037829
0.219030268361736
0.225814183199773
0.229332852991019
0.225145858990465
0.228380770188996
0.234557335385492
0.22606042282493
0.242009200869071
0.231577499384226
0.235996653319809
0.238498706018818
0.241601439922057
0.234712195762934
0.243646550469276
0.245145254904907
0.251694441487535
0.240850339217393
0.250706517042978
0.24495673604937
0.259589509605977
0.248867628163531
0.260247721081176
0.253042525148924
0.263387638220001
0.260433337706044
0.271993726366261
0.267112703159745
0.28016379965496
0.274390491966052
0.279350715375048
0.276561771976667
0.281824528240936
0.281697047946371
0.287558000818267
0.285006570901087
0.294159477020044
0.28288735511204
0.287144774094765
0.290893142253349
0.299792309630627
0.286405504285966
0.296027361965716
0.287816136319493
0.300910894571945
0.291883524295068
0.295059824431175
0.284621299872909
0.293841700517116
0.290359633901352
0.294781631886959
0.289527633455186
0.291542704853201
0.287538716087985
0.288693943585938
0.283579788652652
0.289694155179723
0.287393050785407
0.289855759765376
0.289589423552665
0.287248644068046
0.277489932193369
0.285278211187807
0.282895547705726
0.288236936363073
0.283466932275607
0.286780227469531
0.2779527544996
0.283719986312722
0.280323345196393
0.292638689309195
0.285364277373563
0.290126066321075
0.285670181889913
0.286679111056371
0.285697002561575
0.287244819620436
0.290365848311379
0.286950078396812
0.289496484006743
0.295345161322842
0.281715741715009
0.28570962929249
0.277185216247744
0.284597201941142
0.287352806761636
0.282623013823201
0.279491758766432
0.288516643210995
0.278922492475684
0.284874601893263
0.279869016468329
0.281179918804499
0.277846661153553
0.277601280980139
0.264770672528628
0.275575942644597
0.27308248183984
0.278570193413389
0.267261235854657
0.269517179991942
0.272586616236585
0.272214020195089
0.262770020547573
0.264085281518218
0.26018968484561
0.269175879657736
0.259113945590745
0.257014889980963
0.253355990388679
0.253755770011464
0.24197247041615
0.252744898965774
0.23998000616412
0.248481573584419
0.243072906994281
0.245882176528216
0.235093066415409
0.235780929348296
0.238745785027157
0.23726315209551
0.22518371104561
0.228592935017261
0.223728262062972
0.226185448756909
0.221357511558844
0.219205553005757
0.209336923908457
0.212720648120789
0.217759462398067
0.211721862864413
0.209530564481224
0.215410933511268
0.205761290601595
0.207170667867751
0.199469517616006
0.198478090110916
0.199134176444865
0.197534146696982
0.195101510057704
0.195473134167038
0.188922556261032
0.193649411249564
0.18879765394839
0.186098505807035
0.181513705858981
0.186431166505874
0.183937024036951
0.184946273841844
0.182073955978858
0.181783990315076
0.178077185534711
0.178813307537665
0.180271823435064
0.178481438157562
0.173062188269229
0.180966848928749
0.170610592700133
0.172324879214944
0.171407526198948
0.17286467105972
0.166614939668449
0.174090841119455
0.170345905734502
0.169191204304337
0.1621014308858
0.168556853719851
0.162238470794142
0.167183759927166
0.160945075892369
0.162689435643262
0.160115365780143
0.166965527813782
0.162348233543521
0.161450484071446
0.15799410592831
0.160863316030725
0.158366018987656
0.160398385944973
0.15278905491971
0.15799852018286
0.153993296602945
0.151616277892665
0.150050039821721
0.151293036854097
0.149860818195212
0.153095536760196
0.150263892837252
0.150557748786321
0.149479599086323
0.152340201409483
0.14991582092348
0.146079442571969
0.146844490913382
0.145132772495082
0.145931935909479
0.15130822039922
0.14837635282086
0.146159169547298
0.143826866506456
0.147225917664713
0.137517406650796
0.144284988419392
0.143230209688847
0.145473712365603
0.139021581214887
0.140887215991443
0.138303632025227
0.138430265039879
0.138845583558025
0.139097130752405
0.136091112844504
0.136205672100401
0.140743560437972
0.138752959545606
0.138215821282053
0.138843271116121
0.134479033378517
0.139071870238841
0.134572487302643
0.136218682215986
0.133692564420875
0.132629254628501
0.131096244314841
0.137236334288484
0.132527477992997
0.132403585695227
0.132023884437406
0.130868884764671
0.13010144552194
0.128734507222351
0.128188606514172
0.13059119269874
0.127406531816392
0.136736178797207
0.129157626623354
0.129070461164506
0.127962015215234
0.132666155522656
0.124318421425902
0.130968568897242
0.127918974677608
0.127896628147628
0.125872100889982
0.128812285782965
0.128682570417086
0.127581288518334
0.12650499069936
0.126741082596287
0.12450671200551
0.127146688503145
0.124846786822787
0.127468355768306
0.125691865777913
0.126322113802592
0.124637869294513
0.123469690408933
0.124517578649084
0.126309690117553
0.125462699838184
0.125700470863138
0.12400411308485
0.124754402251128
0.120514246472246
0.123531009855511
0.121591612078711
0.123105026244335
0.122692088962318
0.118668605638989
0.118291811903204
0.1235668758958
0.118742594096464
0.12097950319207
0.119168667127405
0.12100463755149
0.115488902945835
0.119559966321577
0.118914022445596
0.120636749767756
0.11773683198974
0.116723732227982
0.114689855245116
0.117437217739381
0.115292778695565
0.116734800158178
0.11355105502122
0.117434623061133
0.113499942988679
0.110093326953486
0.114441324889381
0.113734789344282
0.112724077875065
0.117017369802832
0.113074674933657
0.114699844157528
0.11125005869507
0.114322187653324
0.113274493125506
0.110729334013628
0.112331261826483
0.114192906037263
0.112432593765681
0.1101565434803
0.113542139948029
0.110590752982712
0.108783121869617
0.109109057781949
0.109085567190609
0.111115010368132
0.108702635702543
0.1089340286055
0.108390007872722
0.107349475242048
0.107250064749549
0.105080828209995
0.105113066668668
0.1052434192066
0.104509299575121
0.105567961984049
0.100160481986416
0.104613935205185
0.104808496888699
0.0996539111145752
0.0988862934356395
0.103664235473919
0.104178173071228
0.102327484887818
0.0991985144982626
0.0978058565081713
0.0979481313467226
0.0948236958904744
0.0980563100074312
0.10083139677463
0.0959433942301659
0.0932529406792453
0.0966777699675421
0.0959942884641983
0.0960879989715298
0.100046128376307
0.0960633281603812
0.0939081556549528
0.0957065126664932
0.0940320566063143
0.0927865305808388
0.0962642235545747
0.096224202023535
0.0916241384393679
0.0889050056935704
0.0900428617482387
0.0926009476237121
0.0948936973800336
0.0903353658071289
0.0904946921028185
0.0886955814026735
0.0872215941966407
0.0915093648561293
0.0905070581499017
0.087153789207569
0.0879621674759306
0.0863169195295712
0.0869107329963695
0.0828001749892408
0.0839062608163788
0.0856010860292645
0.0831963060900399
0.0840752009767955
0.0819773917001321
0.086813205244456
0.0846506802106836
0.0812219288853991
0.0821707118822053
0.0852888902442495
0.0848835793561712
0.0821369880505747
0.0835108700901592
0.078417507267262
0.0819160399475453
0.0784960026835097
0.0796435127661073
0.0800983150678526
0.080587763369764
0.0820460733595322
0.0785749383380663
0.0781217544244572
0.0792470950663697
0.0791358527621995
0.0785499227418596
0.0752823014345338
0.0774596562758832
0.0758847052271434
0.0757107250282939
0.0763199280049275
0.0747557387720995
0.0754500678385371
0.0738914820471262
0.0738872473691815
0.0770990152885933
0.0749821293116763
0.0744090853099574
0.075950472880469
0.0728209007235237
0.0733824306886678
0.0710901547811041
0.0740201242002997
0.071711691765559
0.0731811427118682
0.0696918462810356
0.0716402140850179
0.0719903437724377
0.0692948272059688
0.0735491435587423
0.0721449244358732
0.0732934373414881
0.0680985914049016
0.0682192741175621
0.075482850868499
0.0694187140832535
0.0660244873431032
0.0728518921952005
0.072074768577427
0.0701611503973003
0.069820950740554
0.0674121242353648
0.0675190687920129
0.0656551601756308
0.0676381531055814
0.0632963524003007
0.0697211558157677
0.0657127726410992
0.0705339303949499
0.0677230705970755
0.0652095858876102
0.0673371942359053
0.0653952393387492
0.0656631740073378
0.0657355391701018
0.0665700011896096
0.0646606573539497
0.0655448469754563
0.0700593926771489
0.06608476291354
0.0657075627770331
0.0667171751766705
0.0658937702322059
0.0674081067026587
0.0672008558199167
0.0686669001106154
0.0643907881668249
0.0653850994134981
0.0664789331641145
0.0644766107284479
0.065606525233498
0.0671770476813621
0.0644337843758019
0.0629240554779436
0.063728046393791
0.0641472745084902
0.0636174977267156
0.0631375445466926
0.0643598488609387
0.0613997147854547
0.0646076158168336
0.0612774565686985
0.0655554610362347
0.0617427946051241
0.0634043214270811
0.0651825931081161
0.0624747145604796
0.0607286433853796
0.0643341361929122
0.0616236457510832
0.0615699591682914
0.0588797538377313
0.0595274984303222
0.0598546861094314
0.0639321435388433
0.0602210199387696
0.0595129107964152
0.0579676023704611
0.0601091965870936
0.0610583854396355
0.0578459143351804
0.0576891434026574
0.0584093924034936
0.0598187179512375
0.0628304846911526
0.0582640137066612
0.0595630545539064
0.0600479449508276
0.0592788498632947
0.0576231341844619
0.0611661966689139
0.0564689455697872
0.0571666061732815
0.0566451437758404
0.0575908981248923
0.0594063037673139
0.0555301239976313
0.0580775141355858
0.0596052818964618
0.0535326352999288
0.0550510015207314
0.0558838850817734
0.0573734401667147
0.0560025591852639
0.0541999402353094
0.0555651918291556
0.0563014988702609
0.0566891689700296
0.0580376287289033
0.0553892099623385
0.0535512456759649
0.0544643954859658
0.0559477897506602
0.0508740997076303
0.0537314452294664
0.0532704794269064
0.0544754388760303
0.0531067268689638
0.0550371980050746
0.0516742247057063
0.0561040393084741
0.0561059704930914
0.057526463333663
0.054993667075461
0.0532867506077447
0.0526168360626182
0.0517271711101187
0.0529434413052694
0.0558889446215515
0.0532132210611773
0.0535577620913206
0.0495696243826716
0.0507918467672906
0.0499807396907858
0.0496879503790408
0.049471199654253
0.0492534422806627
0.0485106673832192
0.052913230396771
0.0488336130782021
0.0498452277902959
0.0490650079981418
0.051590980863743
0.0474473560327705
0.0505043177181351
0.0504859545135971
0.0480965157548532
0.0466127184692021
0.0481851702870497
0.0463013551873519
0.0480290670050695
0.0466793286899358
0.0495343443001373
0.0466767186635877
0.0481568222622435
0.0477534303019426
0.0504384706346513
0.045438252936232
0.0456012934993333
0.045954622810978
0.0469635416645562
0.0441111294212555
0.0434884687808772
0.0446178522678504
0.0480199157431274
0.0443608174771073
0.0436633503912377
0.0411405297329322
0.0433488047339473
0.0428367352920489
0.0408434985599309
0.0418201256885599
0.0462807657086996
0.0424174217944276
0.0424335008720133
0.0428438379741035
0.0425033415246098
0.0435135584526534
0.0426929100248462
0.0416293058109746
0.0444336016266468
0.0406716142799787
0.0413290337952364
0.0406090409675749
0.0422215556486416
0.039121006679422
0.0435086450118728
0.0416877093780534
0.0402782835748932
0.0398938862603185
0.0417791102503307
0.0413174370978052
0.041844745302654
0.0389277554683253
0.0428952123481579
0.0394392522913777
0.0418500119470282
0.036508121974149
0.0401363658954228
0.0372712239915615
0.0388268308969382
0.0378263081044427
0.0401948420039897
0.0357598761514814
0.0398755890997041
0.0354262824244843
0.0393199693201182
0.0367243840907156
0.0369450242686931
0.0361428699756859
0.038686314082787
0.0359558826714828
0.0408630798589844
0.0351019733153417
0.0369331624092493
0.0346112811569926
0.0387962560020504
0.0340095277013285
0.0379707932430074
0.0377955843624004
0.0400888063511567
0.0345208529395042
0.0385889866592178
0.0354430435331167
0.0368019833373363
0.0369361112080957
0.0409790894804403
0.0357877995716048
0.038121334592466
0.0359784323374629
0.0403036163774119
0.0369690712706686
0.0401924787464588
0.0359210799523262
0.0425482158395102
0.0375249147361605
0.0378027994588188
0.0335832500155073
0.0429654958491381
0.0319640335637096
0.0348105640987508
0.0259941929648179
0.0324468750629521
0.0337582021433312
0.0423388493784757
0.0293875984446468
0.0383474860073578
0.0339714472021726
0.0328376835886604
0.0311267422767527
0.0390665062294382
0.0248994498757845
0.0442521126887218
0.0291102366061028
0.0282309261331883
0.0292648675722856
0.0355013135432515
0.0336599420884146
0.0359024516620473
0.0244557754368262
0.0361067400075468
0.0306268061900872
0.0347710286227504
0.0294086184066423
0.0380551115865637
0.0253605493825672
0.0297866551021024
0.031816204500993
0.0279287571391611
0.0287617150612308
0.0286642427546286
0.0277588712142085
0.0308899465606884
0.0308420733088564
0.0321093658893002
0.0368329534154832
0.0277201068652269
0.0388243162989408
0.018994775407699
0.0343563257401179
0.0201112075140935
0.0424211190890495
0.0260448577112696
0.0549566046233009
0.00958102249502318
0.0450899179473356
0.0133062653192151
0.0645275013435018
0.00663941584270763
0.0596509690048125
-0.00322422118418224
0.0762704891363532
-0.00125959002046745
0.0613636026829763
0.00132270947876338
0.0654509261158198
0.00707142504891903
0.0530706650824408
0.0185453115082813
0.0418857986549411
0.0255318241149169
0.0321581536619633
0.0350124845943996
0.0238412125460768
0.0417362652095899
0.0253152796474871
0.0385420358585533
0.0256405990098526
0.0323324901002804
0.0299588278108353
0.029459775977849
0.0340458940591829
0.0241558796534316
0.0356273467815009
0.0270804615510666
0.0324185511861225
0.0291731369597832
0.0298377258876779
0.0316767179810538
0.0302862703147415
0.0318261081641532
0.0310157200996318
0.0312210014174275
0.0317848836865658
0.0287960651545096
0.0309913689531168
0.0298859819619368
0.0317263554968998
0.0302831674747146
0.0300798470462728
0.0290958627793252
0.030373847910646
0.029595735021646
0.0306145577119073
0.0291517979801156
0.03148869041445
0.0306454717206802
0.0298814291266432
0.0320876891997826
0.0284144035929726
0.0301377708359105
0.0296505686706305
0.0296650249991498
0.0308245286954758
0.0313954138866102
0.0308370416360423
0.0316997971163329
0.0312676662753087
0.0309632460711072
0.0292629795060079
0.0296293361194852
0.0297674598201138
0.0316406109686543
0.0289939664821423
0.0301466621093108
0.028592830255771
0.0294548667479316
0.0318145624241826
0.0284026976114221
0.029505716291658
0.0310772826778287
0.0291649518509054
0.0334279015854526
0.0290164285304994
0.0297430295682883
0.0299035653037866
0.0321229432477038
0.0296033814254445
0.0312417037194104
0.0268880589056933
0.0323326729311829
0.0282357390080334
0.0314220793561385
0.030522845989641
0.0306184059177483
0.0271519208720025
0.0319368930584648
0.028393211170469
0.0308760371376907
0.0321303191803741
0.0286689328282537
0.0283753973303979
0.0336097577944896
0.0297681390394618
0.030994695526207
0.0287446429403233
0.0314845289552309
0.0278281657713888
0.0317359226599711
0.0294091691608379
0.0298182335148484
0.0282216412729615
0.0298617030915509
0.0302435405445924
0.0284947470796907
0.0268873509089205
0.0308832144678603
0.0301632365144648
0.029787085369524
0.0314824564148346
0.0303834948178763
0.02848943788481
0.0316837172285405
0.0311239970262369
0.0315106136417973
0.0283410622216843
0.0301934768761611
0.029383440279563
0.0319864047173533
0.030250082628509
0.0328912801589816
0.0297215784122676
0.0306422497307097
0.0288211555660786
0.031575369872448
0.0311385560699761
0.0313798722296357
0.0306124836887412
0.0298682702477718
0.0303442104337773
0.0315101094269235
0.0296200787055174
0.0322436719984616
0.030644975137543
0.0307729378396999
0.0298377028896693
0.0326612267597363
0.0304080741865885
0.0301807829695021
0.0297972098360949
0.0315617314205279
0.0289384908084561
0.0307755663154387
0.0312964022534064
0.0324237123185344
0.0291712867763706
0.0308292252386699
0.0307426378281718
0.0323716049369283
0.0318041638170368
0.0322074799292231
0.029123022733658
0.0329450627261936
0.0324753065860146
0.0310130493931985
0.0286255690330528
0.0331865112788763
0.0307235658974859
0.0312217955974312
0.0316806980252794
0.0309371504447905
0.0303843687508564
0.0310613854879623
0.0299799803488706
0.032714582433318
0.0316353998987349
0.0319301805071245
0.0313711449710359
0.0319021484139906
0.0310910134326906
0.033225720927483
0.031456123760807
0.0329563157200459
0.0319764850903367
0.0338049462437762
0.0318263379890245
0.032826599481471
0.0311745913004036
0.032475852946537
0.0299615092995816
0.0335416123286119
0.0295915772241409
0.0357560702805567
0.0302752941038311
0.0349022148772971
0.0322029469603332
0.0355973532302382
0.0318115733088362
0.0344751004227951
0.0327978865150764
0.0328890702873512
0.0316854466701658
0.0312645746223607
0.0314349980404682
0.0317918780176164
0.0311800521734734
0.0334486064700734
0.0313338363388973
0.0320364325878447
0.0308762372617052
0.0330831162391515
0.0301490896940348
0.0316159660887049
0.0296364031659989
0.0293671002825698
0.0282634017688985
0.0289991662703441
0.0305491351378744
0.0330118021873563
0.0318966847676086
0.0320254333953728
0.0294157951634644
0.034682721270155
0.0309896582353503
0.0314508107236058
0.0290786322985979
0.0316741001286751
0.0288607847593815
0.0337611158459158
0.0301457231380721
0.0313220516655364
0.030400765976276
0.0316155926811285
0.0296676389426716
0.031948580519676
0.0310524237603751
0.0334392498306004
0.029438888109155
0.0298192837048651
0.0312251303365955
0.031800991316725
0.0263408838205126
0.0310716495582227
0.0286053462837923
0.0311164364913351
0.0285592573433309
0.0315517468523729
0.0305440844871134
0.0316085073622677
0.0291994429265943
0.0318459070513443
0.0287936493286254
0.0307423264037433
0.0287979287767939
0.0296480725171531
0.0272806869364022
0.0334156345582288
0.029063119404238
0.0308726890523877
0.0318015081230288
0.0331235621310752
0.0289729590677452
0.0306513499221969
0.0294853469644334
0.0296736258380694
0.0255062923103361
0.027964969759272
0.0285057860664105
0.0308706133742932
0.027195304210365
0.0321969605572735
0.0306041224230132
0.0299673958536798
0.0263128529151037
0.0290890391818278
0.0291237798252047
0.0307830993282662
0.0290040034891894
0.0306557830008996
0.0272238626688001
0.0291466955653631
0.0285345650401841
0.0303948700326888
0.0268552774487485
0.0324430037672808
0.028444514209933
0.0312034039564341
0.0285504531546288
0.0306161117995464
0.0298479976870184
0.0322548906799545
0.0294499218773093
0.0288851287651699
0.0282324454080553
0.0289781928175532
0.0274005744056974
0.0305377177751936
0.0291712912274544
0.0296383847203535
0.0300552671778574
0.0285340706939343
0.0272157390367766
0.0298743795951793
0.02729797443347
0.0303236527578935
0.0273374082168568
0.0292592902929916
0.0289275126507227
0.0290704484029493
0.0297210203296842
0.0278291459558466
0.0285876257234694
0.0313384340466448
0.0257804226269908
0.0312439042713951
0.0288440108969321
0.0299990809827992
0.026823832427109
0.0308029171498501
0.0282576633948632
0.0293451859659472
0.0280120817390086
0.027946394550448
0.0278934820386212
0.0279146700973982
0.0284808460462845
0.0308906928435133
0.0253066015892921
0.0281680630045693
0.0274742095967052
0.0273616004921241
0.0258844956401929
0.0314412425399404
0.0272840136005857
0.0282968649947013
0.0243383886714534
0.030390158047868
0.0242851739748027
0.0313924499664458
0.0245640819574197
0.0274610280093664
0.0248240844811893
0.0293281087802727
0.0238777039617499
0.0264493093393096
0.0231594228225107
0.0257712966168915
0.0269086305303154
0.0272279814481898
0.0242035666900802
0.0276005330437032
0.023490107140875
0.0259907657526745
0.026753480909581
0.0274122336966222
0.0253092627121334
0.025782351541069
0.0242122374435422
0.0248566376922795
0.0244577188390451
0.0263811546307955
0.023990207114595
0.0259881417237556
0.0262806486958371
0.0256047216140971
0.0298882140561964
0.0257519023623505
0.0258996614407381
0.0251037549795326
0.0257333170930515
0.0218037546750393
0.0250969817842948
0.0249118262191569
0.0239754258519318
0.0261804261007066
0.0247889048053213
0.0260519771579321
0.0263640419059629
0.0250157302929055
0.024541665821773
0.0229081882446894
0.023913722346882
0.0280392151629826
0.0249406734627792
0.0245471325775978
0.0240626651482879
0.0248522525176095
0.0248750739107086
0.0257785381189406
0.0245534108934531
0.0226416812964443
0.0308629214659053
0.0251878250034804
0.0234700666924839
0.0236863187610048
0.0211973487474556
0.025505564050801
0.0236758584265101
0.0247665821084429
0.022901930345033
0.0282014936110299
0.0234453747198745
0.0271269107164153
0.0229667878450909
0.0244289160844957
0.0221951212229892
0.0246159489632709
0.0240593118248155
0.0235763655785911
0.023409844444173
0.0240994041603663
0.0233320990930968
0.0256270472789693
0.023578931043963
0.0282266886401192
0.0209035606683008
0.0261660556479009
0.0233094084046101
0.0387968703854081
0.0201722317791515
0.0292161768939524
0.0213764040415464
0.0265068570486318
0.0230011570193566
0.0237721654034452
0.0203657216103058
0.0249012308359435
0.0213429597773448
0.0257939673479802
0.021195913822882
0.0268333758848451
0.0226587997298095
0.0239601471136809
0.022127289148576
0.0262926296736311
0.0228623841353288
0.0261868780654516
0.0216350247053591
0.0258149227739032
0.0289685878069909
0.0282009964468113
0.0208857069073402
0.0283755145810329
0.0176160140269553
0.0386807275470922
0.0266035098735907
0.0219184383673692
0.0268587303204051
0.0239457520657895
0.0269317032899012
0.0201653555902766
0.0257088762120315
0.0221218766916511
0.0290798806060107
0.0220893733863284
0.0270756504892715
0.0201887185592075
0.0235931669856216
0.0257123885782999
0.0244629849591553
0.0232952306966332
0.0224477733556501
0.0241631958409172
0.022144394439669
0.0224898015290205
0.0227173141868463
0.0239357153604757
0.0238837036897774
0.0263811221140439
0.0294216985667248
0.0229692016043393
0.024467221356336
0.0206133305515964
0.0276925251167804
0.0285900433528722
0.0367391578955935
0.015147308001724
0.0264424035925099
0.0233204092254213
0.0225042621215412
0.0233590381279165
0.0227929185016332
0.0241001892798308
0.0237250692084222
0.0251389965270383
0.0240503102573548
0.0235830695083309
0.0222379809109515
0.0259194191860368
0.0225759818577761
0.0248660565171312
0.0219573967670876
0.0256323755047033
0.0197298388001906
0.025550861190492
0.0260116306208636
0.0356403667799366
0.0376096700773054
0.0205227349485977
0.0301360519845295
0.0220241660697783
0.0275471140320593
0.0220274254022051
0.0291383371127822
0.0239937663968259
0.0266539433389763
0.0204651375708013
0.0269304148639959
0.0219619598006965
0.0268375587313372
0.0196815337312132
0.0267565239122185
0.020412267990062
0.0271068465887592
0.0211026268048569
0.0265600417110267
0.0188152495578056
0.0242066917208604
0.0226197282193713
0.0258894516045501
0.0255161887858523
0.0280482964815332
0.0312987867122844
0.0286148647045822
0.0416945546378567
0.0169321637145842
0.0360013939500775
0.0161540772617632
0.0297171203739872
0.0226319865841389
0.0279024864760259
0.0283486844927214
0.0255616730355892
0.0207733935793912
0.0281985141092355
0.0230821977026266
0.026848449734117
0.0248813396454931
0.0337504923749662
0.039833355735596
0.0296852554902446
0.0210727001343269
0.032857969285009
0.0218320723432907
0.0436684574035276
0.0240179580775535
0.0275461779610448
0.0263687269824161
0.0245228316038508
0.0260677079934602
0.0235107034195248
0.0270181136866007
0.0288544038589352
0.0268083934869042
0.0230825144172346
0.0283484047104497
0.0227428858778219
0.0271011662261224
0.0310241641762353
0.0281526051237134
0.0303540305553681
0.0240924830077957
0.0256944743565339
0.0306879980002687
0.023857323464222
0.0272134539732619
0.0232674104459375
0.0313247463358032
0.0293282914732379
0.0347402036444027
0.0282724648044928
0.0320439500109984
0.0332889637295063
0.027519487294992
0.0320788000497565
0.0357277899274389
0.0243414885643524
0.0408026796415316
0.0200342042220932
0.0549996423745016
0.0200070383759548
0.0413916294463932
0.023570874084069
0.0307013179633803
0.0231873271644528
0.0324272110427727
0.0267596038327397
0.0289948972585753
0.0344175805846212
0.0200300712884648
0.0407446032004734
0.019524801708968
0.0419998953265728
0.0249196782110778
0.03277843699161
0.0267010686071651
0.0346063459423043
0.023106252150903
0.0426072348905991
0.0282084551493944
0.0596148251312114
0.0375029319607197
0.026819912979635
0.0409632604681522
0.0337918168888891
0.0412666690794043
0.0342073193473573
0.0253103673537797
0.0347542947141473
0.0254814310875841
0.0417411298944991
0.0300548993182776
0.0487784200037412
0.0328843516435546
0.0268989225721384
0.0381312497859425
0.0388721112293416
0.0429807795214942
0.0403970612619332
0.0302176780593876
0.0387537822214623
0.0322512097927015
0.0511665489608566
0.0246564649876581
0.0684390928260266
0.0229189439710538
0.0678378531536247
0.0328188713503942
0.0538990384819198
0.0327620599683688
0.0523743444684412
0.0407241200871933
0.0549363407215916
0.0343783731248605
0.055448904380784
0.0364182642783296
0.0572385652832715
0.0369824022156121
0.0445083760470009
0.0442903628796004
0.0531874311605687
0.0645595473303534
0.0758552907626488
0.042246836880056
0.0545337652412148
0.0504915086179601
0.0591222432699737
0.0510772650765737
0.0445439688894023
0.0484954588551595
0.0467035448818956
0.0498241929782002
0.0573163287118095
0.0542007022653781
0.0592473050260291
0.0466461639521868
0.0601158805596721
0.0494881565658041
0.0933679354850763
0.0605427447277245
0.0705528520626373
0.062380293116939
0.0568695542568331
0.0710540120221823
0.054712567020295
0.0634029526837394
0.0609786783403596
0.0646968403114756
0.059952746070152
0.0591248747203173
0.0748589459250786
0.0593620471254847
0.0826887190871231
0.0621303187605133
0.0837493692129837
0.0602652671530795
0.0833687316959252
0.0976085644609527
0.0742884934786056
0.0984560409661517
0.0578059744167638
0.107871551944379
0.0750459964573208
0.111153272073654
0.0836161364564333
0.0884204418926037
0.0882885313719101
0.0954303299918749
0.093770574449556
0.104808613677614
0.103329993879988
0.109227205568903
0.106187853246447
0.122913442470337
0.1228287181696
0.169847863017061
0.121107287976232
0.128394162524757
0.12517263575229
0.142711899975884
0.133289076150623
0.140888796152486
0.124334003315029
0.157507114625534
0.140832287380487
0.182652710266003
0.149366420130709
0.159197947149301
0.168064989613413
0.163801982053167
0.193602444477966
0.16197117167033
0.206090579057422
0.158511866287086
0.194534259277478
0.17167042828401
0.192727183906022
0.198620568654772
0.209565733779333
0.205899983686344
0.201680334262641
0.208431846343992
0.205543027059125
0.206911523803475
0.209106396182162
0.213335092513497
0.226031256868336
0.234849535853037
0.295416331150385
0.183873731958364
0.244894589453344
0.195645837815329
0.229436673438265
0.221001602821919
0.236373772689346
0.249356693590765
0.231022518112092
0.238465947831852
0.21626366431736
0.218199451269453
0.220765774000114
0.221647978927571
0.229267892187684
0.212516258384099
0.238033193420645
0.208272161192336
0.254302705910018
0.199299240106874
0.273985425985145
0.212231187321033
0.223519458715875
0.212671227178326
0.226070233774162
0.210091676949287
0.227021286933213
0.220918308995558
0.227450294664935
0.219160726374803
0.212984393616791
0.226611069747379
0.213142018983935
0.228431934896253
0.211306611759301
0.210260013427925
0.21997843232665
0.19574458009785
0.22810342975951
0.210788984298877
0.231136312061043
0.212131354201336
0.202617781618549
0.212382385427768
0.208408156265117
0.206298914701838
0.207906281314797
0.215559132800793
0.214592456931229
0.211387232195616
0.206392753978338
0.214741566838702
0.210605965825303
0.216884213352696
0.211214808064178
0.219218510725534
0.212784866148759
0.217466540696952
0.211153018399214
0.218308683982701
0.219263581148745
0.218130730339896
0.217635909780114
0.218127808598912
0.213811236358787
0.220583959927831
0.217242178474265
0.219243994711455
0.214591012841487
0.217920321520147
0.21518485341419
0.219883273840453
0.216872902129138
0.219093058797788
0.214640130437343
0.21419302144392
0.213194517633236
0.210810048144156
0.205901254276137
0.208686187353064
0.208544471141912
0.201469734817
0.231992074937163
0.194282337721994
0.225606296847327
0.191037889481875
0.204459793355175
0.193330825797776
0.186587919523066
0.206359525106246
0.191905850432043
0.201596441021772
0.177791302827027
0.178869306391883
0.186221481910338
0.184909169841508
0.178291194751333
0.177824561049664
0.162107820229622
0.199585861212123
0.157288037248881
0.250639936249855
0.190408024362714
0.198946302556095
0.161765748992089
0.172065784119246
0.179779901049922
0.167261664967853
0.169033829029405
0.146979602242608
0.179646820680725
0.147159750277829
0.16858252596685
0.150913283975404
0.153893695030309
0.160165985601563
0.164362659820361
0.158080684097155
0.167155973089528
0.168111198313192
0.164617992249367
0.1688726855834
0.165120347094824
0.171077558952454
0.147168882319306
0.150005954624704
0.135449364216199
0.148561071224779
0.165322474897981
0.129884831405859
0.154105532348979
0.128200356712712
0.139520765706308
0.128558811472239
0.144500478511301
0.137330109769245
0.136391245911472
0.148201930217553
0.120105890643757
0.146897135554073
0.113331214221359
0.16530464351486
0.129516750525991
0.153301931610788
0.114844457448831
0.138040186329891
0.137305409188124
0.141064174551674
0.136320006733517
0.11714371034782
0.12190034908016
0.126876901046611
0.114821643025082
0.129305357691586
0.113383517602467
0.140124279417436
0.145648571353088
0.147652053427445
0.150687790501802
0.117056306899803
0.113877821647607
0.111354123921919
0.109184235519522
0.124676881692226
0.0988493038082758
0.134062784156611
0.0936181579941754
0.12875170143404
0.128515485965001
0.110838691652861
0.123797417117874
0.117027446468154
0.112477883401246
0.123122420213476
0.123877974106856
0.152348660533195
0.131415401123354
0.134800336384194
0.130686198488956
0.135361312166568
0.138461682963226
0.12837377424288
0.137853793467622
0.132250809734148
0.149729211814065
0.14630886043805
0.150017011016948
0.148224920775858
0.145576047753507
0.161383073403386
0.178007031392467
0.15944997639336
0.190424657711464
0.159752009403465
0.225051659565341
0.166191481225888
0.193301595690513
0.181060187318705
0.187414632822765
0.193350129599295
0.189689806059893
0.203561165517174
0.219552234410306
0.196453976311439
0.212285248471536
0.197129701120036
0.220168342642613
0.199741792847543
0.237715882924158
0.217975812764088
0.273301840763238
0.216133200954373
0.23857532951686
0.229225271785228
0.220857098718766
0.231751497220795
0.222981357701933
0.235256888100881
0.227260927322956
0.228053287690439
0.247036116601389
0.238348813172991
0.244310974963961
0.227361177901027
0.237702247637662
0.233175120778249
0.239819657903843
0.244437658476394
0.240733887011035
0.244610085220182
0.24295809672987
0.247505388951657
0.287001759253727
0.244393290811466
0.274174942126298
0.250384582601366
0.267116830989311
0.260345634820832
0.258636273278223
0.268802839887684
0.275241529434348
0.275481414506237
0.275484019894651
0.272845845470047
0.278794136885037
0.270054612336203
0.299562372342928
0.271833405626473
0.300622132195744
0.265965969196877
0.301028749592116
0.304784384954318
0.300496715128673
0.301584369133841
0.291156917652973
0.303627795111404
0.290423586283044
0.297239095305906
0.289398586883868
0.30068896849234
0.295380736469988
0.304089325313803
0.294121151292202
0.299109672765937
0.291267587663048
0.292582525948118
0.311476451317226
0.294433500494163
0.296025614768727
0.287023153426966
0.294636814139639
0.286452999191227
0.297092728390168
0.296150126646251
0.298601946353956
0.292409873587365
0.288511909434738
0.302448085243851
0.299381916209076
0.28986162966274
0.291010499789355
0.285805343624765
0.294062315476301
0.28695538179344
0.288955743966073
0.303685304544877
0.290325920300983
0.302344666551139
0.287415163136277
0.293822619037564
0.292251717955927
0.303844829811337
0.2910491663201
0.303023219161182
0.293400703835262
0.309954565082464
0.30067684866089
0.301876567663637
0.298960795642674
0.305680371596087
0.31258025547529
0.305204553562875
0.299347884122608
0.297657424986075
0.292256082999884
0.304428721785784
0.294128375865143
0.292679679998672
0.283729247951346
0.290391057569405
0.274177240934123
0.306215452216321
0.277040404543683
0.291445361389238
0.278734276259951
0.277568420596943
0.269826291293904
0.267366755162754
0.268910223138131
0.266187086682649
0.267118335514874
0.259605297096374
0.25869985574829
0.256961622601883
0.256255054734217
0.261513281231852
0.257741893925938
0.253444662612633
0.253463851816121
0.256739879828048
0.251984181885006
0.253645166881772
0.253841553527506
0.256032084269819
0.247447348549366
0.254783323406175
0.256117598992296
0.263199107014534
0.2534104004119
0.25290961181289
0.257687227265987
0.246280889888159
0.252934692743942
0.249993332730815
0.251289717146684
0.247389339301131
0.252958799388327
0.248401853968229
0.253704191313139
0.249708899332984
0.251779556158341
0.248447135147912
0.247154892709939
0.245608458301763
0.249274865485552
0.245773915966498
0.249278913558461
0.248650723215432
0.251322334437785
0.24726378608991
0.246636934441739
0.252349040275296
0.246519890222805
0.253102568099257
0.246737432309141
0.254650295684841
0.254217033479583
0.250332225269949
0.249403422910796
0.246563221518788
0.247099507510002
0.246667432642069
0.248242456442474
0.245332939455145
0.24165491822483
0.247219454822831
0.244702426031925
0.24130034869158
0.238520819926183
0.235589117376346
0.236102631753403
0.230924973173946
0.232446485542999
0.22859494395474
0.229173445006992
0.224732794973114
0.222665238333021
0.220621095053615
0.214037480197405
0.220195125643491
0.217966475708389
0.215450486953247
0.214097858259597
0.212355560012043
0.208667858431384
0.212412128455067
0.207250153618801
0.210288594968894
0.20766548187194
0.211660568200425
0.209007581983089
0.209887808938606
0.206747219999833
0.211471406270983
0.210584134552984
0.209649847928327
0.210743169071809
0.214005601121836
0.214358329048834
0.217185666193979
0.215370817356989
0.2174504208424
0.215970536596144
0.217648725701463
0.219943714222176
0.22006233720901
0.220429369082407
0.222442211915889
0.222972690329142
0.221830478089031
0.223066252941219
0.22514863692588
0.22485441202135
0.225765912179882
0.224856661336474
0.224128695231564
0.22359684709312
0.225971699590534
0.226303518820835
0.22400410852819
0.22505141720514
0.222329815760465
0.219742234949927
0.221821762450003
0.221014752235589
0.219158559847426
0.221451659744386
0.219297693775427
0.218977798568592
0.218619582353068
0.219229610253192
0.216162708454925
0.215668861276569
0.217266037544319
0.215126632823673
0.217280032440085
0.214826510231815
0.212478836415008
0.2105690847264
0.212923466089718
0.208603062998323
0.209697500573082
0.209372043725778
0.209286454869079
0.208417369212737
0.208763670696164
0.206332141385807
0.204409067235718
0.204720694413137
0.20790440333576
0.204860202901821
0.204864581939097
0.200956353500069
0.203819135730671
0.201931016774855
0.202444151993645
0.199503160917749
0.199995781151057
0.19766533028255
0.196262060836066
0.198421669436223
0.193036465356952
0.193213233842223
0.193156073203193
0.191378477043951
0.189627061087954
0.186918747010828
0.185875337518029
0.184888870762903
0.184577289484211
0.184847061192003
0.183746113141386
0.18145162481653
0.184370198374695
0.182328746187266
0.182684025978137
0.179925789764117
0.181916657671302
0.178519290651063
0.180790872685577
0.178273566026283
0.177399543664814
0.17662184940393
0.173357547676702
0.172625100710941
0.173218300426191
0.168320165190827
0.169427787130662
0.166864944722558
0.163782125338967
0.166641373891258
0.165274094738898
0.164034511565151
0.166430816001704
0.169583532341686
0.16991107503594
0.170508034184395
0.178767048585019
0.183934963180367
0.187061247191215
0.194779237386727
0.204393799505881
0.210988427198957
0.218803456105698
0.2308984416732
0.238313189396691
0.248272758668468
0.256567965846649
0.26726323503952
0.275517151589439
0.284110317469717
0.294334218066772
0.30107532785944
0.312515201676817
0.319895364835591
0.327068352713438
0.335760088633866
0.342109947973178
0.349562805943792
0.357460292775994
0.361888740812892
0.368493289729552
0.371129267390237
0.37692752395751
0.382354653539312
0.386981646303665
0.387092424044897
0.393642833264745
0.393860339373494
0.396910630594843
0.397589316617601
0.402034566276582
0.40232738509401
0.403432287339071
0.403719259614966
0.405273556612982
0.405413080045507
0.405331849705828
0.404113110361185
0.405754677223126
0.406960618450065
0.410775751442868
0.413136493552788
0.413714515719993
0.414832618486803
0.415464876395025
0.423067963605778
0.427647739816101
0.430819024277314
0.436857037776615
0.439709801160101
0.448856413910147
0.444385618923465
0.453721398504121
0.458385990712299
0.464136084029034
0.472389157780295
0.479698259415587
0.484278561054279
0.490080788589446
0.494510371406193
0.503824652341339
0.512403794324562
0.518953613530514
0.520473932778712
0.521781487563571
0.526915819714601
0.530298228148133
0.529144434636593
0.5310712208943
0.526773472250391
0.528303045684577
0.524277459390788
0.524283319609349
0.519329954166721
0.521219834785716
0.522763013837579
0.523371180180257
0.520782733178504
0.527346260642807
0.530158335994903
0.534313785893453
0.54080837437518
0.552494020915872
0.560426876381569
0.574016274489928
0.582412301495805
0.591536215967864
0.598160527836984
0.614422572998714
0.617105455881207
0.63033352835813
0.639369572379308
0.648925734891005
0.659678471992544
0.672037868909385
0.679444257145628
0.688075942249924
0.69614259642737
0.708710585569379
0.720838468288362
0.730008994517764
0.735851040549993
0.761954376846349
0.763142245374614
0.785054959215026
0.794005554250387
0.803291423564267
0.800346798077666
0.818295539647263
0.822776772136645
0.838639710609073
0.835160800270684
0.843226398083623
0.84978834891343
0.854347421175156
0.84841940413573
0.860134277372174
0.858516103883528
0.863649643527079
0.859127983039106
0.848221382550866
0.849461050638887
0.834937870079484
0.836277723536499
0.833595188036589
0.825364714832771
0.828419177494536
0.824649940687138
0.823913668823711
0.814513872367286
0.82027033463501
0.815037832871712
0.826329682773937
0.830346306992976
0.854143836725533
0.849346574524941
0.856151450975757
0.85529729595275
0.871657296340185
0.864979855558511
0.878029771221353
0.891804467796572
0.879942288214393
0.875251955821483
0.900444421688995
0.903106814629881
0.88384562326911
0.895613639589449
0.908188138058112
0.897355727909979
0.908002075446447
0.883955444171699
0.895415192824387
0.903491920936585
0.882675006885533
0.891036209238138
0.878811582875314
0.891832847589379
0.874531378007746
0.863635094156168
0.872129636393963
0.866997467508576
0.851809244006724
0.859412243994414
0.837153474158045
0.836400473116991
0.837210606910662
0.825977125901232
0.818618231871639
0.805525661168146
0.798365444271339
0.782301969246454
0.774773160143547
0.76356666744722
0.744165402181458
0.71986567833155
0.697622781658483
0.679199134951031
0.655332650778827
0.635009301788687
0.612845547420087
0.59074963783542
0.57121929028324
0.546038139768502
0.530459157625064
0.513200670402345
0.496822393762536
0.488220351911032
0.479366427697202
0.47716681920716
0.466372964788526
0.460430604571485
0.456690468802218
0.448383055499699
0.445739774401867
0.4415418923605
0.441227340097628
0.438281161614931
0.431661268255974
0.425894593179055
0.415926499650841
0.41534701923664
0.410431137887396
0.402157821236375
0.390400217550966
0.384743652122887
0.371498744799616
0.362834326808649
0.35106721429884
0.345746292489498
0.331780621105071
0.316243215446862
0.304638558305127
0.298218677566322
0.285741794022381
0.273011505834974
0.259844313519365
0.243458053151275
0.237138788274999
0.228306048032307
0.214558200813158
0.205393908349317
0.197608699421499
0.188857675956256
0.183147063236644
0.176132701085698
0.169924596701153
0.164915359545279
0.161099490243576
0.156022868540514
0.151949593707021
0.148818070283734
0.143740688688509
0.144883906051797
0.14312864574147
0.143021488453584
0.139517865455808
0.137968398427349
0.140080840211511
0.13797261903493
0.137336912999523
0.13844358941973
0.138972537020824
0.144020136455709
0.145048437593348
0.142191871933318
0.147058952420087
0.146489665228628
0.146389368135029
0.141916034981086
0.141116316604957
0.143516605753361
0.14526211363585
0.141408602418561
0.144159339385588
0.144443454170156
0.14131017117271
0.138505914419433
0.138129570950491
0.140766640821344
0.133932696999305
0.139408985390484
0.138188180170848
0.138950578379393
0.136373242309112
0.136428702097575
0.138196133415343
0.141730915782301
0.143858778975317
0.138296161543295
0.143032439580886
0.146393826493495
0.145832150279772
0.147180302697052
0.150200589773275
0.150623999505585
0.150072761156017
0.150548292285296
0.154962334769366
0.153791679215427
0.155919925316076
0.154873663341003
0.155825181020195
0.157291536300112
0.158224222524936
0.15849436354853
0.159844105116271
0.161851320802488
0.159490892864941
0.160230699415216
0.160842424424851
0.162930933383615
0.166494604168698
0.174406530357623
0.174334045591936
0.176136407097006
0.179827434097546
0.186438979008836
0.191157368596453
0.199172544494811
0.196081016676435
0.213491404278855
0.212356842632671
0.212184716022889
0.21820038209978
0.219722149853384
0.217376166779553
0.216448910371408
0.21798895742191
0.214852867684598
0.206296207889479
0.204173688628934
0.200771922054369
0.19519567833732
0.193991218983223
0.188128592227827
0.189671075448855
0.184584745212375
0.189497471087283
0.186785899756319
0.187862851055264
0.184944120860529
0.188627288980571
0.188713615038419
0.187314847432733
0.18864549962821
0.181743812528031
0.186103629448803
0.183243171592691
0.181886554200729
0.175535075710024
0.174206326128154
0.169144170854055
0.174263422348033
0.170988267854542
0.174783862191153
0.167802748990856
0.162949827770022
0.163044711177252
0.163602431641369
0.160647350506409
0.162773502229594
0.161935970292472
0.156925220138786
0.152669492134809
0.161352661828867
0.155166692379007
0.160847875301591
0.154665610699815
0.151620852869707
0.146460609558491
0.145006472487193
0.151703914037701
0.15090202397467
0.140875186028824
0.146021185921547
0.143316047870541
0.148322019126104
0.146733392535935
0.14377862213695
0.133097384854204
0.136836697388672
0.13703965936475
0.1334421165255
0.138113468911413
0.129242928040707
0.128001256826281
0.131389214703828
0.132431442374435
0.132111364839865
0.135945055618214
0.12653007717983
0.127621591829492
0.139906757343022
0.131703079333905
0.137187626562285
0.135590737227191
0.122480865630813
0.130026116490875
0.135379114094146
0.126599053740872
0.1372473455776
0.136250646665019
0.136627981934033
0.137957402045415
0.137067146939573
0.140461946335317
0.135740148127274
0.133630452312511
0.140185049229619
0.136377111173923
0.143203318082406
0.139311944770605
0.145872678155075
0.133878740998642
0.141250603039126
0.14578098681766
0.147930255232266
0.148176686488298
0.161217778530569
0.160968632664538
0.161783294917814
0.165878655430807
0.163678681821274
0.16006330376291
0.170145474254248
0.182226817176917
0.179689921665464
0.18169933477751
0.194862034329857
0.197666915793005
0.208279277038772
0.203774111433029
0.206498345478717
0.217245406352238
0.239923526723401
0.237093546067479
0.23296292307525
0.251324044160785
0.256224381233463
0.257323326443272
0.265168182639481
0.256975816584656
0.26038562769234
0.262953096066489
0.258700720732001
0.256374075207168
0.261520565315663
0.247754569235113
0.253865384514017
0.245139967512946
0.244080163407434
0.253390507640363
0.244569374409321
0.234790057159273
0.260070298482064
0.253917965140526
0.239914976294459
0.235632749610278
0.250286516308346
0.231439950886714
0.223298884435143
0.24109985033925
0.226731479856752
0.210294178140789
0.220201819168958
0.231689684958243
0.226617686378697
0.225649497084398
0.212991452357361
0.21442071822665
0.207156774552317
0.190206769690022
0.219930518793905
0.209523837203622
0.204786062924093
0.199030277800099
0.222524314224934
0.209223504103812
0.204944082790628
0.20546500693747
0.21203993050714
0.220967781831733
0.208510949028119
0.196161539906574
0.198577598063359
0.203062509312574
0.230880189279076
0.20686943889452
0.210804677235545
0.2181094660397
0.204780783178048
0.208883578524472
0.207577082155747
0.209870549789271
0.220668071793092
0.20849332375064
0.233021273072313
0.227758045581157
0.217431136974832
0.211950914465927
0.245968067458798
0.242134998882846
0.224665857448753
0.213185053426039
0.239400747156436
0.20136467640533
0.236438756325753
0.227857124870586
0.223128010614538
0.23122040023127
0.251976015431553
0.262529291783323
0.258259089277895
0.239507222453115
0.247133845645327
0.27250193049857
0.301645507523913
0.2967777324199
0.254004463215954
0.270818062702329
0.293362087567537
0.253747330035546
0.323177508937226
0.330776803754792
0.306313657539768
0.29346862542755
0.282299980559165
0.312003803036243
0.309371160637385
0.30779383199383
0.348913039881644
0.303586232810038
0.320970966795128
0.284242184291774
0.271520253558718
0.284710325063077
0.280883042562384
0.274489214786506
0.306807493451244
0.261877735197946
0.330425664028756
0.32875966459264
0.278714593054747
0.27350750788211
0.308994304592628
0.274224141456917
0.274981591134506
0.267528142692419
0.362112050083146
0.235114351791878
0.246155844906954
0.262293754859593
0.21827487846036
0.272676026138751
0.314313699403924
0.272061023939846
0.349754726275523
0.289076871137949
0.319705016720595
0.366409090598035
0.288556096753454
0.216563104082783
0.228230079911147
0.232107322439374
0.373249865502342
0.295233786000438
0.256021620599104
0.340839488513163
0.362875346776774
0.312828049915174
0.249404144764563
0.272949417435503
0.326002881890297
0.257239968361569
0.280136884547296
0.396541049935484
0.430851879801009
0.229291581837215
0.222201708099005
0.175610054177573
0.247177504776695
0.537412866071849
0.396282468116225
0.162318273299093
0.242563934533969
0.465425087957248
