3596
4000.36533379555
650.420452594757
1
2
2
0.0307544500675236
0.0227957156137246
0.0276966167545262
0.0159466919710252
0.0300162131072523
0.016523295726119
0.0213047516029218
0.0208920536472404
0.0334345820866551
0.018658525069685
0.017722758179795
0.0216772163226364
0.0298429710186158
0.0170096108339269
0.0351567290262935
0.0188113620541414
0.0260037027123425
0.0183830506972402
0.02319181327866
0.0152470270728703
0.0343286267682669
0.0187112432356623
0.0287490087912092
0.0175654492269504
0.0280475475957699
0.0209888494954376
0.0320809328663889
0.0195061076561705
0.0313893202151265
0.0215065410120768
0.0287837629753546
0.01420709566601
0.028227584897153
0.0146273132509785
0.0247207120628288
0.0132252471155969
0.0271861589027074
0.0168905330729603
0.0256610458492012
0.0200431605529205
0.032777467914165
0.0143130406042853
0.0250432106951706
0.0274392274407912
0.0334708848433282
0.0169962250508928
0.0321680891856431
0.0218308702487179
0.0307157456212785
0.0183103135311665
0.0283017838926662
0.0287256973655915
0.0260413197768857
0.0175627727236984
0.0374144249129037
0.0206889445230245
0.0227975150932607
0.012171310404576
0.0340122181863454
0.0192687307319584
0.0296271950956314
0.0183224348913451
0.0265420633229777
0.023638686111613
0.0251933720649803
0.0127298980208155
0.0256384311861413
0.0162717000271328
0.0299076495759309
0.0159383001566406
0.0305539784175621
0.0283298657213789
0.0385298460901601
0.0173199439991617
0.0267714059290862
0.0182225314984162
0.0328967178360541
0.0182204346703631
0.034891435714621
0.0195018563341061
0.0328081830561617
0.0175168248373039
0.0266243487848645
0.0145526111417415
0.038637311237277
0.0213790503911576
0.0294961651789923
0.0242879074508914
0.0339347384441554
0.0173639411540254
0.0268053869194506
0.0161798313311899
0.0268780859377318
0.010837289048105
0.0242273354476818
0.0204790255348423
0.0273823672081859
0.0161681052334095
0.0317677275544435
0.0200970879309124
0.0292121631922595
0.039145484212018
0.028653502990072
0.0354940603411519
0.0276183723906382
0.0147917997433795
0.044647900444082
0.0243240518155535
0.0269578037172751
0.00929921025141513
0.0208282213659823
0.0150862403887625
0.0333045917825313
0.0128537003625929
0.0293190030000675
0.0171639456340431
0.0289088874935695
0.015205647501724
0.0283160828312349
0.0205996461648658
0.0428069082133347
0.0451061723084489
0.030164630086829
0.0204923410621487
0.028020717701849
0.0208969757540607
0.0385663122989334
0.0352523636213541
0.0224472262769139
0.0161322930469844
0.0175815326342413
0.0138113918858114
0.0254428839082928
0.0314064571365951
0.0312340734841844
0.0178268410283787
0.0280569421251146
0.0325493540052051
0.0425861892645184
0.00338492763977623
0.0184064009113463
0.0166151609249715
0.0219380729540943
0.0245206945621105
0.027048735328166
0.0076525997541741
0.0306435273175507
0.0292066546467437
0.0234159098443917
0.0146399164145137
0.0230786089107277
0.0256866792971176
0.0303681511190486
0.0214521124585606
0.0530146073989423
0.0449947654000934
0.0236631965093709
0.0430807379834782
0.0184909859545283
0.0185975811528931
0.020834236568271
0.02366152892062
0.0279716564937642
0.0220217395766399
0.0210632555817727
0.0219093525111238
0.0285014000702054
0.016814690558866
0.024899473221442
0.0311169331707598
0.0333502918608825
0.0238520028289418
0.0419478296745682
0.00889804595070153
0.018384721640315
0.0332980729497028
0.0318904885650288
0.0157288630842865
0.0221075682664029
0.0276561180792498
0.0204183781940075
0.0169008286254202
0.0186293845301539
0.0224174645083304
0.0301639077468919
0.0211818257363793
0.0205044316681145
0.0221845844884878
0.021500912308264
0.0300927039546064
0.0398498000950673
0.0321178680994671
0.0212454876102146
0.0140197580274387
0.00313960903412256
0.0354107472478184
0.0412919064572587
0.0144302999541141
0.0228463338683197
0.0157325051171745
0.0185873366096737
0.0164812763106034
0.0247060609363691
0.0212502337295485
0.0187497892505575
0.0345393913607115
0.0250520674301484
0.0258333817166451
0.019028669893358
0.0150908532930043
0.0240258297572984
0.0460176890965558
0.0347382911392829
0.0138431406949052
0.0190028893236168
0.015079169518912
0.0365777701964393
0.0312702527270714
0.0118155257589388
0.0240493162831118
0.0236426073944455
0.0206975489376203
0.0175236572266011
0.0163062782210258
0.0217841323558971
0.0181653557260104
0.020355878728293
0.0204819689342845
0.0159126429950413
0.0222833303646696
0.0227502198513592
0.0144367588378725
0.0202301114586906
0.00861761377731294
0.0172668475020429
0.0290618194320457
0.0171923175008742
0.0217496485694371
0.020910844509247
0.0285332211529778
0.0193252496736479
0.0170761658932166
0.0196922979516081
0.0222291180886657
0.0163449067888804
0.0346540689328705
0.0167549659362918
0.0238198031629696
0.0158080262036645
0.0294555122017465
0.0256518453216561
0.0235492902588244
0.0187286652893948
0.0216044702990295
0.0220870183486425
0.02256196954309
0.0286050555915913
0.0212359551274734
0.0240539184347014
0.0222133456075541
0.0198161412595993
0.0249024936526616
0.0234333199175561
0.0179785458299645
0.0570876321847646
0.0256136128354863
0.0364806467454875
0.0519000256636014
0.0209175059426524
0.0330050690633074
0.0189022688894075
0.0211879026787895
0.0663350025498806
0.0366456771062202
0.0268963025057127
0.0273855963042975
0.0232223775820674
0.012311942456314
0.026831187407471
0.0274868891425534
0.0300010621995235
0.0381494642797768
0.0367787706227971
0.0495220881535477
0.0114677271291258
0.0414781302045712
0.0261240391848158
0.0109161736884899
0.0188820290112113
0.0240374751110794
0.0230862229294259
0.0287587892874034
0.0290379026721128
0.0240885195131163
0.0235693995487553
0.0210402177278304
0.0440402852249392
0.0272586811296683
0.0249620810026291
0.0196335971922613
0.0275402573990923
0.0252139301139578
0.0336750770632764
0.0190933328268998
0.029352428072177
0.0285154302868041
0.0252034766282397
0.0520958177703615
0.0335376396781443
0.0244404256048588
0.0356979759753293
0.0193349008621273
0.0268792006833733
0.0158057930234702
0.0247003129790764
0.0182100641765658
0.0232196880028406
0.0216526851948457
0.0338921030888616
0.0293398211153088
0.0228751623075234
0.0225212001945432
0.0237436215453877
0.0263622752247032
0.029505475168399
0.02768033833455
0.0274764562372874
0.0351500522895517
0.029672502027409
0.0361530323449944
0.0401932292161044
0.0303781274424311
0.0453445583065041
0.0419978932187933
0.0199380864715462
0.0283948635285981
0.0202543997894378
0.0319136993913885
0.0224178345029303
0.0240793550543145
0.0265989871887648
0.0289397462363027
0.0404016267075641
0.0375693928572505
0.027975467258796
0.044335893866637
0.048213596202807
0.0589625651013717
0.0279251628248026
0.042751637569537
0.0295753205046272
0.0547698780647163
0.0553224104892398
0.0348032262471291
0.055582564219934
0.0290324006698651
0.0403975178851185
0.0349222014957279
0.0441048975238738
0.0396462348175232
0.0431153455309011
0.0402171709586617
0.0382500635425181
0.0405159998819316
0.0479382114133867
0.0439080165489057
0.0461877448783041
0.0678432898599966
0.0428481401860404
0.0389104841916716
0.0521134862035322
0.0458557468973473
0.060421487902765
0.0771497900108203
0.06637960379515
0.0782377489539687
0.0565957068970387
0.100317255931029
0.0474428872212223
0.0541658968079161
0.0456938977086605
0.062077047548244
0.0607650260367691
0.0640781112620689
0.0531139836278474
0.0621212305995482
0.0541828288264264
0.0693660912059779
0.0648585525200918
0.0734304735410447
0.060202532844009
0.087458347692451
0.0718748001851445
0.0759813205250272
0.0655758959853995
0.0796937722751319
0.118056024883901
0.106085412634763
0.0617984203557159
0.0877580703998565
0.0851725570735161
0.0687505876114189
0.087477703995165
0.0918192681006105
0.0861808970209604
0.0784071487928246
0.102066214153959
0.109547413425171
0.0883803980835144
0.108796645270316
0.0832147959878857
0.107179726080316
0.1030767048411
0.097066974196843
0.110696205429227
0.099192855038558
0.0992915963395265
0.121308690207233
0.113445273577343
0.103005716444421
0.130114488214109
0.108189956419428
0.102224598468812
0.111712039045835
0.115084636155579
0.11555676963275
0.113941610884135
0.127874660911163
0.121168285428158
0.132564859482998
0.127746950115105
0.121270834893913
0.128564322769733
0.15090093978668
0.124858689839286
0.147744161727752
0.124927611835409
0.129474668533211
0.118421867975682
0.15872642490863
0.163415808227184
0.143053511796857
0.176361163635958
0.148012758743431
0.132252367748881
0.133126488201747
0.143935763787374
0.152929188040039
0.151220092543806
0.158217648944833
0.154224218835958
0.173823552828818
0.161087258491919
0.16707316293311
0.149561783823007
0.173873504988317
0.156881884740327
0.170343284802538
0.15768985215009
0.174258943230942
0.174195763377181
0.181369235585744
0.187981034494678
0.182762281716264
0.198213099398101
0.187177888072161
0.185420043160483
0.192825376060867
0.187388838842782
0.186053046140329
0.192751553023387
0.199755590326303
0.187047496411668
0.212067441460478
0.198824024596966
0.198972560351898
0.19269051088181
0.219033580404074
0.21159971233426
0.221312385138883
0.210645902913248
0.219709789364431
0.212243000036163
0.225542133432373
0.227306095757337
0.232147913282964
0.207410313063127
0.250914952728386
0.220315687436936
0.223131173359747
0.219327797713665
0.24849088658392
0.23687810373574
0.241948978774617
0.233657313538214
0.24180594580521
0.237497526054342
0.265513192440955
0.24108450126175
0.262352435045658
0.24813258635091
0.272505147175478
0.260626464804701
0.285556687829089
0.255300001707372
0.285242357906303
0.262005736780185
0.272708253988792
0.268493652389034
0.270114048607318
0.27236881783902
0.295341662505038
0.275993501138406
0.27806753419019
0.278186529551635
0.306291705507451
0.279708613210172
0.306495500830063
0.287598668323872
0.311325192680245
0.288450624521112
0.318928120254053
0.298201265566625
0.308327912840225
0.313526737281338
0.329317047838695
0.299364351523277
0.330499591851551
0.319927370185128
0.329920567023669
0.311465251726049
0.340548805479175
0.326454403195565
0.333483504536169
0.318968406651826
0.346051185952612
0.327569600789496
0.329353547916266
0.318093001595794
0.358424973287681
0.330554002415915
0.372556123447513
0.351542908609532
0.367116954471228
0.352916852869046
0.36850057818531
0.363359252766185
0.374426385462994
0.355246735462943
0.375083579648832
0.364893002678599
0.389885567131651
0.362767521659811
0.394945960940082
0.370929226162601
0.396449103323685
0.368189772705644
0.402880941128452
0.384809123313081
0.400312619113293
0.379920748824627
0.4219866407395
0.390270052706408
0.407251145978
0.391922088221641
0.434876909852978
0.415221060905264
0.420054702894413
0.384548279565514
0.417918082330245
0.402915053920587
0.422573684591275
0.419032003157333
0.451226304133266
0.425102181788693
0.450888476825474
0.426112405559494
0.452420289139837
0.41761806442963
0.45772487938367
0.436106415152869
0.447392973620103
0.446713410324965
0.457527359855695
0.449964752278678
0.458093160258419
0.451681709622788
0.475869475295122
0.412240206308799
0.467520505357941
0.451969380952686
0.495045321664606
0.451066646027813
0.488779794580006
0.452069602321737
0.490857657395204
0.473086459072804
0.500228149480436
0.467439349533162
0.49823215089581
0.470458586053903
0.499389625285964
0.458831571538001
0.498256579472735
0.471941222326256
0.516794320954772
0.475409474772644
0.517832120620238
0.464842349287415
0.520527849171811
0.487977548540158
0.526894483309216
0.492497433341703
0.516181686136706
0.508455196713346
0.55522768427043
0.516737813857664
0.536073620295344
0.517992735109895
0.536094095681785
0.508135096985257
0.55209097210708
0.510196688007538
0.554652268045186
0.536926705919392
0.537906778588451
0.518705192464577
0.548771755485128
0.514285584342232
0.557271714118728
0.523751403089988
0.562804020434381
0.534836367744971
0.56273463780209
0.545793096199259
0.574742835415915
0.53690581004488
0.575717966418628
0.54368985824985
0.559351049555159
0.528993292198149
0.552147529892136
0.561853935354685
0.573473073888887
0.537171330660627
0.598187785364966
0.556582858560719
0.585733041156251
0.583951413521183
0.599111959632996
0.560522925221662
0.577030596099494
0.55397177684936
0.606734303634459
0.565232822960616
0.60444191274189
0.571004152616015
0.607962062520693
0.580277271410943
0.603018741719632
0.569707301154703
0.622228407808292
0.573837541448478
0.621455678761751
0.581941419318776
0.628657103474041
0.589285841083117
0.589202701579587
0.573570447374433
0.60939787691878
0.584695093801663
0.614897443595712
0.580630534937921
0.606877764035349
0.566656393887251
0.599634966453789
0.593892524275043
0.613672897514312
0.613709146035958
0.635349803542357
0.588936904940628
0.638783290967666
0.601134248296532
0.638069353381353
0.591734395536589
0.618967188412107
0.612657282715942
0.628780798479975
0.610196990350724
0.629191728706115
0.608197213926077
0.637752003558432
0.588321247363961
0.623949107236242
0.601882474189738
0.636763834565761
0.614207899553684
0.643267922458264
0.623449926868268
0.647157781253389
0.584622718078865
0.645091278458732
0.629749602491581
0.654748617954947
0.602911715455253
0.663255243429269
0.611972776558327
0.645388319172256
0.619222441115483
0.642773136350558
0.61703488372735
0.657060702058829
0.623002078618653
0.654977520734565
0.63451030968725
0.640989800511856
0.624939145551635
0.618311900178528
0.629248639254434
0.67785082142677
0.615537492283201
0.666236622009805
0.617800482745354
0.659830226801068
0.610079203247219
0.650953278976511
0.610893135182417
0.672361320004889
0.621279043749877
0.653067273319369
0.63390113122227
0.654795164808357
0.600461209859772
0.640612098753929
0.616824866988279
0.665116997444205
0.609785613098583
0.659885590396112
0.620006010544392
0.648109715374839
0.630073533005896
0.634442930850932
0.637460013498331
0.653498225344725
0.625187840154238
0.624898062174067
0.611134575329549
0.663560963664998
0.623802954012799
0.648217171008855
0.613988118632262
0.647171077724723
0.6337117399284
0.62629092056379
0.619666594284202
0.62449376243333
0.6195095408985
0.657111557745614
0.624113993717823
0.644115847656623
0.619107043412615
0.661508236485541
0.620231090935506
0.659464501158574
0.612598183428789
0.639493949001415
0.602293455935422
0.649521363875505
0.625049477327827
0.672090048796263
0.601077959435641
0.626315880324407
0.634386551039979
0.659606625272117
0.607855174555922
0.652515767466032
0.614860201102846
0.653750399083011
0.611457836120029
0.627537532831698
0.602486345690106
0.632105111048621
0.611511402010956
0.629277200303848
0.623780175349522
0.650651704083189
0.608802115945048
0.628080279531774
0.602967141234737
0.639503995591611
0.608934659721534
0.641104747321769
0.605507307453621
0.646102157397645
0.599786586524519
0.644275747800277
0.606090203295166
0.615418760898998
0.592243394427644
0.623861005637071
0.602856310647503
0.623919213474783
0.606775328112023
0.619327249522198
0.576518844163141
0.623149653496291
0.585603426841566
0.622926493615133
0.606371639329492
0.617430151925202
0.57752362004997
0.610174417709407
0.597206206572667
0.612418897851098
0.57968554041523
0.604797287897866
0.573088540380689
0.613350519551723
0.577835412741342
0.605046558871841
0.578359815214379
0.593495271443151
0.580352009970935
0.611164223393255
0.580133613629871
0.59980333652678
0.575419324766805
0.597335018253656
0.568294190785208
0.590212439557473
0.56502290403554
0.594984103706711
0.554030268265324
0.578802545464993
0.56305679060183
0.587153443168784
0.552123632865991
0.593336837997666
0.556081762258581
0.583415912324409
0.552551616664043
0.585374005537636
0.563882552384115
0.584723030556749
0.540584153410803
0.573914204989194
0.555610503686449
0.554517728019704
0.541314620392686
0.571604766959945
0.536794091578125
0.558807496825742
0.542269180721124
0.547572039890909
0.538761850401385
0.539839252404651
0.530722789426587
0.542586270156408
0.525840345867194
0.549327902021747
0.529381168912162
0.547099670642015
0.520070193812691
0.530827593471031
0.512594720585932
0.527400646128385
0.52168175745658
0.536358043947626
0.516743413914658
0.525953788118908
0.502963640656112
0.52068507164552
0.498281291607523
0.521734319180503
0.503857298755382
0.524208137136593
0.495334287209768
0.522889465055379
0.492367299077033
0.507244993913361
0.495307125033537
0.508670089154274
0.486243822270198
0.51571301630931
0.486827607402927
0.492595727643367
0.483253764125384
0.495409422972795
0.465325218392384
0.488956629823478
0.473463786711217
0.496083917253535
0.467792341304132
0.492131226166906
0.467385942466622
0.489430164293687
0.47089680114579
0.489300866910175
0.4571458709126
0.466615086831061
0.464347283923191
0.460697961389689
0.456586567782732
0.467001056012326
0.450863510183758
0.459997942189532
0.447529182780208
0.45561304070245
0.433333298502364
0.460507320026876
0.440521616840651
0.451820291048343
0.433875555828358
0.452729458471372
0.437766253834568
0.434300996784755
0.43084866233081
0.436761545315756
0.418121460405826
0.440861269440279
0.424639948652075
0.430886360497995
0.42141890656447
0.433110387394402
0.413246727521122
0.428078378843769
0.409784049979836
0.429025151302684
0.411450262736549
0.418630849309716
0.395495396280674
0.41379665863107
0.397390076459288
0.410105735844617
0.398026266994279
0.405464794545288
0.390287161191423
0.407016346311908
0.39867745073694
0.393795926178224
0.379327204321008
0.396198101047787
0.381942029643642
0.400083875302317
0.375445099016958
0.395297803689157
0.373320602694258
0.383534531173722
0.378772200797705
0.395549755254489
0.367035765866421
0.386962288257327
0.375016501394688
0.385079117138449
0.365438115721883
0.367381237349214
0.355184966452385
0.37690604011657
0.354088148959024
0.361735468876036
0.357717841700342
0.366525141265229
0.356681348247388
0.376307769175873
0.348181117249158
0.364640998235834
0.350626912751742
0.351605941823309
0.343753112074445
0.364451844271477
0.348210991036035
0.354205867603249
0.333925914721386
0.347128688602182
0.33657936573324
0.339287382036612
0.328530600463342
0.337904857353539
0.329676961348334
0.342501943402192
0.32612493978259
0.340669612889076
0.322475604198568
0.338098098308308
0.325495354259578
0.329033931651339
0.32711857901355
0.330822680857646
0.319296955376489
0.330226811445441
0.317960592375054
0.324932932985726
0.312132782887888
0.319707676739834
0.306222405814214
0.325682364688995
0.308343897611397
0.310506264024112
0.311410753594096
0.312315929386866
0.30301546395532
0.315382901613817
0.293721541537481
0.310636502878692
0.29511934235187
0.315587603757714
0.295795532356159
0.308491334180439
0.292636801516237
0.303064056465831
0.290150048056459
0.301552025128141
0.291375055723219
0.292242178168541
0.287407845241573
0.292139464709775
0.285640938140224
0.288531572642388
0.285499158059045
0.28964535148509
0.283086598239118
0.282678404851318
0.275675746305206
0.280203940995533
0.273552086850973
0.280599267539908
0.272962467632138
0.277855862601909
0.270749746868799
0.277302480747414
0.266820652109101
0.282639651898457
0.271357992238657
0.269999637781251
0.258821416856913
0.265896953330189
0.258327413936513
0.264762797476411
0.263066188611572
0.270408773904006
0.256638962964833
0.264441246939097
0.258349451714687
0.265637353267598
0.253923640660419
0.257352297338567
0.254833715549882
0.256160162516881
0.244339522886044
0.259045609662342
0.243779101317695
0.254834471857599
0.248939107264537
0.256834222845184
0.236509091562604
0.25135081552596
0.243898702091951
0.243386852075717
0.242481590545339
0.250154856855634
0.237341967112875
0.247827221317312
0.233500460352037
0.244996937776083
0.230213754433769
0.241774386639891
0.233495701237305
0.247828981573368
0.23630807826592
0.240350097594357
0.233673327245996
0.234361749634514
0.230639042667951
0.237554303846553
0.229327372383988
0.240386886649041
0.231608341919264
0.246323104269789
0.223850207279564
0.232836274712759
0.223600955422268
0.238782617370808
0.233388713733523
0.231402178866352
0.228108830895657
0.237999123432963
0.22586012881443
0.236501209351157
0.228239623898497
0.239135378814199
0.229428112969078
0.235373036004454
0.226411391165921
0.239940806258674
0.234931090243526
0.239604682607412
0.231039196454777
0.240430785408589
0.230913992281722
0.238513383914484
0.234880405838124
0.251165076802238
0.238008985305593
0.245504732088801
0.240933271525374
0.248465644624045
0.246335184052284
0.24721224767281
0.24201578118596
0.243451416813822
0.244728403436383
0.254516589462399
0.249295418409377
0.25601340609112
0.251013549564104
0.252473171572584
0.250874520781863
0.260774629951076
0.247916343204725
0.25723263642901
0.25846716203527
0.257832039561924
0.255571523177576
0.262108012573198
0.258001797441558
0.268571353710889
0.256541283165017
0.269245549788894
0.268925127586381
0.273027566687952
0.262280809804346
0.277136527702411
0.271011142368297
0.274222272124091
0.276143021412751
0.289521675567983
0.279880155075745
0.282929734455137
0.283216280587154
0.29346619304673
0.282551160090868
0.290828533707598
0.295404853253333
0.296198681221486
0.290189585783183
0.297385044217596
0.289397449752939
0.300255533195193
0.292859389597545
0.30112133259128
0.287057949335719
0.306515350747077
0.295631720333319
0.30223079881559
0.297181072424152
0.301319874605766
0.297305628325372
0.301697710329972
0.300746239629927
0.300470686546209
0.295404772092886
0.29786558105041
0.291714698188946
0.300059936909906
0.291569879502903
0.300404829769722
0.293161517753394
0.300570690967054
0.297961462669477
0.294037862807784
0.295266471498821
0.302370992219738
0.296515978325554
0.302465698051256
0.297742291316482
0.304860432747523
0.294205087323196
0.305039182427687
0.294930996246459
0.302603382798586
0.298683918748008
0.305178885952133
0.299908326938144
0.298568722285244
0.300437404546188
0.294293524905859
0.294636235948002
0.306686960278553
0.29985723256375
0.303961406686488
0.297218151963616
0.301853080343983
0.300482753863132
0.300701351780197
0.300115954549811
0.296434329848313
0.292394904744594
0.303764491336753
0.294806525223061
0.302042484596192
0.291834174481491
0.298021495417231
0.293302697399328
0.298936628061085
0.289604370000679
0.295097275542212
0.290786628131894
0.295569192573207
0.293325498031784
0.295753136628338
0.288569927822663
0.295294629125236
0.288910853017112
0.288886825961312
0.281240700209483
0.285021251425276
0.275126234621435
0.283917296608209
0.279219372740856
0.281710605695675
0.277540695365605
0.279065978622537
0.267055200541493
0.273447300018055
0.273364504357535
0.278032051980502
0.263321999513071
0.268244682203762
0.261564910145722
0.264395561430945
0.262935281259401
0.258449049343059
0.258497057529979
0.26405938870319
0.254339300271002
0.254661882502442
0.245403930042048
0.250743528252706
0.249323111261532
0.253270907456022
0.246340209339013
0.248877729018592
0.239333157344064
0.243813235332689
0.236571310199305
0.235449145898472
0.238576530903556
0.241061907827623
0.237828350404049
0.241668962024142
0.229015544825192
0.233179105642823
0.23301466870081
0.228386817596265
0.229104317548846
0.23250442215471
0.225286409196562
0.224390914727873
0.221675215312953
0.223330317102023
0.215854633075239
0.223175004540494
0.219868470123594
0.223548994365231
0.217192674913509
0.218650866160943
0.212705236110431
0.214206994020603
0.211296154890221
0.215634843460293
0.212870510923579
0.218249972341159
0.212621215501579
0.209580677272973
0.202714512877951
0.209167817235175
0.200844306378293
0.209212406986062
0.200861847545497
0.206113640679954
0.203383251841903
0.206417389968625
0.199932126102511
0.202966348773079
0.196905126852906
0.19745766773493
0.199772358540657
0.203698301900659
0.194097294677694
0.201228392764988
0.196942653657085
0.199163511063402
0.194754120718333
0.194021555051791
0.192504328258242
0.196084852700984
0.194215077502538
0.194337203178606
0.192120275182422
0.191369775819723
0.192510023482235
0.194487200956332
0.187331853078093
0.187104724291942
0.188572052208992
0.189836279764123
0.185018947157263
0.189777035456313
0.184995815871156
0.181643131263484
0.180993417017197
0.188321536490585
0.182633292173355
0.187801237374132
0.18003750610808
0.180290509953598
0.180516502270363
0.181563911953433
0.179404586278745
0.180607834601009
0.181702668626509
0.176841878881516
0.176518749897101
0.178215158887558
0.174464759824618
0.178714347533708
0.173207850915081
0.173016199022715
0.172383309904453
0.176299963903626
0.174813259520778
0.174314247485046
0.169152647041986
0.174855861664581
0.169893511468039
0.170821507798767
0.170057116198311
0.171342364872089
0.171614341143292
0.171349976663216
0.168327371576255
0.17046236786352
0.165294547300817
0.177414221148082
0.170426188254533
0.164435973368051
0.166754956127725
0.173168438763521
0.164925378821683
0.171999822787433
0.167011715046653
0.168821660540813
0.166559521988259
0.16670668950573
0.166123145792257
0.165323371519272
0.162780500087485
0.169643236718189
0.1659755124223
0.163859500213062
0.163181361614283
0.163055130135788
0.160728491504061
0.161531761739074
0.160311212204985
0.161689683711677
0.160946691080118
0.162508815387313
0.161374564196091
0.165463890277572
0.161157816709987
0.162325635085804
0.160462671697012
0.161995485804258
0.159085343485163
0.162623013820199
0.160450984958111
0.156877064828968
0.155873714619489
0.160933142971427
0.15541332940462
0.157550755537055
0.156929253814525
0.156858713205482
0.151305340783007
0.155380520586422
0.155660336781124
0.156451417469423
0.150124227216504
0.153934539854855
0.151311450233649
0.153935512548123
0.153298987094077
0.153546827396445
0.148649009155222
0.154333374721492
0.151361446456538
0.148165727709121
0.150363951212738
0.148042948088902
0.145051914178872
0.151852317404253
0.147956377219233
0.148443756820754
0.147742352807221
0.151449793919532
0.14783798328751
0.145888892488424
0.149013515773499
0.148821553326496
0.146935298717014
0.144743464785445
0.145188905659077
0.143768807063055
0.142065099893974
0.143331704840288
0.141927320341755
0.142185383392752
0.139185454700715
0.140966872263482
0.142826304728439
0.141556079353729
0.139881381992115
0.141302082327205
0.137856349168674
0.136379631959315
0.136770777670931
0.138860541442964
0.139650367496998
0.140186910789431
0.13503891243506
0.132270846798593
0.133400273675736
0.138365254541162
0.134561331851527
0.135095910651565
0.133855601054649
0.130648941514359
0.130012990589303
0.130137290326933
0.133380343552768
0.13227506564945
0.128881464721689
0.128805874953021
0.127688947631156
0.127547208463581
0.12639266671275
0.127450283309108
0.124958492572688
0.12562160449156
0.12582144290778
0.12420536094111
0.123510724151859
0.126645383309991
0.124662972421423
0.123017815257064
0.122987555200341
0.122703985340742
0.122403801625215
0.123043311290619
0.12255273708037
0.123132384713942
0.120876814266748
0.11874582862291
0.117984899827691
0.120974314186517
0.1164518824275
0.115557911603838
0.115552943636021
0.115656812803814
0.113963003791371
0.11308174290314
0.113794453508921
0.114006625099537
0.111954278547393
0.11298442815316
0.116300342470363
0.108906428264088
0.106604703041707
0.110422387578285
0.108081906477959
0.107061916337069
0.107820331628393
0.109241786088886
0.10804081467797
0.107501055281969
0.10707909422439
0.108077138823401
0.105879854042961
0.109686320275059
0.10641160260132
0.102889961292372
0.104360963653687
0.107175617867532
0.105047406630533
0.102132951508276
0.103187735605437
0.102919323003442
0.100068705024408
0.102026332209029
0.104188290120164
0.0997223123671813
0.0989579080842253
0.0996817691945931
0.0994317498881566
0.101385417154986
0.0976101928144105
0.0993820988919392
0.100140688348325
0.0972075527522323
0.0998988787243512
0.0984396528961126
0.0994039215443334
0.0972904632999164
0.093821942184844
0.0930435780078023
0.0953808025019415
0.097460116112101
0.0939790584360048
0.0947044896169198
0.0932177937900667
0.0957168583882622
0.0909086086125439
0.0918109488279449
0.0954116257942462
0.0905039669958656
0.0901173931494625
0.0948338578769735
0.0929586180071678
0.0924270342628395
0.0918166492798825
0.0924728564733536
0.0923268293000949
0.0901912705569632
0.0909421700571589
0.0873319713841417
0.0927048709429952
0.0864971192549338
0.0909233564095141
0.0916328676294054
0.0895951869288409
0.0874919517062051
0.0898642157380449
0.0882906786811102
0.0877267355698916
0.0909756446586349
0.0862384920752958
0.0840277187091948
0.0880024921592254
0.0865297865395473
0.085886673311439
0.0872304741560132
0.0868526443054788
0.0886277427340618
0.0858438517007882
0.0865333676705667
0.0843189263766133
0.0888669134761314
0.0887010941736186
0.0864244450427962
0.0866940615034279
0.0870504502590006
0.0847710155927488
0.0864280143110181
0.0843771500642353
0.0838420489732777
0.0828839222723206
0.0842391214740545
0.0846158811016505
0.0810030729425865
0.0836814695125345
0.0812871738183328
0.0848066107227938
0.0826909390399951
0.081292814555719
0.0834208577564135
0.0811489531579447
0.0779448201088294
0.0811079831703435
0.0792206194992148
0.0818558752752454
0.0796820060272832
0.0774349675756325
0.0790590230252721
0.0843679648496856
0.0763319948821803
0.0790019625811295
0.0791491745514543
0.0794733268354011
0.0789767846423566
0.0792827850891621
0.0753113703295153
0.0759172921842254
0.0785328337823199
0.081853475656003
0.077955384046766
0.07814313109627
0.0757290051299104
0.0793007126877651
0.0752022243792481
0.0758700976777569
0.0752154189361372
0.0773452765474407
0.0737044778334691
0.0752452873584014
0.0763421629100677
0.0742414015554752
0.0767246216172911
0.0766140444468457
0.0713698848135902
0.0747419681488884
0.0721211477209089
0.0777029591017435
0.0753802089042603
0.0724417285975047
0.072310401876898
0.0732721089938845
0.071816211978841
0.0754636507006346
0.0720617366066169
0.0718404578048125
0.0717324935668596
0.0715024234125188
0.0709490099008768
0.0733630383353944
0.0673952170566809
0.0693166986337356
0.069615176274349
0.0691252242892325
0.0664494390895741
0.0699853419096592
0.0706931879685233
0.0734124519806792
0.0715078912863768
0.0658158663902638
0.0679960116071063
0.0699014381198308
0.0691709573127846
0.0696367360292542
0.0680031620813622
0.0687117778979275
0.0660770347967623
0.0660011324185362
0.0633427362337636
0.0687301555625308
0.0654731108690224
0.0651396510506413
0.0630329259003842
0.0649488674652963
0.0638172556085953
0.0639950764263867
0.0651410619793725
0.0669522603153857
0.0627369137088813
0.0639958034560308
0.0635124531329016
0.0613620759408106
0.0606703766958748
0.0637733745433178
0.0588767650993329
0.060217974763976
0.063357115399084
0.0620227637250057
0.0609818262176066
0.063683685378409
0.0615120575956767
0.0609680066758865
0.0583617422018301
0.0595514861721702
0.0591460433714864
0.0594640139209214
0.0555582917286851
0.0589000507960862
0.05789050500178
0.0616778263003161
0.055783076917005
0.0562298834600287
0.0552903556974693
0.0578314507015061
0.0577496705849635
0.0563053510416773
0.0548308627905962
0.058407514616751
0.0539345909951117
0.0558087011730418
0.0553432224759643
0.0543423206383379
0.0543876773547272
0.0548575669013503
0.053325404588759
0.0535981232414745
0.0514710003669746
0.0544647267796541
0.0542008811319791
0.0563908283413623
0.0508625851945602
0.0559108652676872
0.0542712783102466
0.051776145931997
0.0518473756904943
0.0547269978377637
0.0518151128906358
0.0530683654760598
0.0493928145387423
0.0543967089584319
0.0529295752581731
0.0515955692817473
0.0497960521895241
0.052488791378067
0.0466137991280909
0.0487106291263831
0.0476210666897416
0.0503952473681162
0.052153991122833
0.0499455543633467
0.0464616046038248
0.0507631327151966
0.0491424001236188
0.0497365930403132
0.0468010898940988
0.0520713622224108
0.0485582662510941
0.0514122974396133
0.0471604469860079
0.0486525579985099
0.0472659357535263
0.0495761628692061
0.0430953343472396
0.0499904863645144
0.0459492637775148
0.0487065515707467
0.0457537558252805
0.0488981945534181
0.0446102542492688
0.0463594968291458
0.0478753392595233
0.0504920637433171
0.0466927167639511
0.0487465936268469
0.0475095318343577
0.04883260043729
0.0474487423387611
0.0490350720400504
0.0455216220166165
0.0514562907839574
0.0444009033551702
0.0489387685131805
0.04559112403853
0.051009389575854
0.0417324378483111
0.0455965060537842
0.0357724673034584
0.0450605603178033
0.040919310712456
0.0479884804331061
0.0374427655258943
0.0497432785968377
0.0435207727449504
0.0427903597532385
0.0403180477982787
0.0486221432161931
0.0366947563335494
0.0562923444620228
0.0382060392979489
0.0352879506891484
0.0416440361365943
0.0453219280251222
0.0445426270376951
0.0449888808807464
0.0307724845765143
0.0457702212926202
0.0380780167958154
0.0429874534348396
0.0341294459151861
0.0475025851419114
0.0338858497274897
0.0412833468372042
0.0369867536864207
0.0401602099120513
0.0372407118982753
0.0337117133638229
0.0369907255779238
0.040756177234093
0.0409253930517918
0.0446901903703328
0.0470706038540914
0.0384633886885896
0.0425645187372904
0.0341835019249035
0.0418140319226041
0.0315250835461147
0.0515820034778616
0.0335875131220099
0.0585138606042169
0.0207143192041307
0.0535006550410761
0.0185454903184841
0.072180075084171
0.0150556754060047
0.067204801575175
0.00539343235830114
0.0819482198468682
0.0109895380667213
0.0729678865281243
0.00963114157192708
0.0739594398720047
0.0133646277312083
0.061885628927436
0.0262902683942308
0.0545842843100671
0.0356879330893125
0.0421083728046999
0.0434857245309431
0.0353247771077405
0.0492488556116195
0.0345066985911254
0.0509605458801026
0.0355689063294306
0.0421718268309752
0.0370781443045172
0.0389124152904357
0.0431315444596592
0.0335643168803232
0.0450740541417181
0.0385106332292261
0.0424353312227919
0.038069280225307
0.0399121141215467
0.0403065873719891
0.0380286305450243
0.0420539176778743
0.0376802302965066
0.0418565426182973
0.0388539973828365
0.0393425263987828
0.0419287066544341
0.039625957518637
0.0417846274835627
0.0385287586949787
0.0421995037759476
0.0395418769023356
0.0411257963180218
0.041144322107371
0.0404339172571909
0.0406875927137239
0.0412957888800095
0.0382340522417671
0.0420817960538836
0.0401399596164515
0.0379562386263096
0.0401687985408137
0.0396305041568233
0.0401871229596134
0.0396859501080317
0.0392080589991281
0.0403457785125085
0.0404493329215729
0.0394985209765339
0.0391123327461443
0.0409659700773432
0.0381012415219048
0.0415337367618566
0.0417654729316533
0.0385598720847167
0.0381983251187924
0.0390855067390127
0.0377884011911829
0.0395320865221708
0.0397316315069117
0.0393156219817983
0.042895049483536
0.0389623342570081
0.0420440591607544
0.0387965324240248
0.0385999244505964
0.0390315712863056
0.042133991564156
0.0389458866042739
0.0382912122955917
0.0373692075619964
0.0399486703132421
0.0362643889446618
0.040585494152909
0.041299821424888
0.0401375383143002
0.0376418619336363
0.0402229301523692
0.0383438785202409
0.0392723870642792
0.0408163573320186
0.0393848229784016
0.0369242193785875
0.042510833598951
0.0401571999134634
0.0381809076486877
0.0371734571727519
0.0410798043578427
0.0392956152110905
0.0408721657052341
0.0384176569167468
0.0406732040636616
0.0388118208085031
0.0412827803365795
0.0394056966299328
0.0397673714257328
0.0385767731069944
0.0412280530995369
0.0390746611270042
0.0397924515212894
0.0410464875926888
0.0405123797889617
0.038715213110673
0.0418976684448855
0.0392468687258539
0.0436070913084985
0.0400560963452174
0.0403548056749925
0.0406602049970942
0.0429643205905717
0.0407336003423337
0.0412852613506705
0.0395917143093707
0.0434234646230556
0.0394731781135864
0.0425259571424875
0.0400144811711549
0.0430966213761112
0.0405544304369734
0.0419851724091383
0.0407831838955438
0.0415516149232077
0.041313314297588
0.0417503689587346
0.0388533077930147
0.0399968469369849
0.0408642918022974
0.0423330417924495
0.0406636192881534
0.0425108128469025
0.0400046621124178
0.0440321607904055
0.040216372951201
0.0418242759704866
0.0425517495061488
0.0440587552614427
0.0410957580068159
0.04165912130332
0.03843176570454
0.0431079518822568
0.0425963328132524
0.0425857930058248
0.0417650964209582
0.0425448379724575
0.0419423142990237
0.0427372599889603
0.03996648610883
0.0439915927346709
0.0392230064975874
0.0408869920236941
0.0409207831101781
0.0437556476979239
0.0409755622658459
0.0446054361720713
0.0424680418865013
0.0455620193582928
0.0431818565120559
0.0450925033360453
0.0427667842854347
0.0444626965746465
0.0423127137731578
0.0446019016181036
0.0418860698769502
0.0443928547108687
0.0428836555343798
0.0445255589282693
0.0448056755944892
0.043969985129321
0.0418489432395559
0.042653719088276
0.0417644314635404
0.0438976705766567
0.0449144302008388
0.0460796566592751
0.0423939629379224
0.0446593515478003
0.0429730087185821
0.0466064802359626
0.0443229780071585
0.0444930091554581
0.0432504029784574
0.0434229511080053
0.0420961482429052
0.0437198600013225
0.0428403835249385
0.0423782300579433
0.0416023630441534
0.0433746160207737
0.0404488094818639
0.044459511935953
0.0429994609903674
0.0460685812911192
0.0398176264841696
0.0434443143917903
0.040503636649533
0.0437239435918965
0.0412502255167099
0.0422360750530575
0.0422993435132573
0.0448205394539751
0.0418998012771733
0.0447835203235012
0.042612699241063
0.0426046069795928
0.0401518371181196
0.0395865093783287
0.0422246424276166
0.0406571865276248
0.0436898244507271
0.0460581886210707
0.0406989633652088
0.0439481964290739
0.0394833857292302
0.0417752686632365
0.0432493929409513
0.0436808025699539
0.0390312234666778
0.043533650466191
0.0426924670558874
0.0415520960371998
0.0401697516225086
0.0427196795818352
0.0380381894985532
0.0433918847022698
0.0417051439090846
0.0415975666080205
0.0394091894583156
0.0437242692098125
0.0420799964339553
0.0404404839664631
0.0412169500152522
0.0418976248051362
0.0406315042563418
0.0410842444226966
0.0424624035886121
0.0411108167779278
0.0388161879464611
0.0420289521410213
0.0413442674863759
0.0420125933060782
0.0429544200184862
0.0432875693291285
0.0386120693669234
0.0442364482887688
0.0404639845201153
0.0408878486402519
0.0379047252745674
0.0404895125491029
0.0394090864328794
0.0387620147432873
0.0364708071360019
0.0410432986156099
0.040229125173403
0.0391002208993931
0.0381933366078288
0.0401878879189504
0.0389512052278119
0.041692931320041
0.0404236322158019
0.041147925892176
0.0370607479634217
0.0399411489920342
0.0399406615601111
0.0408802074440106
0.0401203906174056
0.0405612457855285
0.0387495339722278
0.0419331101670811
0.0384263287607705
0.0430765485910671
0.0417734135824248
0.0431454151814904
0.0419328635348519
0.0407988329151672
0.0382340944559964
0.0399146247380721
0.0378570446548538
0.0415699628547982
0.0424461533611065
0.0406410784309212
0.0400876800329701
0.039914553398707
0.0373976753234946
0.0393821889296064
0.0382785537441681
0.0408286866197193
0.0383415053732809
0.0385492643913354
0.0377941269719937
0.0405808113932728
0.0397374119608973
0.0397035949290523
0.0391763596139587
0.0413604729989041
0.0370583605298795
0.0409261699922169
0.0373769339826252
0.041071629041809
0.0376196887229138
0.0387568652282094
0.0382133274012909
0.03953754717217
0.0369029906571703
0.040310336093639
0.0372779747487885
0.0380197459041045
0.0369297307492477
0.0397043509756091
0.0367497801685038
0.0384460702998979
0.0365132029344011
0.0366528611813179
0.0354599124653366
0.0384838925747843
0.0336812233547665
0.0373878570383041
0.0336826286945964
0.039160253192777
0.0350801818827452
0.0403105178956422
0.0346325651790628
0.0373213909452654
0.0355547186837463
0.0376083671748054
0.0321906821799343
0.0374604221504705
0.0316125049129987
0.0357619028278428
0.0366477450691749
0.036536160805221
0.0336419011145336
0.0367494922762977
0.0328967511144421
0.0352947651377641
0.0330069000274818
0.0360788400106942
0.0329928012868229
0.0357343192191718
0.0329479054115641
0.0341274204798018
0.0343957089241501
0.0364888154584613
0.0335685990007828
0.0333465079296672
0.0353220843135975
0.0367858039508759
0.0372111182399663
0.032791023100639
0.034390332697956
0.0360457442906276
0.0348725738432237
0.0322760229235969
0.0328976388016506
0.03381893610537
0.0327158397540095
0.0341500919333916
0.0322206709032846
0.0352209964362912
0.0342516837247294
0.0333464926292389
0.0309723841568358
0.0321795824147727
0.0305323834244233
0.0348994496047137
0.0311426759769509
0.0333409464487753
0.0315390120577285
0.0326817619594841
0.0322116634965939
0.032568901182638
0.0355101005095473
0.0331345310850247
0.0380960706765058
0.0333189235773006
0.0340569672103677
0.0313716972119102
0.0286647895879975
0.0334366004602838
0.0326932947314094
0.0331150741771342
0.0303660820163043
0.0333634743604246
0.0302648768277336
0.0323890158550706
0.0306681105646115
0.0326386816506219
0.0318667534902192
0.0341624040624622
0.0321289624080091
0.0300352233448637
0.0301768140476206
0.0315730388489178
0.028979432279161
0.0312923936048418
0.0315466912882857
0.0342265500185388
0.0294366940846483
0.0341474954037417
0.0302664493862007
0.0456459581395446
0.0251746024220021
0.0382289256118285
0.0295219579282472
0.0329656653029978
0.0302444957954962
0.0339050461083359
0.0293383033614172
0.0328965863215276
0.0287805134798228
0.0334770487477154
0.0293565077541441
0.0348233374861706
0.0304170510792696
0.0314610376082609
0.0278170506758886
0.0345447387743883
0.0284052833176412
0.0305310084197965
0.0294130256875105
0.0342735368691809
0.0343305073439799
0.0347289871732583
0.0285098971201433
0.0386254515256781
0.0275498194295949
0.0461823696064796
0.0322291814731272
0.0300669704482545
0.0318240600210325
0.0312840378490679
0.0320813231904597
0.0289494764935927
0.0330526460920379
0.0288316594350455
0.0371732364806268
0.0291354477618796
0.0329606815231553
0.0299226939064604
0.0338197667521792
0.0318438560048397
0.0306930518960745
0.0287741519422294
0.0301577525667918
0.0314027337231404
0.0280214343436144
0.0320506531002056
0.03046472346809
0.0306742247282663
0.0304594325933296
0.0330316417108616
0.0361185638667648
0.0265414135781395
0.0327938141029978
0.0283270894996054
0.0332577927054235
0.0347770568525213
0.04394283163349
0.0224950081402996
0.0342370443877216
0.0304457935613645
0.0313433477000084
0.0311744905506256
0.031831725514229
0.0305688874281518
0.0291653898974496
0.0307538172214402
0.0308921259598436
0.0319665395426045
0.0297662715553818
0.0314551572036952
0.0300947781885592
0.0326732954476505
0.0273045749704377
0.031920354599227
0.0278760898713278
0.0325529358524464
0.0319880615222762
0.0417508017589894
0.0424486829118298
0.0286574428918011
0.0383518713424449
0.0290109820653865
0.0338177054897638
0.0293533083794289
0.0354113120293345
0.0293469955974824
0.0331223096272174
0.0280441801197296
0.0319128069941415
0.0273606266688237
0.0315600386568836
0.0274652362308485
0.0343342899482451
0.02605657056446
0.0332266758371037
0.0282065101169428
0.034946630544324
0.0273153842617243
0.0332011242190613
0.0282831900173429
0.0345312394174903
0.0309036411405701
0.0330681713090746
0.039557718670557
0.0346675001153774
0.0466278806749577
0.0211375075168996
0.043528803447745
0.0243368884227455
0.0389075039688713
0.029222034179313
0.0335779219214726
0.0344514288634702
0.0329754552248384
0.0281996951178235
0.0337847078729034
0.0305493594484928
0.0328044504602826
0.0309711356009968
0.0397132268800776
0.045695223745564
0.0359494929565085
0.0282022948184736
0.0385960610315428
0.0276683228594083
0.0521192876556016
0.0306055257030566
0.0334173801500808
0.0338396711056876
0.0317575717156085
0.0345847871455847
0.0335186728915978
0.0369664088513573
0.0356076925044173
0.0352735301777064
0.0318831605036954
0.0347197345896842
0.0316342582910418
0.0340443408895117
0.0359541222908642
0.0344488256061074
0.0374741571811915
0.03193188012162
0.0359744359796098
0.0376516743603993
0.030763717362123
0.0355618283881478
0.0311067612586783
0.0368282079590303
0.0353400487297522
0.0401199936179208
0.0338582170625016
0.0387852699476253
0.0407840435018806
0.035304746928098
0.040645350126373
0.0443452053157467
0.0313953167114391
0.0476195691539096
0.0266383489926308
0.0616214498566346
0.0265875698361656
0.0518377790953447
0.0299430970600351
0.0394135679031214
0.0312624642144304
0.0401631755391837
0.0341759020857293
0.0390862861271352
0.0415101001362277
0.0274281063907779
0.0482431124295984
0.0289054260798546
0.0483057594503413
0.0322648782533758
0.0431273524554275
0.035086002977271
0.0442340180801925
0.0308216765173203
0.0505261764522298
0.0358403444361946
0.0684360345838987
0.0436336330628477
0.0326154605356579
0.0475155943686984
0.0412756559160004
0.0492903078832794
0.0407396142905638
0.0352402453196794
0.043480328653221
0.0319589879447155
0.0506338849816019
0.0394571599765914
0.0571984468869067
0.0423753989058867
0.036517886692804
0.0495037907424416
0.047068431532338
0.0515169210001027
0.051000610137508
0.0400604773684155
0.0448261352002818
0.0420068587382655
0.0585111918311289
0.0357414077238857
0.076234580428854
0.0329461762914457
0.0769401682536648
0.0406483698612598
0.0643272602412939
0.0417491448878422
0.0614287843969441
0.0506212464532613
0.0633724724098384
0.0438568426717926
0.0618828030256371
0.0403900599950454
0.0697652462074289
0.0490424760491209
0.0561040496947949
0.0548396003275104
0.0649151814771262
0.0725878549550434
0.0831522182336247
0.0487972612228613
0.0647223233217795
0.0623590296189611
0.0674253844747784
0.0597447005187466
0.0559748010911376
0.0621760226799356
0.0591714363444511
0.0610941131926041
0.0676375353507713
0.0647513223904822
0.0707767169484762
0.0560347972437329
0.0716312406598563
0.0619555026039824
0.107331057323857
0.0663617691381351
0.0829821892030789
0.0773001016710727
0.0716513405001814
0.0795366823793244
0.0655689327843467
0.0767320914629704
0.0714700891662364
0.0740641815057363
0.0723752695289428
0.0720857014675351
0.0881804351672063
0.073394575301882
0.099217325074286
0.0766163012831176
0.097407737203936
0.0727549835694377
0.0990296075381246
0.106927785160262
0.0884960939317596
0.112444417369162
0.0711824067799855
0.121707665746735
0.0935408693038529
0.126822487531293
0.0973775310693978
0.105226367229486
0.102180134581986
0.109456486497951
0.10948645825305
0.118958246729406
0.115524365356225
0.123986491165708
0.120100110315025
0.136871389866418
0.134772414820241
0.180451886837984
0.138869609813888
0.142648314029108
0.138392756193417
0.159470822145
0.144309494378152
0.153432410345045
0.137994852377448
0.174301946141314
0.15304549573214
0.189035738744274
0.159941944244533
0.171212678503197
0.175278078830058
0.173233872442443
0.205726386088162
0.167037999269789
0.214780097080544
0.170671963300244
0.206926874412218
0.184162838976778
0.207727660679174
0.206242179385747
0.213830935604986
0.214048181533734
0.212821715156523
0.222204647361204
0.216567384307076
0.221683814606895
0.221456049937707
0.226457624568087
0.23826333323921
0.241687109038805
0.314825258301443
0.184697838890625
0.258607127059617
0.21681946331707
0.247580549489319
0.236269643414913
0.253924472184055
0.262731006152795
0.240504732729881
0.257905043922811
0.238992265676128
0.24334713133589
0.242519074652382
0.240316962174516
0.25029930948497
0.235874468891767
0.257933851803712
0.227124022395829
0.275807049560612
0.217873634782522
0.296383823683097
0.239106290679111
0.252262523247026
0.236521229007286
0.249090475457739
0.236580184056026
0.253659198876552
0.242034373298116
0.247937853236755
0.241738175282201
0.240362946387915
0.249585796472409
0.237925455319987
0.249140105454693
0.230135835006721
0.230617966279788
0.23992243134598
0.215196560294763
0.25164301437691
0.231844841044134
0.242242762062565
0.229083296089561
0.224025601947544
0.231255403600803
0.224950422796203
0.224178688378195
0.226242840954603
0.229736725303663
0.227836984647303
0.225906897174615
0.223031306546053
0.225949543463718
0.218866746002788
0.232741046733046
0.229018967964901
0.23382996742743
0.229394714014096
0.227741129159157
0.224958263590551
0.231022814344796
0.228541023190548
0.232573687800692
0.229306201150157
0.229640845293188
0.233129945953745
0.234752389501552
0.231672560945107
0.234752715663452
0.229001288086653
0.232675115504008
0.228510027666049
0.235979868183756
0.230526807378522
0.232561333396622
0.233966888616923
0.231635602847255
0.22801385938941
0.230352118724117
0.22852073207907
0.23128411490616
0.231876716636876
0.222878762336003
0.254776658758395
0.214289753050802
0.243976829992475
0.211394029703963
0.226501660656726
0.214051157209202
0.211362797255315
0.23439865803862
0.21315959783482
0.223243451966288
0.205022692880891
0.202109000348684
0.208031719320395
0.208107590351084
0.204430320352461
0.205381986288375
0.189801353553023
0.224585871131673
0.175474251256781
0.269024253553724
0.201114214372368
0.218243090365141
0.185028940872676
0.200781360076361
0.200448186089744
0.195374989662021
0.196026504223276
0.174516822159105
0.207815422590641
0.16547314821591
0.193670973077321
0.177237171286598
0.181114064646374
0.185213078586955
0.183980301395903
0.183138911243187
0.193516989785131
0.190879416159227
0.190741184126792
0.192675480733228
0.195485511596269
0.196143045919305
0.163568924270834
0.172232445797479
0.159165101063201
0.17264945465416
0.186288006277872
0.155256730906429
0.17923210471956
0.147404175492056
0.162414097595525
0.151228482549266
0.166775960948033
0.154370282144689
0.1594470284672
0.173671178534307
0.140932439404984
0.171635511659585
0.135315196808049
0.184045535364304
0.149505252815333
0.176004497412504
0.137597810517073
0.160772904073697
0.154225188818449
0.162492161783456
0.159090943968979
0.133705020664752
0.142009520164037
0.147466401213388
0.131992072106557
0.149189162022624
0.134128353362152
0.160991982241442
0.165796942297778
0.158826798271091
0.164238438131136
0.132297576922957
0.13235461903213
0.130127482178785
0.126355566276324
0.14228060200908
0.117730753970538
0.154049572881493
0.112292683309765
0.147032673145405
0.144615992953698
0.129280455377812
0.141380793962268
0.132269573733102
0.129999725453886
0.138850818080326
0.13978092294076
0.16470084478209
0.142110244636546
0.150014809483177
0.143059025012522
0.151696331782282
0.152264030591567
0.144729707704076
0.151332335858858
0.147068492508116
0.16122150977781
0.15788212881186
0.162249533072538
0.160150911077211
0.160311551650175
0.176750853626112
0.182739177136687
0.169854903599387
0.199158855251365
0.165382476464139
0.234911806700526
0.171584597753782
0.203812136279026
0.189327437183995
0.196467473447846
0.202553196905643
0.197091632734944
0.216084168500961
0.229169636889147
0.207968380699377
0.220670187836549
0.206620375562412
0.231803077784688
0.207936112932612
0.243006732721626
0.21755952038721
0.281184429657274
0.211537334415396
0.246320420685104
0.238481082293703
0.232647124402808
0.23879893193117
0.228673068354572
0.244805153606159
0.235905581543482
0.235988537351908
0.257101014495634
0.240235032879209
0.249161990218311
0.239997775882006
0.247258291913987
0.242641047593301
0.246335119519106
0.249785618661579
0.248642404748349
0.253921078404156
0.252334407978188
0.25359153153046
0.293712683770849
0.250272994440408
0.282271480321929
0.259434363993214
0.273730711672712
0.272444741229077
0.271653695431902
0.279454315039554
0.2783403240324
0.282052740481236
0.279230927044888
0.279957897258313
0.286309296838535
0.276767083804371
0.306490605704751
0.27872158287776
0.3082295778649
0.275354457515988
0.314553843645636
0.304923233827593
0.312937776203158
0.315394607945878
0.297547998535949
0.315183964564635
0.295937420898144
0.307014078776786
0.302656088785631
0.312256935200399
0.304929599641028
0.312758677612168
0.301495200821064
0.309678386962238
0.306455173413967
0.305259057125743
0.317445318692949
0.30615107507648
0.312414371172764
0.302894960939809
0.309053584321708
0.299517344158053
0.316693695447227
0.311691887700091
0.312877033079364
0.307641146652797
0.299566733123547
0.31592816057588
0.31763216633462
0.307145872951761
0.30424437589672
0.302245872746591
0.311392901271076
0.298917680328709
0.302983367747038
0.320470407217867
0.308952497859431
0.317220999627961
0.303977295216665
0.311634942034556
0.307125985860392
0.313702642815487
0.31029232404063
0.323431688448442
0.30931657689399
0.323965013080836
0.316643272384628
0.319726172227282
0.31839562104318
0.326036334609524
0.331227576588661
0.322171193390172
0.322275137969736
0.320883557106979
0.316953057732662
0.322336549300491
0.321377257346366
0.318994243426757
0.306395721377527
0.318224286950031
0.299161996463332
0.329239371303333
0.303106606010318
0.320649380147282
0.298113597589618
0.299100738517223
0.292695969324879
0.294897785926864
0.29221991614322
0.288524851557594
0.289346980966433
0.288019951200685
0.285253154833359
0.284224647870254
0.283816616380991
0.284679892344336
0.282388836551303
0.281945872543091
0.281451328433751
0.281427100498372
0.278381520765849
0.279694874069759
0.277418892072239
0.283071610906578
0.271530942204261
0.283872570544871
0.283593225179335
0.284270719071515
0.280414082246218
0.280846312608313
0.284319402292995
0.274005856014449
0.279250176925067
0.271494926089744
0.276808798533592
0.274500746539489
0.277651558849369
0.271509097802413
0.276957079263319
0.27464853051788
0.277767118658255
0.272251664423991
0.275377558846131
0.270984471100357
0.276526343716
0.270307150030274
0.27425996270751
0.272927125662639
0.273671081680402
0.273605373398877
0.275232284567663
0.28118682895663
0.270096705274757
0.278098942169514
0.273312330079215
0.277979562641982
0.278497983156217
0.277637145496143
0.273822690810964
0.272342233253868
0.275177197436778
0.272894871268197
0.276260085857228
0.270358513911856
0.267961642502699
0.270889682473982
0.270529284296005
0.267685067352311
0.265866878053946
0.260901551039839
0.260738823822189
0.258315912759123
0.261262548987932
0.252507577052631
0.255765711541064
0.251850562899628
0.247814540829387
0.246667700039849
0.243657826336988
0.245019045997437
0.243107481922614
0.241192103749087
0.241976153913591
0.24010060971822
0.236933844950777
0.237459104013468
0.234556870116858
0.232822498701298
0.234691994375226
0.233962296312621
0.233787618829314
0.235396106899811
0.236507193285752
0.235706858897828
0.235597337101397
0.235868360283793
0.235100159867725
0.238785637967481
0.236116401769443
0.24035380388065
0.236601418785397
0.237814169588065
0.238992534256038
0.240709842965251
0.242252843605426
0.241721823122365
0.244249134958048
0.245522629920204
0.246435856021645
0.244777702349433
0.244915165040549
0.24864353646082
0.24955325133561
0.246484949027224
0.248631607615775
0.247223314934752
0.247679816889073
0.24723747860284
0.250033611401335
0.246565158377233
0.246491980598793
0.246428262485705
0.243388449662971
0.244715842199727
0.246304610218873
0.244477224708838
0.242764434034871
0.242498984658506
0.241862670447146
0.240988718690483
0.242356481115469
0.239642522324379
0.237914071748423
0.23779594297184
0.236782262893748
0.238358427767731
0.235660180525889
0.236349128409675
0.232214679560289
0.235650849327268
0.233992272121282
0.230947612440182
0.231725696820726
0.229892548103478
0.229963924377428
0.22925927418446
0.22707042493991
0.22642411107118
0.228245574858022
0.228783278302966
0.226637661109824
0.225685022699332
0.22398615273047
0.221783340771912
0.221240056666469
0.222081105968948
0.220820628872283
0.217619996491358
0.213767278597375
0.216189775921945
0.212553264303186
0.211509867191956
0.210935550852841
0.210494525183825
0.210232002250395
0.208283698812972
0.204844577133169
0.203553132572346
0.201144449653747
0.201510676565341
0.200448920303455
0.198590378776716
0.199339608912553
0.198314930230647
0.198310621224766
0.197876092317017
0.195906459900771
0.196175606556215
0.193831921692607
0.194425866385379
0.192840181439639
0.190025217255933
0.188593717982096
0.186244103795749
0.185324318352361
0.183908715944866
0.180216515633947
0.178297362584033
0.177571341923236
0.173644827643253
0.17452486163394
0.171750492038867
0.171296083345639
0.17234206110023
0.174794554246493
0.174679427118995
0.179296633351221
0.183953671467936
0.184851291210222
0.188781437291615
0.192827432090824
0.202408790009
0.207018056501132
0.215092484435212
0.224627932523375
0.233594624742303
0.238978979439962
0.250637893536806
0.256123885351414
0.266291479073248
0.271202255667464
0.279677068822542
0.289228229502579
0.297650390789255
0.304387242885463
0.313510077458769
0.320506207881097
0.32437102778009
0.329557526140322
0.33975487101997
0.344405452332455
0.351106006309016
0.354487467019642
0.363891164001489
0.363536204794899
0.37218040370841
0.374162694469453
0.380205457078098
0.379692299905368
0.384558520232474
0.384328247860905
0.387662325454626
0.387485043357273
0.389966040237711
0.390058806278773
0.391107926995997
0.389738108254128
0.390310834955309
0.386210427730911
0.389345941031212
0.392967553919463
0.395234978371752
0.397470134458878
0.400546714604663
0.402756213067266
0.402552105779284
0.405587808026985
0.407319191328462
0.409607600959506
0.412961320890208
0.418060228104446
0.421653879871756
0.423179495585718
0.430408320376183
0.433163521815905
0.438993166025788
0.445384954847218
0.450317329347078
0.457308456372355
0.463441168065883
0.472623432462892
0.476958986302513
0.482266035396244
0.486882001519498
0.495596123301262
0.496077238467818
0.498534073175482
0.50387093634458
0.503420042584673
0.504930450066008
0.502076031248228
0.505098125592857
0.502254770956367
0.496271082878638
0.496591612102422
0.499251041255713
0.49322609721012
0.494942891505621
0.494385573706851
0.495452334495944
0.498659275251658
0.500175629266418
0.50823062156147
0.513670606937827
0.520714381538719
0.526223096369391
0.535430802261376
0.545660803216267
0.554662143264131
0.556174188557892
0.565486689431312
0.577154360582171
0.581077899477582
0.589984627890076
0.601235715378889
0.607824418525579
0.614910122320459
0.624034515757177
0.630003075210625
0.639950493380564
0.655648616456033
0.665243207113405
0.675568977360119
0.686701881572935
0.701302672141287
0.709997988672854
0.726717492113638
0.737912545648738
0.742673275012676
0.759772993783228
0.769050297870663
0.773579197552081
0.78435348357231
0.794803692508993
0.805548016758108
0.822501184596725
0.822219343731163
0.823870320826614
0.83677486977628
0.847304436690921
0.831813555215978
0.849477034726007
0.835446072238613
0.843820812474958
0.838907492857782
0.843957638823607
0.84043436844846
0.831720921195103
0.837636761179528
0.839525469014073
0.837998591816608
0.841170407942806
0.839959188017931
0.84772451517946
0.841787898869017
0.858253455233001
0.865876315154646
0.869662476358945
0.885701352714555
0.899479541678138
0.894992695377708
0.912178277295869
0.918730218339481
0.918614884272498
0.9359487881237
0.944662824871342
0.955253613324006
0.972150940119076
0.962963434054024
0.984064500639994
0.985783499740881
0.982495785837014
0.998820731938785
1.01288208003626
1.0112943504657
1.02391131031696
1.03997646521181
1.03039241002689
1.03633094398531
1.04822714449533
1.07054287947825
1.06370044008465
1.08795848388571
1.05147347526919
1.07870442004419
1.07692593046628
1.08112595920293
1.09684328433852
1.11729025467069
1.12468470540147
1.10541528293996
1.13037047818001
1.12595832688007
1.13035252618887
1.12140643070656
1.1272924461231
1.11527843183092
1.09700059300802
1.11358250711618
1.0578938394114
1.05374853091965
1.03526206877219
1.00857005936711
0.965476065964421
0.924621739443235
0.903942220979525
0.883465305969532
0.849388632173893
0.817032189845485
0.79499402086049
0.774439268037007
0.772295972197906
0.754195993841188
0.748940457186846
0.738952042439873
0.729644719574946
0.724018362469821
0.722947539935425
0.714430611415747
0.71112934351321
0.708394553622113
0.683999702026807
0.684603128221501
0.669977545445676
0.668420082412902
0.649272878947185
0.634938207401267
0.622441134575749
0.609777531373766
0.594905142656599
0.57148161205092
0.556560303639182
0.534275896187881
0.521380732115778
0.497956701671446
0.478735727199605
0.456670060075149
0.43534742222954
0.414241545008859
0.395263309632104
0.376471513283872
0.354558827524768
0.342608228308658
0.327168916112022
0.310999304875881
0.299274875553387
0.290617987505058
0.274069640741088
0.26778097919676
0.257294781254442
0.25143638618886
0.244979151970208
0.2356742479552
0.234024689770302
0.231750174224917
0.228681774342985
0.228130078008498
0.22776318535862
0.220278682975846
0.219176267085667
0.217459741087139
0.217405314393683
0.219442816045709
0.218689393228555
0.22241660799522
0.218423611335768
0.21864010966195
0.221758574631791
0.226887196235419
0.227472644076499
0.225602176265816
0.218582470356447
0.216889585071987
0.221885091316344
0.218784414002021
0.213391380374762
0.218584804396446
0.215377196750508
0.210192413750583
0.209558167032846
0.213221771974016
0.209383894340022
0.211213433062672
0.21030430691799
0.208077437852518
0.207850551349061
0.210123327889684
0.208750213180684
0.212071673598487
0.210533228451424
0.212803402488586
0.212808581376308
0.216414463652216
0.215718135572463
0.21854740443784
0.221314230972503
0.21950533696804
0.219188270514081
0.225887784559663
0.220313455261804
0.225682310949344
0.225660628638497
0.229093380000932
0.222667309415038
0.232184088379954
0.228714944309145
0.23000932348742
0.23267523730213
0.226784007383218
0.23173739690488
0.228610039224288
0.234491292590782
0.234507446540398
0.237602144333334
0.245713443424045
0.244690500563527
0.251865730573399
0.250610984424155
0.265891133208707
0.262467330819962
0.276048613259063
0.283934189512289
0.290311478160816
0.295035830120252
0.301657417246534
0.304534564511873
0.312928563048639
0.306334782122457
0.310994739443501
0.310214652383525
0.30482356226167
0.300480506011418
0.2976507246711
0.292742485996637
0.28523887733377
0.278269139773386
0.274917877230882
0.273512157821502
0.273652568557099
0.267152632329751
0.27048139995775
0.272623428538291
0.27047394245968
0.270326127867644
0.269347852245535
0.27018278203666
0.273748280094691
0.268033622799354
0.270319120733408
0.259662649810911
0.259419563620904
0.26322593766908
0.255835572421992
0.258447617445903
0.254560933533088
0.248938049128569
0.252711742222208
0.246172630870639
0.242620946391033
0.246047733733624
0.239981214536461
0.23914517044484
0.24353288701606
0.240462235714444
0.235257066643855
0.228895425003138
0.234696907270427
0.226631686349234
0.237528269958811
0.232240694071617
0.229424313899674
0.224334126505597
0.21655813453365
0.221237975341299
0.227908669250499
0.211804404837262
0.216647351006255
0.219681058633172
0.20637693545257
0.212890328769427
0.222686898645552
0.20486613199835
0.213167889099996
0.208675874750627
0.214299898645124
0.208595711347348
0.199531979294114
0.201772211580669
0.212182474149886
0.195472666622782
0.204464516770194
0.205435929227905
0.196078746355155
0.194845314343601
0.204421090656692
0.200234809225002
0.202274157943203
0.19669543378591
0.189306928110068
0.201240099174745
0.20317960955151
0.197366029912845
0.194167024332682
0.201669342969048
0.203437844105143
0.199553334779645
0.212064672568475
0.205728267647792
0.195902627177318
0.201305720017835
0.211514795326292
0.211366874284429
0.21252697438663
0.194925096581224
0.211544861939271
0.220057162258922
0.210776479757994
0.216141271590696
0.221345028418124
0.225690256195589
0.22963478961511
0.223422536985446
0.228101261094079
0.236881032488742
0.248804411045688
0.238788604941874
0.246969837458371
0.248167017759981
0.255326677400376
0.265415535631901
0.275853604370993
0.27498425064869
0.288279731012972
0.283770979508345
0.303107492645038
0.307836220880059
0.330308874926682
0.337896480330356
0.333102879660123
0.337395631456822
0.359192197182639
0.352003777179326
0.353975604898346
0.367121250542682
0.370060077270073
0.370707933811775
0.376417477256979
0.354039956620991
0.354100490087173
0.352594914490426
0.363776779077837
0.348687655335694
0.353196372055788
0.362314817055095
0.348793956044934
0.32081798459811
0.348241205068
0.338587522157443
0.343569954819554
0.364971793883529
0.352632406656107
0.351660066852066
0.363382092453473
0.354420963728451
0.343602581641589
0.325986857775633
0.338783419497674
0.325075191141225
0.34151670158968
0.322303525959715
0.327254130444458
0.322740818352244
0.334542342239596
0.314847946029423
0.31998181422391
0.316032279691925
0.293594669621113
0.29300150031662
0.306785652439314
0.309162600748534
0.295803646627671
0.293877434030897
0.317173700589956
0.319691457991643
0.325411572269542
0.313614968076574
0.294117466251515
0.316809069170159
0.336764187110311
0.317731319795503
0.3116950768462
0.324849953858204
0.302945190654925
0.311406972079312
0.318731896654142
0.312969501221684
0.324412583638454
0.306524324850255
0.3250518855864
0.323698216379327
0.328515382083279
0.322920763626178
0.3391975531685
0.313768660397872
0.331119751429155
0.363931538331591
0.357879747391217
0.330208284872509
0.34857564418966
0.345997936429806
0.34539479167897
0.333355783009608
0.358020853716824
0.340616248240291
0.40306965405538
0.361214302120928
0.383359001480502
0.377016653435692
0.420564068560793
0.419069812507617
0.436278794059174
0.460720261700984
0.430870955851271
0.383555275911564
0.40120675671627
0.414170475273955
0.460460492918188
0.440562003720275
0.478212437326385
0.441142862833291
0.500271675041687
0.441042817483418
0.424567273933544
0.423830148564174
0.479407412616304
0.4522975386414
0.431585690396745
0.437093750118622
0.500457717644033
0.468880921725697
0.429881865331107
0.37104289398741
0.42851087362761
0.4319852488856
0.416190060301483
0.362851912634266
0.418767500109876
0.439585076163056
0.39559023278309
0.426404409926246
0.501264162775921
0.394762683134513
0.373099266882296
0.386477518619503
0.590420470077536
0.45525065147114
0.417737814940924
0.480617181207983
0.568683552993788
0.425043569762372
0.365616275956076
0.418418627175859
0.50196038496671
0.403743487110177
0.456767046955034
0.411074826290483
0.449198557386019
0.444111312824524
0.439543144042844
0.344140362691829
0.343528413459635
0.43219547763853
0.449278835786612
0.347082323852637
0.451898243477593
0.414965222413962
0.429785978510606
0.482217768364834
0.616476147675706
0.684372415074499
0.526708156804598
0.366723721608932
0.308939417268583
0.413841377568923
0.750627177057647
0.64273574346911
0.751675015081818
0.35733737524741
