3596
4000.36533379555
650.420452594757
1
2
2
0.0252175518620397
0.0172318169694407
0.0329537341040909
0.0148402658475899
0.025773680252374
0.01971281570151
0.0242074897347604
0.010169310543355
0.0345451603549626
0.0164684643118316
0.0266465934553386
0.0238820724637661
0.0252917056041666
0.0177706212753436
0.0308598433756451
0.0134341618159376
0.0218380640570144
0.0116493490541006
0.0272053933382216
0.0233864243142231
0.0319757669140434
0.00509650251500317
0.0306624618640767
0.02020236535662
0.0266598220727722
0.0160256820919198
0.0312216174497306
0.0129576016270283
0.037190368070575
0.0208764814269797
0.0310936864560767
0.0190770483265441
0.0316331917246311
0.0164150384784117
0.026037163684532
0.0148365937954281
0.0221219954511445
0.0192297000752173
0.0358394800778627
0.0152286192650869
0.0281918569347921
0.0221390746029071
0.0263477141437108
0.018455287059532
0.0339909220230035
0.0176673956771944
0.0264660387237062
0.0241205304167403
0.0324431371432251
0.0230500321822519
0.0248499670501584
0.019760162363075
0.0266671333003249
0.0153717084528483
0.0373094374878514
0.018197230085104
0.0235645886095159
0.0136224187321148
0.0310503587379974
0.0188120399185712
0.0407895531245418
0.0161573531568158
0.0266913749080088
0.0211725725468868
0.0258059974558639
0.0224793845860523
0.0294794893827916
0.0148219251420128
0.0281024260743857
0.0156428339326583
0.0314621603814316
0.0263940202552321
0.0328880218051341
0.0117186106910215
0.0300230235246502
0.016361630705512
0.0237504946712405
0.0151155719723411
0.0324983810920634
0.0219019240774569
0.0322932308460214
0.0195985193717093
0.026212432112334
0.0145581574413629
0.0450546269593282
0.0241072971832919
0.027150820018549
0.0222521889464507
0.0325525385229202
0.0166945657491425
0.0264215992321891
0.0167945164329999
0.0266532634246705
0.0120215031007425
0.0268957133863847
0.0188753992900287
0.0206687048626534
0.0163091988762646
0.0341190755464623
0.0162031377803632
0.0242908298774496
0.0309688186676467
0.0352199403645608
0.0285174241807111
0.0315506303211093
0.02032784197739
0.041352094277114
0.021456644157862
0.026595803223824
0.013900546814732
0.0259524231174652
0.0143144450251383
0.0262422040977601
0.0173883958457327
0.0347759590424098
0.0284340117819936
0.0372429462068662
0.0195818615903573
0.0302153050000126
0.0194025629228882
0.0405691620035398
0.0360564654257113
0.0316476720306423
0.0209471636476914
0.0291563498621549
0.0177472634025995
0.0375893588200226
0.0384762947666795
0.0247657481760596
0.0155676742698164
0.0209309752940328
0.0106461770568038
0.0219504570609213
0.026996988245519
0.0390384471273911
0.0222580886060092
0.0284605569368784
0.0337336224059341
0.0451474573141982
0.0110835560212373
0.0241738850051831
0.014980136573047
0.022776237855055
0.0320621838113582
0.0333566462687683
0.00987167115578389
0.0288699631617197
0.0239502774845697
0.0232935863254465
0.0128580048140768
0.0253732767793641
0.0210385339084196
0.0294584510672577
0.0181953586923022
0.0445765705496286
0.0431239600591611
0.028641318947435
0.0273853116254613
0.0237218650929866
0.018137642405089
0.017070752883225
0.016905672830922
0.0221348024958241
0.0221595040934496
0.0212562703374107
0.0226800070597456
0.0364196791091822
0.0270941603845497
0.0246040711617936
0.0323852256024948
0.037247906857143
0.0173164162613721
0.0343823715337731
-0.00161803031304418
0.0185927052185235
0.0220152816571143
0.0307620155537926
0.0187367128049776
0.0197100943010854
0.0289400677287102
0.0234347436596405
0.0188327352125888
0.0221094283039075
0.0247000311275362
0.03354722376627
0.0229133906129322
0.0236190393842744
0.0147851855477319
0.0157563705961912
0.0252519608789569
0.0397056463917432
0.0409911301041473
0.0306373515712656
0.0142358299048618
0.0115005756448178
0.0361811651739848
0.0397631850490819
0.0102897974412119
0.0175696287954371
0.0152669872667871
0.020151209786385
0.0181298783750501
0.0206514716893041
0.0209049998575244
0.0289655671507464
0.0345329225344897
0.035078026841888
0.0233459327735048
0.0149435949072718
0.0171963177248533
0.0179668719251909
0.0297165178196006
0.0322653945098003
0.0207848892097799
0.021209579461182
0.0137487791236553
0.0252637371637306
0.0241723781101622
0.0201995624594999
0.0191106165439491
0.0224418739818935
0.0233778344881159
0.0202314636855121
0.0156339947410144
0.0274574273969674
0.0235197986588963
0.0196659150542598
0.018182473886644
0.0186070972208528
0.0244591464381475
0.0259968326737219
0.0195281726588172
0.0204843085128864
0.0143154652354233
0.0214920843811565
0.0239382151376076
0.0183501405670915
0.0187196870079832
0.0221339157059845
0.0265419646886699
0.0259784665207663
0.0189533233337389
0.0161239259901835
0.0235401452838832
0.0204998842723936
0.0342641177927097
0.0189357233153667
0.0212044253063181
0.0169013673224696
0.0277252083307638
0.0259583718297018
0.0222752920211821
0.0176149768310781
0.014999638103835
0.0230112278476401
0.026059492992668
0.024253156104373
0.0201599086803025
0.0282743101687735
0.0264491214709
0.0203922717659164
0.0257801381731446
0.0245320461082807
0.0196528021694333
0.0584474111724827
0.0287230575418851
0.033350913552768
0.0436812510154051
0.0257584284882659
0.0272359607806475
0.0198736384609358
0.0212381930990639
0.0513061900491403
0.0416687474632407
0.025994122406827
0.0227415502999016
0.0273282574210566
0.0170602117638451
0.0243159332881973
0.0266049962145958
0.0318223161153934
0.034489038647313
0.0348974299484123
0.0476553590284013
0.0188679093520211
0.0341090553414359
0.0302946498757419
0.0152478390417568
0.0138900381743829
0.019869942277253
0.0249805914821508
0.0308374069151913
0.025398791236158
0.023370596925892
0.0261361046309912
0.0222841263191762
0.0420902906690599
0.0300030349419425
0.0226217400857877
0.0173416087530179
0.0312277897355558
0.0268420245737907
0.0292230113924264
0.0186947563491515
0.0303464179524584
0.0218274830954409
0.0233799911102649
0.0497446802694334
0.0272402785457891
0.0223983330855375
0.0333889908707379
0.0217979638252844
0.0278027396298156
0.0155404260433811
0.0209297600926203
0.0133280935987028
0.0195261957215913
0.0202399387267601
0.0352436251497453
0.0301162140260526
0.0237646727968958
0.0220769733371839
0.0235319902824803
0.0239292388219745
0.0215171146741491
0.0283261080463047
0.0253988494318507
0.026597598391054
0.0214884390119006
0.0283938907224547
0.0377238444721682
0.0227694854632244
0.0408418190184681
0.0415560980410209
0.0253213566765252
0.0247315307908863
0.0181295401851307
0.0299836211883935
0.0185489982435973
0.0237445641077328
0.0276883173610907
0.0235416851373024
0.0302603035958958
0.0324213461359811
0.0271404068975177
0.0371136441846711
0.0425767970486636
0.050675045440231
0.034486070906101
0.0384355454322374
0.0258305839544633
0.0361388145095383
0.045176628278568
0.0330314723885654
0.0478341158077592
0.0319215601212252
0.0338986218868491
0.0273550952718746
0.0340453308569
0.0317181158193305
0.0342469397309699
0.0274887266010225
0.0296060320121726
0.0310564219544887
0.029006522367899
0.0376128858250904
0.0315422015838146
0.0366477957685441
0.0352095425764367
0.0336106094689802
0.0343422261040548
0.0291658851791237
0.0464796439020081
0.0620490780802719
0.0461183667713791
0.0617685975592008
0.0461327442075207
0.0684219144180609
0.0364211618301218
0.0501272996731645
0.0417329075335709
0.0496916249354547
0.045574266542079
0.0477309683120852
0.0413000701887602
0.0504339057676342
0.0400317788683148
0.0529923747397737
0.0488887915247005
0.0584351675250979
0.0483848844263591
0.067521340284099
0.0505353377961057
0.0566123061141736
0.0484532345082161
0.0605319130020555
0.0773421453260321
0.077983019946603
0.0708131245487146
0.0701100615925476
0.0604369595129293
0.0538947579715606
0.0658569471243479
0.0637787272047441
0.0675129300576927
0.0577750351699884
0.0726835748684443
0.0820292979887737
0.0668078142649699
0.0805624001334851
0.0609299948224109
0.0807637453954264
0.0780829877448089
0.0687520065852623
0.0859134759241128
0.0778826426657867
0.0780896897810818
0.0932848507817178
0.0931537008059129
0.0786009976805497
0.0935175766338862
0.0825044577227904
0.0783669065078309
0.0871152866471083
0.0911766055927035
0.0883192059393499
0.0922964249190255
0.101976887055113
0.0886989278187951
0.0934347414179846
0.095067301368307
0.0932495022564376
0.102589697613479
0.122824784930667
0.0929902177436436
0.112208595898604
0.108592404899541
0.111120488194852
0.0955796257194252
0.119539396735935
0.117459302093636
0.117364337044033
0.146097807127548
0.118805527761969
0.114261897510672
0.118867736064031
0.124239429873271
0.129095073714784
0.122270907983733
0.137485262053591
0.132646147314083
0.137847295421413
0.13028868277447
0.147075945716867
0.137290289886583
0.147943865939191
0.145888662311923
0.15269721343315
0.145218676962722
0.157289809456779
0.15190020428687
0.153403936071882
0.164126989100188
0.173147971240435
0.17561222638807
0.181806449085072
0.167336946993675
0.169935469991362
0.173482767182225
0.183742855778566
0.182891239391568
0.188076077110787
0.171673829003363
0.194402975019706
0.182576729240647
0.193394609666189
0.184216052249916
0.208308071350946
0.20005756538028
0.208326864966377
0.19927408959913
0.202258186217549
0.195004328284248
0.219275380057512
0.22078997733773
0.230410898613102
0.196284029762138
0.223997943144617
0.220526628673336
0.247479797082748
0.22759580809654
0.251174100401197
0.232782851008013
0.242645137326631
0.228430966924124
0.239905416938785
0.250550122207537
0.264126071785038
0.241163472478669
0.268701484777864
0.25828376892274
0.27136031591903
0.275384427044582
0.276623428753494
0.258030261232742
0.289135877071238
0.270875512957334
0.290429374778192
0.279514989567046
0.293754139054729
0.29979221103035
0.305363074130183
0.300963846660852
0.305028668235406
0.289045299162225
0.309014864678211
0.28972109410095
0.319500956398463
0.298157312005941
0.316737290886333
0.311174290537965
0.328803563730437
0.308106724440134
0.348103370385719
0.325074703147945
0.368361232444781
0.334973703209648
0.346696647913798
0.342692572935326
0.366852601920008
0.350339245442355
0.379412045284171
0.343303602413902
0.378519310798534
0.355706734835019
0.37759745493449
0.355312691570747
0.394538687511899
0.371570614148247
0.416866657479912
0.375653247754142
0.413355332458663
0.39456504936777
0.403125012752933
0.413375840628855
0.424691654942606
0.415203964797348
0.431495343083606
0.411604947003439
0.410634751667063
0.41383923255876
0.414542280218218
0.410210944500501
0.445087494307701
0.42356678593227
0.440308914769263
0.436508592090677
0.461129460517178
0.434049570142285
0.474528320439459
0.454156238707669
0.460680178092128
0.444353818209966
0.485281521452811
0.453732381704226
0.482402802290413
0.441937158077757
0.487522335847512
0.471036108167943
0.472001108209942
0.480931862844419
0.492120462090367
0.470768213731429
0.5238370855859
0.493109726158326
0.526402899552934
0.496815919365916
0.526170322719279
0.500233721030173
0.524663216580058
0.508330942811264
0.559409590067674
0.520441949008161
0.541711360640294
0.501510401274515
0.540197705006382
0.510682005206523
0.538254253251141
0.517098293344099
0.565094223010214
0.5370525022911
0.585019696937292
0.57756461054861
0.559074181266346
0.568494879473387
0.584912719473725
0.546227571805354
0.617921626201644
0.555861905994493
0.575245018305755
0.535729163552133
0.580867529397314
0.551577375547099
0.607897684636046
0.560542931690941
0.629632345407039
0.581621572016125
0.600007855937378
0.595779948506273
0.624788289296166
0.585683357284584
0.62643447260477
0.601678993461236
0.633864090801936
0.604297780673949
0.637040382005423
0.612623117495948
0.639920560352569
0.615488050751638
0.676408187142337
0.605824350975843
0.644106263947217
0.626837871062656
0.675968618505817
0.633266201851119
0.650745998619356
0.616796673971167
0.657758687881331
0.64358544692272
0.666006233447277
0.644041956743831
0.666217264811057
0.653034721744848
0.657715309048187
0.666040202291652
0.697208667113991
0.652593428159605
0.682018797271573
0.64377123294934
0.674099788708465
0.641087311847313
0.670387041619638
0.668213680075985
0.671896218003862
0.691446036490159
0.715678503923854
0.665857626253965
0.682477670803446
0.678489502061557
0.705387763550723
0.660015157945507
0.709061416941108
0.691452896072581
0.706260153474083
0.697225418246697
0.739673646928267
0.704003989417418
0.719266034066012
0.673190559421314
0.722617449463558
0.703891867137687
0.722330086862183
0.713294421057084
0.737121703913171
0.691684401476119
0.733157018215769
0.700944035568577
0.749537159999122
0.707272315726004
0.743716805865745
0.69332448849267
0.764361534368321
0.69692175164051
0.760478080015093
0.678602140540458
0.746502718633647
0.685248574172896
0.737109726935864
0.709848702499755
0.75901283604429
0.695730679506984
0.749221673512955
0.726073893064202
0.770519352399237
0.717637501803022
0.744488462287708
0.720985125235086
0.749914842123665
0.748324507321497
0.745630087585054
0.715526872297282
0.757906035782504
0.711366772953012
0.735818295369373
0.710318542878645
0.771156898082174
0.698447942280307
0.771107307652163
0.716195821556773
0.760007929217902
0.719979480144301
0.773813278085818
0.742204192511215
0.767211224456065
0.728610547260796
0.79013802736677
0.75963532629088
0.756033299923987
0.729095588754798
0.748059344084002
0.737636632988827
0.76171255034891
0.711625082090324
0.768150005400129
0.745637921609878
0.746880565617821
0.722702277659007
0.743994009401032
0.700028735660049
0.774220233286136
0.731238460221386
0.765330980311028
0.712573525597916
0.770250463368022
0.720170025112197
0.752040768275387
0.738730127052261
0.744681813196582
0.723433972055593
0.768027760196077
0.723399714941223
0.812091115443881
0.728929900455473
0.786988728208494
0.703430811431849
0.754564271626861
0.737483057124988
0.753228904726541
0.711159133547526
0.742235418422341
0.717128332142282
0.737055175259746
0.720544726410328
0.735670821513492
0.70248524295017
0.755567453255703
0.717315999111823
0.743839565376207
0.720441778275431
0.753375373489484
0.719809776448297
0.750590670991352
0.695449794269312
0.752108422154083
0.731516412236596
0.745089732717815
0.69914090462154
0.740201365044534
0.712738754202097
0.75675169480324
0.716872653870679
0.748342582168524
0.721770136443554
0.747397034296629
0.713054151755786
0.72309938217251
0.694005385445877
0.729052038383589
0.718433209331885
0.731153085042853
0.708251949029816
0.722471642542385
0.673744726541378
0.706936229457845
0.695827849463412
0.72624996921766
0.692503512693021
0.69904201056696
0.700747348967956
0.697628833268193
0.683587654665435
0.709041583411851
0.67742857556313
0.707263048868056
0.677151194128629
0.671053898852264
0.669115394211761
0.703858569886056
0.691529726515513
0.702788506162404
0.688544202681646
0.67096214032002
0.658650597782416
0.689212256126446
0.649433347667311
0.684593577173936
0.643059433190832
0.682176474523024
0.657123712857436
0.665032105936249
0.648622664752861
0.667343233881091
0.640411267524462
0.665798499616194
0.638424979275992
0.665694907209728
0.626326849896745
0.664588778581983
0.635353551161119
0.67161193308336
0.639441036752861
0.651903050806315
0.629327509944748
0.633251329943279
0.614475108279213
0.648848766237152
0.616915008273429
0.624306842346325
0.616286093329057
0.631254940638603
0.601751605667585
0.620690418560139
0.584497864405828
0.607576252491994
0.610444819802051
0.619685124173734
0.601437310959561
0.62354145201746
0.581020629042673
0.608362084118042
0.591425951082925
0.595873339849284
0.578425846286329
0.597597842773587
0.577556701325337
0.582141430386904
0.592726473307842
0.599835117940136
0.57292590893482
0.600223083375602
0.560649435907916
0.579637529091171
0.583404437136266
0.573493161945545
0.553576126913798
0.571855432563513
0.549603884990633
0.566494755273727
0.540773011085856
0.549449652925237
0.541231508980791
0.569220598871687
0.519443834120997
0.545325248354382
0.528693690399028
0.538622295053761
0.526588151877873
0.538100563422777
0.51891489066831
0.54286202172083
0.510187411973979
0.535782350209875
0.514926300549343
0.520075313743679
0.501049296148011
0.521677595290262
0.473688825324548
0.514846353307161
0.499540739967058
0.511272620920352
0.488399671057396
0.507898113832778
0.492458258652835
0.491216330385502
0.475727732718499
0.494375306033878
0.491093060248457
0.493363217573315
0.465160916071419
0.49046846963124
0.462078852970955
0.476396007626867
0.464207656548856
0.470371899701281
0.461572298512979
0.467869530328243
0.453176160675569
0.475221760765191
0.447072238270017
0.46649703759954
0.443369716268429
0.454178656120535
0.434258082529957
0.450253762334509
0.42936919363444
0.451894553331763
0.434465456053216
0.438006992500075
0.423376177029658
0.433962955161717
0.419586882759257
0.430131812938346
0.409362317873704
0.430169467720219
0.420785427929459
0.422449816551081
0.403448044365999
0.412137522864125
0.400594124283752
0.413434837306393
0.402687381272454
0.403334385916089
0.389822533634149
0.400438899622974
0.385525765914211
0.399906680934811
0.38434085561098
0.409483448616998
0.375670676967878
0.393209848020722
0.380525588725969
0.388579650156549
0.377142528317878
0.379286881076731
0.365677553443464
0.378888390807455
0.365602901182426
0.369312747711249
0.347420398058047
0.360708093854525
0.352764637110288
0.372681531447796
0.344179509494582
0.360539948941546
0.357751419449079
0.366473154045647
0.333971975168304
0.353601343798617
0.330601977261853
0.347466021905036
0.342527475179363
0.339930554930253
0.331293203288536
0.335976135667086
0.331045731829438
0.33104931144318
0.314739105340426
0.331262685090472
0.320442913633682
0.323669642495329
0.317100414566698
0.324460800956571
0.315187427288553
0.323373412021037
0.305633259613099
0.320797319932151
0.301795937049434
0.316903365251266
0.293671623858897
0.302121578807821
0.303311373745197
0.320220936446508
0.294310244789391
0.313156028960628
0.296724491028442
0.299547465034934
0.288875946717533
0.296496238907135
0.288795146374844
0.302429974533773
0.287092683333853
0.299679914591196
0.271093429052425
0.289611671724074
0.275986131306943
0.284544105158545
0.280763569350505
0.279572035034127
0.273174169846325
0.280792984606522
0.266797237871378
0.283769759123825
0.264149569726895
0.271194972942954
0.271920412913719
0.273399498899393
0.254464770436231
0.265755032277533
0.259365405390298
0.263838853561794
0.256793720030983
0.2659944779301
0.253875925040668
0.257869848686805
0.247675864174141
0.255674114055988
0.245356527125108
0.25530798873959
0.241510502465161
0.250259603731774
0.235228006214305
0.251671188540743
0.240684477253818
0.250246263008103
0.241708905523778
0.251147952678282
0.23538593527599
0.244274227636254
0.23359753629787
0.240446770105762
0.230140312147326
0.231804394098814
0.224103660689734
0.233614449875268
0.219832640070955
0.231297747699452
0.221371879114839
0.228754908774944
0.217076962666223
0.230609382524146
0.215559346305724
0.216115503835448
0.215413598795193
0.222638607056382
0.20920239860815
0.213922301124757
0.208963038992746
0.218477755534998
0.208700913560156
0.20911972633264
0.200433713022856
0.217182520845715
0.202773082887156
0.203768522522425
0.197983571271396
0.207132234240005
0.196114368282016
0.2055975217262
0.201090799497069
0.204179309527708
0.193100365853382
0.197786066446327
0.192120967453353
0.205303297465065
0.189803025815854
0.186774440095326
0.192472701552176
0.196813209026894
0.182631859776916
0.191689064568809
0.177441007725412
0.190040866322059
0.181927434214091
0.190691914580397
0.173054680057413
0.185497850860431
0.178709515048488
0.18623940810453
0.177349907822207
0.180686349515478
0.176403040416386
0.185023029110129
0.179087765201898
0.178303955261508
0.167445331599844
0.179203042635649
0.169244436298506
0.177196008440856
0.174344319634018
0.179964477281287
0.170211836190248
0.175713549603578
0.172148203233791
0.174172947376539
0.165885168789374
0.176304955702947
0.169008824155352
0.183901449104583
0.167684473024962
0.174653689104268
0.169562074539472
0.171257840632729
0.174364878009539
0.176628785158798
0.168773327446591
0.177104207412733
0.173244407350906
0.180861808396961
0.17336247462535
0.181507558450833
0.174840148694685
0.180896101418491
0.179249571000638
0.186411917797476
0.182090538129481
0.183667709476036
0.177423094510548
0.18934130577524
0.184179495923348
0.188648300388931
0.188899864859789
0.199465931866272
0.189301904952764
0.197064807023013
0.192523023151533
0.195433132976519
0.19375791466535
0.196548319991812
0.198524910288605
0.201426213882588
0.197627123995998
0.206092748100147
0.203967520947941
0.208234095345577
0.202795120095815
0.21090152179739
0.208494700376046
0.21632752154283
0.210081151255241
0.216263206321652
0.211288685033868
0.218992791317599
0.220217702205371
0.220166475740048
0.223377636511668
0.223258208012939
0.219982553466717
0.231338753971187
0.221900260648186
0.235660109129593
0.23148610154305
0.237977367453518
0.226966393095148
0.238259305151368
0.239386785492246
0.24486239911476
0.237607255582396
0.249450665964834
0.248667480416777
0.258612536431256
0.250864575606392
0.255770659606766
0.258196963679623
0.263954263744854
0.255841077424571
0.261266029006976
0.253924157699079
0.271840879077007
0.267748345475136
0.270003969975253
0.251402254251623
0.271022749086003
0.270104877392514
0.268266068208289
0.262803993769394
0.265849793549805
0.263649037700957
0.264556627635441
0.260226715753634
0.269911643772694
0.258532928846806
0.262968510762427
0.253695162858882
0.261400994073841
0.257019418383124
0.261397066518489
0.25311979795201
0.263708441865117
0.256866089120553
0.258332185189026
0.258204910914473
0.259217442675047
0.257932993717392
0.267627801171577
0.259483390418498
0.259543976244471
0.256057031724022
0.258133392346556
0.251843043405981
0.258441530883094
0.250606290661568
0.258401139974368
0.256286616601276
0.262447010774221
0.256945527534951
0.252797902544934
0.255685173089845
0.262405831332726
0.258109899555907
0.25636222281331
0.247958028423764
0.255064298490363
0.253736675114964
0.259980367774424
0.253490655066376
0.252607606701076
0.2462003724556
0.257824247820923
0.249118674596227
0.25716870198638
0.255219169681881
0.256112565913181
0.246910478510293
0.254725894757144
0.243918939180511
0.254127080212955
0.243970914017348
0.249665807532215
0.244515701997237
0.246236670324703
0.238411598908569
0.24160086655234
0.234984513790253
0.234442805493411
0.231614232478979
0.238966487814213
0.227326122974553
0.23580604142275
0.225756347182912
0.230254926522573
0.220393388567978
0.226637377757277
0.217125810868537
0.219871354313048
0.213987108508704
0.218953944573236
0.20742182194127
0.214059333589163
0.208338150123202
0.208660601919472
0.205439613485169
0.201041986339061
0.203399237024761
0.201673203985773
0.192975569224745
0.197324209003439
0.191894625586499
0.193563550334094
0.190202313460178
0.191187413555081
0.185795891866446
0.189966981530241
0.182476710739336
0.182899627247479
0.17530945063267
0.176294971383817
0.178266397889173
0.179491353326164
0.172266060902648
0.173669550774798
0.168848991313375
0.172156145707686
0.16475242497319
0.171050859851064
0.167870485406082
0.166737973087857
0.160233793496284
0.164841182480759
0.160755483742702
0.163444496096532
0.1601303935285
0.162176113342891
0.156560332397672
0.160126932187131
0.160744291376516
0.162367254391847
0.149740735341583
0.152868764897305
0.149759622551715
0.152011793289125
0.14932989133238
0.155625062641141
0.152007695632256
0.150286600421572
0.145725330102842
0.155793149333576
0.145792389133158
0.149221649086213
0.140608311368322
0.147072964184582
0.140409054205921
0.14431789390532
0.141245893236495
0.140055862470076
0.138523806589572
0.145317823640419
0.13740595083997
0.141054804494668
0.13983486424065
0.139605062468795
0.134632238978949
0.138157759556789
0.135520771568284
0.138259008120138
0.134053064572897
0.135063387858741
0.136698274716692
0.135208314236978
0.129796331694791
0.136239385747566
0.13601558847269
0.133688272271199
0.128752746487016
0.128112412745928
0.127085646397844
0.130325102775188
0.13012682726525
0.13603353106073
0.128731486917531
0.128010140221042
0.125800417764076
0.131712637801251
0.126326577767558
0.128519338505928
0.124789750958662
0.12540461269047
0.121279537619089
0.123907087792329
0.120664880730774
0.124733993409477
0.124317012852346
0.118627164312417
0.121759131976982
0.121500888797425
0.122921643145998
0.12644632244447
0.115839708388218
0.120111503565512
0.120430650060551
0.121073770744236
0.119864461432192
0.122167117435502
0.116270460492396
0.120530163903933
0.116367385118927
0.116566815854265
0.116704355214883
0.117518455349239
0.11726697398069
0.114355490215889
0.112447065674579
0.116716914189641
0.110775010085094
0.122716010539247
0.112163430631343
0.11442474742155
0.111802442799761
0.117583222784624
0.112858166155187
0.116539057849791
0.111661616700502
0.117710957807552
0.117101736139533
0.115568143978776
0.112220204289198
0.11092819800154
0.111645411559413
0.116615847369737
0.110842306997167
0.113802561848621
0.111259468216699
0.115965674195929
0.113035797819984
0.113357772602813
0.113602471961283
0.111778834811761
0.111893038907563
0.111808448591247
0.109247299020398
0.11230081457253
0.109036062990814
0.110765430781555
0.107359871415105
0.109293515870916
0.109074624279171
0.109376585569872
0.106398420849135
0.107877435240122
0.108405033134604
0.112856005569147
0.106745457058079
0.110873065494054
0.106669125075553
0.108333851837896
0.104909280180594
0.107946486640715
0.105553840788697
0.105420755489993
0.102864507628975
0.105631422568129
0.103762818241374
0.103954513615238
0.0996179372609654
0.105643795995609
0.100312589069214
0.105329687871
0.104011082894616
0.10224619471481
0.101060160716188
0.101670327499508
0.100901512041096
0.10394577826548
0.100252906924675
0.101293939015503
0.0987965464017783
0.0996139167699156
0.0986769579182216
0.10126193743461
0.100731062124221
0.100589697540964
0.098255037604972
0.0955253035661114
0.0995859903438428
0.0992203057613862
0.0949090973838508
0.0976663918255406
0.097341659680091
0.0979530180151551
0.096198221454971
0.0948383928825859
0.0946451729090184
0.0959012443918536
0.0978823395453294
0.0983831708667025
0.0921642701605309
0.0938166292308211
0.0932697877657692
0.0919798125507937
0.0882335444458656
0.0951179663850044
0.0922014404950918
0.0881701120603555
0.0895356567054591
0.0958627469014407
0.0929085411303966
0.0901452528707753
0.0902307899517866
0.0903472975424744
0.0877739011618686
0.0873802670250606
0.0880310208292392
0.0877593255184112
0.0870604687228392
0.0864749907955863
0.0845019558392732
0.0847834353665794
0.0871750277859929
0.0894876118326642
0.0842212640278593
0.0848649429154516
0.0853278554267732
0.0850327549164938
0.0836075975950388
0.083544727839665
0.0839397707306312
0.0827729173302659
0.0787413611504276
0.0814802211132837
0.0836062775758189
0.0833136704937546
0.083524055940891
0.0827496752231025
0.0770748166225394
0.0795714460566885
0.0815441860056824
0.0824076088833269
0.0787606164011637
0.0761305179710513
0.0755970930200596
0.0768974515359619
0.076257316935158
0.0767867170944764
0.077499392540593
0.0793745219716128
0.0764235290621498
0.0757744531492112
0.0775851292844013
0.0714363974841849
0.0723031391598498
0.076367690882815
0.0739224069671891
0.0761267914344129
0.0711814366832958
0.0735376828566474
0.0732534283447519
0.0713075558361103
0.0693347612948026
0.0729845457406653
0.0726736629204661
0.0734582653008892
0.0717487272959067
0.0690740392845379
0.0703335142759324
0.0729378686760295
0.0684720212263781
0.067977588004051
0.0669124898215831
0.0693329283671507
0.0668182420421121
0.0672088305663258
0.0701013572057646
0.0663883037296888
0.0666197135570673
0.0679411995602684
0.0682073513088997
0.0676066677232697
0.0659724032005877
0.0682534322930077
0.0679675754237285
0.0638492580825417
0.0662113501005445
0.0646567171707398
0.0654120113431098
0.0644530537623764
0.0636656376183527
0.0628566574239199
0.0636301982751075
0.064546112154718
0.0627479917522442
0.0649272124920027
0.0631221798001798
0.0648888583896833
0.0614982306925284
0.06257608040032
0.0647122031043668
0.0645754691003958
0.0627126912153549
0.0618906062711796
0.0638855362622838
0.0629159976174785
0.0604291126626178
0.0612330971086444
0.0615891768343532
0.0593111927484804
0.0605134265341637
0.0586459666886218
0.0625167421501872
0.0585550111927212
0.0610922025618782
0.0610713351972498
0.0605978254971404
0.0601872942006464
0.0590364833548855
0.0595209439408831
0.0579590915826636
0.0583839266397947
0.0587997263658581
0.056537705363733
0.0600909203279084
0.059024759499641
0.056707076585416
0.0575038533573895
0.0605265369959215
0.0595839320419402
0.0591700372526984
0.059650359325826
0.0573662772918225
0.059659466368275
0.0572655589186511
0.0573003100096837
0.0611319163838222
0.0597703629373034
0.0566007389570276
0.0563933258411244
0.0555311633605947
0.0573460854456046
0.0561436401311494
0.0561513545780606
0.0583299385418512
0.0572357333224319
0.056909378477264
0.055193936126207
0.0576321170491152
0.0544362395731407
0.0558459553748254
0.0568947846026275
0.0544516722718113
0.051790584848977
0.0548608258640871
0.0557571147494457
0.05804573136658
0.0537288030852757
0.053032909769517
0.0532478804591161
0.0565575200906284
0.0529792704854739
0.0522804131597681
0.0532638409446446
0.056695414385423
0.050886611556205
0.0522910942482444
0.0520035286512128
0.051631113947625
0.0544758608186116
0.0531808052310726
0.0532750735836962
0.053624647084305
0.0519164518144719
0.0521566902676766
0.0465548682812178
0.0505943210016958
0.0535621003799482
0.0529938808074657
0.0484923339245177
0.0510130012968068
0.0525803683849286
0.0506623656276989
0.0502963406344903
0.0503817082634855
0.0487457360529927
0.0516325238528178
0.0503581946570397
0.0532463663478258
0.0488654667187459
0.0482800727751335
0.0465857310603895
0.0513455124879364
0.0518957377158832
0.0525002061556718
0.0497612467755289
0.0496643081994194
0.0492502377356795
0.0486703578195984
0.0478536548292102
0.0512454902057966
0.0462786861293141
0.0480642346800507
0.0463006447501838
0.0464021537351958
0.0488770157160091
0.0508355603334757
0.048096666536826
0.051511758318516
0.0464270428335428
0.0461049593346477
0.0462631138269561
0.0467640627237607
0.0475270223122111
0.0473614569219677
0.0463456554322675
0.0458437784054862
0.0473843247042103
0.0471218186932724
0.0424904012684188
0.0445219049597806
0.0432728715738997
0.0444776263888456
0.0430025297537037
0.0465448423781312
0.0458137071476217
0.0453034787996453
0.0425946742872908
0.0452746179482973
0.0410255879533148
0.0455290804599245
0.0438090364303767
0.0434113078666182
0.0393615611104828
0.0417928078119412
0.0375811344167155
0.0419607259692904
0.0420199855552093
0.0416005423374033
0.0398057503154692
0.0428116266682463
0.04328978091015
0.0412285860698035
0.0392107715856227
0.0418270758939583
0.0388563821963272
0.0409826673680199
0.039723733112944
0.0396775349216627
0.0417689992430417
0.0427324638840175
0.0362823699747613
0.0374847847371218
0.036712962947417
0.0384926512196939
0.0406344930446656
0.03953952660093
0.0363174205213872
0.0401373564393903
0.0379628170889273
0.0380470270949037
0.0363228118271057
0.0368823274350931
0.0390136392010682
0.0381437397924766
0.0370338630243726
0.0386301388035085
0.0358538304340144
0.0359055782430644
0.0362042891121343
0.0375233757541058
0.0356904409575991
0.0379098447663332
0.0348174904770291
0.0361949450033546
0.032359772641838
0.036195807546039
0.0374645901454041
0.0370547480947677
0.0322795284709539
0.0365761673877579
0.0352786942642014
0.0362824362588227
0.0331021822661584
0.0358090305703999
0.0321432090646746
0.0323944688412443
0.0348342664765381
0.0339398009257635
0.0342615184876661
0.0344420060412432
0.0324199638969968
0.0351023667657864
0.0320276905608813
0.036351687095326
0.0291472483809299
0.0349131141730509
0.0331005581969863
0.0378080530593879
0.0320688829768324
0.0307756653429803
0.0300807027034045
0.0350340738766683
0.0291141244176313
0.0335183720810184
0.031377178041979
0.0322470457603067
0.0312661349936072
0.0346900406567529
0.0305391692900629
0.0308380517132502
0.0308765377354011
0.0363087114114652
0.0297384796066547
0.0331548944322179
0.0323686501040761
0.0337987687577303
0.032389956691122
0.0354471999424119
0.0288240409326847
0.0379234986854994
0.0348498882288657
0.0347371624920398
0.0283053599613147
0.0357481665583568
0.0289971118239406
0.0304836135985851
0.0238772187916345
0.0274498954584338
0.0278186293289563
0.0401871419944424
0.0234259115906361
0.029344249375796
0.0293922483959816
0.0272508389588305
0.0227416625064054
0.0336656304553185
0.0225075459711349
0.0366917981853569
0.0258361238260331
0.0247452856522852
0.0236664595101913
0.0290749675696597
0.0272019632510845
0.0296254245992556
0.0198011774361348
0.0302542108486129
0.0235351037159613
0.0303589580793198
0.022205776179281
0.0312175358578744
0.0177129802634265
0.025295915003663
0.0222851764737824
0.024755022440425
0.0236396790552476
0.0219996213543474
0.0188191873295834
0.0262554373647115
0.0253005752335341
0.0327137777239821
0.0302246746818852
0.0256755461165205
0.0324726325898009
0.0195905701273343
0.0264763259195922
0.0183742234600844
0.0371528325467296
0.0203478059455702
0.0478510516234641
0.0100167785530202
0.0386474690484801
0.00876891090539105
0.054842932187049
0.00172142105773678
0.0480728964398595
-0.00799358968185381
0.0681390120350831
-0.00176395429934625
0.0585867506629159
-0.00356115237687822
0.063774504598395
-0.00155268516785225
0.0478238235517521
0.0139431198554675
0.0423043413491447
0.0191269411612759
0.0284535294546027
0.0284828000473824
0.0243566513796338
0.0357110846592216
0.0211251536750909
0.0350680040051441
0.0226661694648395
0.0296785933253667
0.0261086114831467
0.0247504942049987
0.0303912515205547
0.0211406372403575
0.0299178894591366
0.0242972900920935
0.0270884246325351
0.023371551998912
0.0260664724637303
0.0281854474123836
0.0265406301788136
0.0282442280881206
0.0252569158260854
0.0286726046938695
0.0266058555976478
0.0257203722098711
0.0275556295909152
0.0268169237973141
0.0277907854737897
0.0257396869875717
0.0278730640309668
0.0270270439883119
0.0256968806680447
0.0273589983938558
0.0287700545688966
0.0273058611719981
0.0280949944702944
0.0263318012930851
0.0267567372636831
0.0246775137410332
0.0247275715195425
0.0249451871605614
0.02521374545904
0.0257395085994137
0.0265714989946454
0.0259547467051466
0.0281628438982692
0.0259605004544452
0.0267881483832917
0.0258269249691563
0.025849618529201
0.0260822616554812
0.0266903418829967
0.0266148556258386
0.0253824460345139
0.0269395010673198
0.0247668657514765
0.0252519825073211
0.0266913500172717
0.0250391412852812
0.0276525284789048
0.0260586564658655
0.0266385649515437
0.0263598958377733
0.0267426812807415
0.0264628707685058
0.024517452114438
0.0289691078644042
0.0245093357693828
0.0251427404043914
0.0239252000060143
0.0275886240128266
0.0240191178393694
0.0258410013784144
0.0270407205424745
0.0267385568896231
0.0248234542064127
0.0260564681197194
0.02523677511933
0.0267981430920736
0.0265378184704887
0.0266813624374851
0.0237368655785806
0.027251625412763
0.0254243745188632
0.023647427848897
0.0248695443008603
0.0255241736852223
0.0255170104891203
0.0260443349629513
0.0259529039631434
0.0229337781056222
0.0258522915821074
0.0253624213281555
0.0256288097207837
0.0263492960214357
0.0242739372783676
0.0260091925201307
0.0251159936460725
0.0241290782911984
0.0258275070056871
0.0263982592416868
0.0251399538073634
0.0273258780501066
0.0268322646299903
0.0277510662381191
0.0236341498739812
0.0249570457415354
0.0251462137126263
0.0253962634855126
0.0268326203682507
0.0267388487396861
0.0253632860517391
0.0268791724683394
0.0235614742499182
0.0268673495702002
0.0249632791456252
0.0280120585480716
0.0267174214966274
0.0255412244943314
0.0270306482701328
0.0274091564371495
0.0259592371401008
0.026712209820733
0.02481720574996
0.0246328189530153
0.025702536365918
0.0292853258203527
0.0255670247628496
0.0279013371198311
0.0250536718203682
0.0248843573498368
0.0243166821193598
0.0258887402231506
0.0282118859557638
0.0271602910579089
0.0267806889550803
0.0264286534970205
0.0232865065380872
0.0281340109028789
0.0259563394694652
0.0264601714540736
0.0252229406653517
0.0256928912443134
0.0271726715135346
0.0253926524801801
0.0235075154675196
0.0267175009764988
0.0244330584492813
0.0278527361089402
0.0259997309556972
0.0275246720481992
0.0243674392988089
0.0284060512587419
0.0273952682912892
0.0281592315790012
0.0272832894801778
0.0306281811616507
0.0263286825099384
0.0257349102412332
0.0263436140001946
0.0281704491309146
0.0273561407577509
0.027735756879675
0.0269487640509898
0.0288094032516829
0.027507147397579
0.0304975289282041
0.0271076623321809
0.0262343536284138
0.0265196811943504
0.0272342762971894
0.027260076995812
0.0280993528902849
0.025905316996691
0.0291506465738617
0.027371128143711
0.0298338981831291
0.026689117156562
0.028833932490956
0.0262693382042949
0.0291017188501286
0.0268412667085799
0.0268825938312986
0.0264906279310923
0.0272957575433431
0.0259242087141304
0.0278439504236171
0.0260556038173969
0.0281354949572309
0.0257300789809195
0.0305161869157652
0.0243763841769282
0.0279660359200715
0.0235177997337845
0.0276826627218112
0.0253662330715402
0.0264921176584422
0.026816373654551
0.0272266187045854
0.025540045750192
0.0270571059540151
0.0265029604240197
0.0283846893858206
0.0264310612492998
0.0275019524414236
0.0258051110216013
0.0274113890605382
0.0267010706077748
0.0273099422819009
0.0242769536962592
0.0276813066026991
0.0241259590820075
0.0246818842923527
0.0262559623327726
0.0268203099773529
0.0270877496124304
0.02798916476229
0.0245250261784233
0.0253223634062582
0.0246629725826586
0.0276537752580021
0.0246600464570465
0.0252708166064302
0.0253354829540376
0.0262103120466487
0.0239913723866658
0.0258836839183992
0.0263391727948276
0.0271425831258703
0.0239853988231054
0.0272882430133235
0.0229831406879195
0.0253336166816119
0.0233409417098651
0.0253347025952771
0.0239414196522911
0.0274228793840781
0.0237627586064025
0.0256873620417815
0.0265791323772413
0.0268921577133927
0.0242363902609816
0.0280190710073935
0.0253589116830726
0.0232659900746548
0.0225568756189971
0.0249532535694733
0.0242078478330169
0.0237172061384205
0.0234778019547555
0.0283066732474986
0.0253822997962734
0.0247315746865926
0.0229240465292585
0.0262342336411592
0.0245732878662094
0.0252741413092099
0.0249311146167393
0.0260546250173699
0.0206406388468713
0.0227746657753928
0.0244103848536199
0.0263845140005606
0.023466235451789
0.0273090377963528
0.0220168586872335
0.0273261420569792
0.0242265420461158
0.0245781383925913
0.0272567901168895
0.0270476675716404
0.0242647308817568
0.0252155840655849
0.0227823579436039
0.0245742242022458
0.0221999586860858
0.0252013824395634
0.0244418630345776
0.0260951286616591
0.0256806886441719
0.0241463689283039
0.0206063703024168
0.0241762454663733
0.0245947515570826
0.0256508154374892
0.0242116431358201
0.0261925040352895
0.0227836145401726
0.0239974409111089
0.0267333905478663
0.0231782295005997
0.024980422276206
0.028707458779067
0.0236741157694612
0.0270056493441829
0.0225824722616094
0.0265748670454756
0.0253555282288395
0.0253807303669704
0.0225017161138866
0.0270624001396666
0.0228398418299573
0.0251391344913649
0.0227422527844319
0.0236237773728332
0.0223076523276325
0.0261098238586369
0.0236656898075051
0.0244045001151551
0.0228070337092774
0.0223527125244196
0.0221892184922914
0.0255328523412629
0.0211775592078214
0.0247444105960254
0.0201637647705381
0.026012934242385
0.0207215369304901
0.0293270255037116
0.0215306046242794
0.0225800969114581
0.0216768817913056
0.0245556264285491
0.0200945789997874
0.0224910141619089
0.0205980352402397
0.0218275216187964
0.0220938492484674
0.0241059744616454
0.0210285815277817
0.0219115674863859
0.018246003849946
0.0223714342811396
0.0219624724291885
0.0218999224755995
0.022103382647219
0.0236415841070038
0.0187078290575299
0.0217719556876983
0.0199334488698316
0.0241045938502241
0.0203387029580502
0.0225241336667396
0.0215798007187928
0.0241114961705202
0.025891870643844
0.0206271476944772
0.0228009619744148
0.0234831162107333
0.0229301300608131
0.0190961716072935
0.0230803384762423
0.0201350681612466
0.0201829176257774
0.0217571427939205
0.0201123043926148
0.0209954002387666
0.0221156970847174
0.0201739715252927
0.0208068197471766
0.0200994322261533
0.018529179699614
0.0216596412327581
0.0212576134197587
0.0225971774176936
0.0197510393461269
0.0201971488040529
0.0194551762446785
0.0207214390914924
0.0226220864139755
0.0184969966471
0.0253157907947772
0.0216050450036821
0.0176721093021759
0.0189538973278022
0.0170576265119476
0.0206357408837902
0.0199580618027172
0.0225922386332683
0.0188902293295827
0.0205953012197284
0.0182362295492978
0.0219470941199876
0.0198975739611709
0.0219950485808485
0.0196061016081709
0.0219379734931174
0.0209878447080315
0.0214365860316197
0.0198473821823022
0.0192276341372508
0.0193996434706015
0.0197409067597739
0.0197899605758481
0.0251770506892066
0.020469198789168
0.0219708955365095
0.0192541266605947
0.0340792652236256
0.0154607605251147
0.0256225620132827
0.0185305076134436
0.0201629949529246
0.0191314270877365
0.0212812631078621
0.0172502150714903
0.0208299620663318
0.0177364531009202
0.0233978478581245
0.0160106443645417
0.0227975360144579
0.0191918616016783
0.0206242774253323
0.01687475322996
0.0236035252708247
0.0173809247891765
0.0206510461318598
0.0184973965025544
0.0226511595330046
0.0255663775548774
0.0247855500445869
0.01795624669138
0.0273685698134645
0.0143071568632842
0.0328653150537711
0.0205788062349265
0.018914037020298
0.0203033019725922
0.0207991493467668
0.0213265194685499
0.016635565675708
0.0213383545115849
0.0187246315140099
0.0254557170977368
0.0167415770208302
0.0240757262077763
0.0188711987395335
0.0204803944235374
0.0211335527777493
0.0207085144239977
0.0210924132772253
0.0204455930030925
0.0197659333339714
0.0178397915098389
0.0198192937257058
0.0193438146399984
0.0217683123341959
0.0217361585334812
0.0221767511995474
0.0268317739706664
0.0182275036187244
0.0199769772613013
0.0170585427719576
0.0229223276369001
0.0252572144655315
0.0336331553742099
0.0122821003395387
0.0230195781206396
0.0185711545647035
0.0196872418723527
0.0186488552038167
0.0191235609302767
0.0203552016452598
0.0198899968414477
0.020434751085671
0.0210053402491635
0.0215519206398059
0.0181788213272703
0.0204921879138169
0.0187590710672804
0.0203007005315121
0.0173253385592869
0.0210981817231074
0.0159448990353115
0.0211825428163776
0.019070176634505
0.0311691476592071
0.0333734732813298
0.018006001592249
0.0274233302405485
0.0187753847141714
0.0247055983234176
0.018237857941257
0.0230441373067221
0.0194713668782779
0.0251787222767347
0.0185074805853612
0.0199796290651409
0.016473858481472
0.0224002592674077
0.0159288930213661
0.0235379909300014
0.0144377618346601
0.0230169238356638
0.0174358452563507
0.0241265055498841
0.0150741003583251
0.0239831629188671
0.0177633762671735
0.0242447406711871
0.019470562844648
0.0242262818171667
0.0266825705264664
0.0211814028049266
0.0363215241240192
0.01213187894753
0.0305635934348945
0.0122276464122244
0.0262314956131743
0.0186457482543812
0.0225990564627733
0.0231612192716704
0.0216821508709317
0.0164576552521351
0.0228926425492718
0.0187999474968004
0.0220837129006922
0.0197369109394056
0.0282175306588197
0.0351891844489423
0.0253282102374242
0.017416281424486
0.0278250438267612
0.0153162092857008
0.0395460738994284
0.0173294734592467
0.0226461045605318
0.0203771770927455
0.020130189666694
0.0239225274599874
0.0220940480954141
0.0257844242988653
0.0232879674264578
0.0220125524905015
0.0188903246563627
0.0243956232385355
0.0195504760894846
0.0233057559321754
0.0252080656435542
0.0234869483217028
0.0271570897757455
0.0203785973319586
0.023467414616317
0.0263580772700227
0.0195303433606669
0.0234924714172393
0.0206519801795714
0.0282565677901665
0.0230318081148361
0.0297964871255772
0.0227058864733744
0.027627700351067
0.0293917380734684
0.0222128209879047
0.0271512594380235
0.0294288508551906
0.0201324017667604
0.0353803168260529
0.0104290117241398
0.05060296284996
0.0126053592307594
0.0394711886193873
0.0165010100812332
0.0271551719888235
0.019188728137978
0.0272998820642157
0.0202248528610487
0.0268918164709398
0.0287489046188222
0.0158645695459947
0.0339040486769411
0.0140684790225661
0.0373829859119491
0.0204656760264979
0.0310147400038848
0.0215977619685485
0.0284782191070737
0.01870303924327
0.0385516518746743
0.020834090626525
0.0569552824497259
0.0304340732253582
0.0214057452209609
0.0370694978971294
0.0246774137207491
0.0355824802697042
0.0283282763219233
0.0216936627687779
0.0306150164774177
0.0198515561545319
0.0364461843547003
0.0212786118456724
0.0412013123803927
0.027439378999734
0.0224905342219962
0.0344513950213159
0.0306347931341228
0.0386936963339729
0.0365689764540661
0.0255318469499593
0.0321942201972254
0.0272696498985345
0.0421377856859286
0.0196318663696651
0.0616864294834022
0.0166130009796324
0.063471209319729
0.0242090783218178
0.0484157157887496
0.0257948319234024
0.0438890187750898
0.0302285853639691
0.0461342173279458
0.0294228657156522
0.0453772931595723
0.0227819449856508
0.0534152281784338
0.0299005217515256
0.0386692491501096
0.0368731360400894
0.043256317213911
0.0476722822508848
0.0670466299365595
0.0360428344128016
0.0464916563610067
0.0383699352343823
0.0511410254964845
0.0427941933412112
0.0371655218622278
0.041776494581707
0.0382026689884819
0.0413928703207986
0.0475367340975652
0.0427398041127883
0.0488229821339621
0.0378367013188571
0.0526982463712647
0.0389376136601045
0.0795497779845835
0.0471366012074976
0.0660629562347142
0.0523639742900383
0.0459134597900978
0.0587802908641522
0.0457859841356585
0.0552667478399935
0.0499754790743612
0.0523267110070671
0.0494221101814331
0.0509347512465843
0.0618772509865519
0.0477121365437446
0.0722036359196015
0.0489229250757813
0.0752533590932935
0.0486204817789388
0.0742235564732958
0.0688745935619899
0.0650314123541278
0.0895206300958805
0.0486563140303774
0.0959884475875718
0.0546288755718123
0.111231777165272
0.07723734197495
0.0797107099168507
0.0811959754727668
0.0876099795581868
0.0857160403845956
0.0962762848899868
0.0906601010647478
0.097948020341532
0.0996339732973448
0.11272068478303
0.0983981155815548
0.150158669669188
0.114396750008039
0.124188995196983
0.118820764570871
0.133901962077173
0.124980977402743
0.13188846614497
0.118653545352879
0.151381906116617
0.122846047196074
0.173887576277271
0.138706021425442
0.150662244422637
0.152653103802627
0.153258560337539
0.180149815215122
0.143795378631143
0.203586106373701
0.150250578412222
0.188197083455369
0.162907781473446
0.184586675720845
0.181967431154014
0.19208312086762
0.201530078668721
0.195344576128104
0.199774672185624
0.197093383963802
0.20423023693781
0.201684413006311
0.207214666774655
0.214494255268921
0.213417360207752
0.275716356810571
0.169503865748345
0.2455562466092
0.193872343326462
0.222428379823617
0.205818802099005
0.231470965547828
0.237246090068944
0.208665291061174
0.240126805410078
0.213855998873166
0.215275693486145
0.213920063413327
0.212644727329041
0.222704607395106
0.204272667942793
0.230526769536121
0.202080821551026
0.2522499935811
0.174029725235735
0.256818059825661
0.207934211292953
0.220096256605874
0.207403394085693
0.217886393806066
0.20328795113657
0.228047466604166
0.208633925697379
0.221445064183004
0.210556342310942
0.203730944081319
0.218478225945315
0.200957655964742
0.215025551771546
0.19692395077608
0.194667169215168
0.200127640669332
0.178794957102016
0.210407116948417
0.177845643282161
0.210875162551601
0.193504250413964
0.186262501099179
0.187969043388348
0.183937591215001
0.185456877377101
0.188618378586937
0.189826252352981
0.188173999723784
0.189071616793663
0.182721769675936
0.187987509739985
0.180550780582414
0.188718504256216
0.187532422445908
0.192660206545269
0.18564016573074
0.189461737506988
0.184347858147008
0.185877525695577
0.185399483394056
0.191927155599295
0.19009400595207
0.190226494741734
0.192809010303163
0.191312960296487
0.187973920974017
0.19191222008735
0.188538513587096
0.193221179350444
0.18880463340674
0.193940157270994
0.190143161479886
0.192409052621158
0.185686895560213
0.189059899465625
0.188661375704891
0.18688148259103
0.187010431265553
0.185757700348984
0.184829100364897
0.179518662187284
0.204532855444559
0.170028604885437
0.210602488716006
0.171093168034748
0.187225295922481
0.176383829152435
0.175138729403416
0.189112717039206
0.167648686034583
0.189695926788169
0.169265020436874
0.170128058571571
0.170966139178471
0.167928098425981
0.173698355080384
0.1685363762412
0.156872850486518
0.185970717160255
0.131391083346456
0.239887213308184
0.163002244649633
0.19324094927228
0.157854088451085
0.169541828570329
0.163487190595499
0.16773373725265
0.16627317883297
0.144759707119373
0.177722667209324
0.142029860948875
0.172669626712575
0.151910075636872
0.157518347358161
0.159461236564597
0.156484603508123
0.160733709121614
0.1682353924805
0.160331199492426
0.167497877942808
0.164890883060041
0.153775735859992
0.169156155085125
0.150891921189604
0.149973614546778
0.135478744879781
0.150977402814303
0.154289702231526
0.129425695805955
0.157142745502021
0.127483699223499
0.141693447022436
0.127799119176496
0.142871981645954
0.132045296478
0.140871672346594
0.141424057105825
0.119300479540535
0.151404932778535
0.113234845495538
0.162548737759373
0.120826604151266
0.151059111768895
0.115517230800126
0.135664458572854
0.126241200536473
0.143567064877027
0.133233469953455
0.113251585648829
0.12467283500915
0.123434887350165
0.113084485538439
0.126820828280399
0.107954643644958
0.135918545087159
0.141349686607253
0.136665786143666
0.130128884440267
0.117205699769427
0.117015829021642
0.107665815496579
0.101756328880898
0.11393177797272
0.0939649055772113
0.12714039397669
0.0792055616237715
0.123432917167622
0.113628173154679
0.106158925191511
0.116190596445608
0.107492584011475
0.102915502557879
0.113726949991426
0.111894199345198
0.136047017339802
0.119254494227519
0.128145332049459
0.116239491140714
0.125435442680984
0.125712362156077
0.115617818305484
0.12319043869512
0.117822410667307
0.132079776520491
0.129844756681573
0.133279781563292
0.132834139536326
0.128959621399975
0.142038658340015
0.147951778357957
0.140199808002346
0.164568224456331
0.132917656724875
0.199441082800096
0.141596106462031
0.180269719353748
0.162884843949673
0.165933673666317
0.172095044443066
0.167723013079389
0.183661267588516
0.189504664700235
0.17215507896531
0.190512560967135
0.173727494135904
0.195122575677608
0.177870699860879
0.210545655130473
0.185311903560963
0.241057794236235
0.174839191180893
0.223588927981124
0.20552017618911
0.200197002920032
0.207583284671611
0.19692281298753
0.210187199723186
0.202885307064123
0.203506413580224
0.220517863988132
0.205946703668212
0.220622388389451
0.206576771055514
0.216024222666052
0.211657803921011
0.216983288756566
0.220292943779831
0.215277135884631
0.216529518396175
0.218111434902188
0.217981454690308
0.250152227590096
0.21141628292972
0.248526427314724
0.221535425568473
0.239364835784865
0.233041176188568
0.235203028740801
0.24225923185413
0.245671184632608
0.245283776305866
0.242989113036694
0.241636495101762
0.247723744254274
0.243746854208736
0.266415874221531
0.241372213257758
0.270390021008886
0.231995930681154
0.274812543782713
0.257968653637935
0.275345722651814
0.273591195250581
0.260785987111708
0.275005562515701
0.255622507937316
0.264584390085885
0.26021975989944
0.271410848107934
0.2628253807138
0.268608318466003
0.261428842808963
0.268452598541604
0.263849756992141
0.262628487756112
0.275994148987804
0.264087329898238
0.272116423551261
0.261330500315014
0.265983077083407
0.257642766219224
0.273237947032655
0.266386828324983
0.275362119235746
0.266578514631857
0.260759239137073
0.274729362367136
0.275843790906898
0.262234535260361
0.262193416745548
0.255819472103469
0.264848474011679
0.25687006052317
0.261913962088591
0.270475678999201
0.264056071699732
0.272430160764096
0.261675820397673
0.264307090275757
0.26067767345534
0.268845598774761
0.259322937253943
0.269647831507378
0.259282377690264
0.274231739121318
0.264432138665586
0.269368021008695
0.267114936289283
0.268663504987601
0.276780643156337
0.269220282195788
0.266440945277558
0.262164522864785
0.262394698258173
0.266325376227022
0.258260523018691
0.25967746331883
0.252074613372201
0.259675020384681
0.242121767293516
0.267749344292338
0.241540222210683
0.261482212287971
0.241925720999589
0.24474230450362
0.235638713643903
0.238240119405546
0.234298317153835
0.231136463204885
0.232371493152285
0.230619087805464
0.228896897750966
0.224911505389082
0.224439715900501
0.227817568728662
0.223419550111325
0.224424148953455
0.224332897180501
0.221508694425608
0.220463517889923
0.222928416168697
0.217883196621942
0.227489000972973
0.221228943021397
0.228560445213846
0.223538511292169
0.231461815978318
0.226382080416989
0.227016182836389
0.226012192766767
0.214530519219826
0.22384975303552
0.21879386455424
0.220564213795381
0.216199932765107
0.22131829798396
0.216966633777041
0.219011734577131
0.215561125194299
0.219074714414767
0.213542052059612
0.221551872679056
0.214888450695191
0.216697973736294
0.213793844910337
0.219766722613934
0.21733839174882
0.217042143119979
0.215297658502379
0.217140043334228
0.225310819178336
0.21353676680647
0.216661160062095
0.216005022308993
0.224811890829421
0.220621830612612
0.215709036381423
0.215840587636764
0.21389586267003
0.221978376751147
0.214793457596062
0.212877085986595
0.213751365575576
0.214692928191299
0.213931044247293
0.210519436406165
0.209305998778995
0.210784839969036
0.205347808108732
0.207366827743815
0.19860253139966
0.204833030608524
0.202956889362552
0.197816859159399
0.194304490899734
0.194620541329336
0.195336912752996
0.18884097648937
0.187046174322717
0.186976260643739
0.189278003290661
0.188956483522639
0.188659507689484
0.183139938847405
0.185651932946507
0.184989917122316
0.183681084396364
0.181976359096226
0.182907534830179
0.184876144015924
0.184013967359245
0.182054962026507
0.181815833000195
0.184078152808596
0.186083948757106
0.185355718389421
0.185273826597431
0.184848602073319
0.191226611846632
0.189176705583511
0.185827794273528
0.185554696761236
0.194057827834149
0.194537890065764
0.189293103026979
0.19184331255936
0.192988526533323
0.197670334065561
0.19403410439836
0.193933353720379
0.194817626117705
0.196452900687485
0.196048485562962
0.195236258831356
0.19319167509322
0.195216894160829
0.195586453439762
0.195763296483268
0.193953320646609
0.193529393130113
0.195698194047452
0.193097712480385
0.194620452469025
0.190744169344392
0.192535212970497
0.194408163873242
0.190886442550162
0.190014132162902
0.188329355686941
0.190348460159834
0.191281673657625
0.187974777768568
0.186464687291952
0.186416585342081
0.188149746683092
0.186532794625077
0.185486986558155
0.182348604013469
0.187663592650321
0.185281688992672
0.183252910004533
0.180406777460897
0.179774699495221
0.181950964189201
0.180518604143946
0.178607197887395
0.177511685950821
0.179160299141177
0.180995702815259
0.177220541545094
0.173959227659907
0.176104814104395
0.175337920680338
0.174262174436621
0.173905403473117
0.17009818059222
0.171935283381502
0.168359011105093
0.169927416534125
0.168365194312605
0.16776662898623
0.167275638329915
0.167053363439968
0.164807628059897
0.162339537586089
0.163098850107112
0.158777738645653
0.159740952181635
0.158627785165774
0.159190496300777
0.157105265699176
0.155156832409155
0.156522398090448
0.15545209602826
0.156779001035079
0.155551082546853
0.155534047322829
0.152194554729318
0.154884590894334
0.153480014052089
0.153088844774311
0.15107098145454
0.149085807289082
0.14899266435424
0.148302518699219
0.145569042577147
0.144666972065115
0.141517732116548
0.140642406149448
0.141856650359429
0.140214854830269
0.140380093762786
0.143458573387142
0.143312119014818
0.144218138465548
0.14659431785782
0.152581293427584
0.158672556160106
0.160398669619134
0.166921793396395
0.173477799312465
0.182136804868681
0.187664558281546
0.195770322782813
0.205132160593949
0.212390076108256
0.222809483272063
0.230434558440944
0.23799203925222
0.245714777583674
0.253834652997769
0.261346339437822
0.270220139811745
0.278658504865964
0.286255333376801
0.292447669814863
0.299173786919204
0.303412279271374
0.312488519002644
0.318636842851665
0.322939250443631
0.325211977441351
0.332261411321608
0.333930868764402
0.340918127002298
0.340437259414394
0.347791578945804
0.349040924234013
0.351679631760084
0.35424183761714
0.355450355371866
0.354789391835138
0.359286950087342
0.354193060282664
0.357686378095929
0.355305492931817
0.353988821680272
0.356669601803222
0.359098158987807
0.36018812659443
0.360419570424357
0.361961968442986
0.366697168449435
0.365099775744718
0.36874109880469
0.370178117047968
0.375689885713301
0.378702100267263
0.383072559741074
0.38450881354769
0.388432815993764
0.39454098769896
0.39765218158511
0.401360166924421
0.411468500400396
0.414531983927113
0.417308232251839
0.425621051574766
0.429871008235747
0.438310476244027
0.443781539668687
0.448567246657011
0.459221308888872
0.454755481079709
0.464546983869703
0.460745220848025
0.467386505964065
0.465815730420376
0.464017565212199
0.466904140669124
0.469404657139624
0.460996723284524
0.460788274573637
0.457143534616042
0.459494084294136
0.459944773783561
0.465259920419552
0.460151538499368
0.464218381804414
0.46982181727108
0.479866478410951
0.480264528884627
0.492307784091796
0.499827195579636
0.509123069796733
0.514523934715842
0.523133599452862
0.5354100666114
0.539075866446804
0.549399908679817
0.560061473974567
0.566903774796516
0.575331432776138
0.585967588315277
0.593650559821045
0.604978100157465
0.620678413304707
0.622140929408013
0.632397934399377
0.642561587294872
0.659400429583887
0.668223931543235
0.682250612481404
0.692126267329113
0.70290508301138
0.709703900543521
0.725032833424482
0.735121663788726
0.73631995161575
0.749430279260471
0.751242588197405
0.759770029809795
0.762217191174287
0.771438067536225
0.766220058202127
0.782154634806258
0.774000629309165
0.780856643849394
0.77440858456737
0.771934856568435
0.770439520166959
0.761036649332135
0.750748642992733
0.754945041525831
0.751864065759819
0.745147442425512
0.740555472101048
0.747014550520029
0.739783067516553
0.741498567805358
0.736746307176511
0.746559170700982
0.748197693589672
0.756004478305303
0.753319472740862
0.772678368544116
0.763470692689399
0.772062428728703
0.778728397955209
0.786626371965947
0.796523357139391
0.796793115592907
0.800124960529819
0.805258011840059
0.807782992173963
0.817025989565514
0.817413822563931
0.804960073914308
0.811585371180789
0.810655869956197
0.809060908487784
0.810262818100393
0.807368248090403
0.790599315724793
0.801765146050545
0.806009597627786
0.797639133536711
0.789818224856789
0.79144316454628
0.788674251534492
0.782765343935225
0.775860105996124
0.769329273760506
0.764588277961649
0.757099367260369
0.750809954509302
0.743843374613336
0.738109671948917
0.723973794629134
0.715956495785845
0.701181743664969
0.698443503533406
0.684106579793153
0.66707668550942
0.652216381767442
0.630880358478463
0.613468158049646
0.595888432760552
0.573241660365481
0.554177725811348
0.529884499782115
0.511224406319398
0.490296222499979
0.472747689238833
0.452829284524404
0.436624161808299
0.421953485049192
0.411899960121792
0.401922766546854
0.395754186188604
0.392226122336015
0.387094065950695
0.381022772382513
0.374586346217824
0.374547890403808
0.373415401437581
0.37211733086264
0.363505051862618
0.35962935463071
0.355289285436532
0.352943131042137
0.345592409461187
0.340862489737887
0.330093824308235
0.329656119676671
0.319142545721626
0.306009945452519
0.299505963511093
0.294254375152365
0.287192767983658
0.274213451928119
0.260807220442074
0.252792807440863
0.245054178063546
0.234775564864411
0.221640307844694
0.210719892822579
0.20363175925955
0.194533315319851
0.184513693818599
0.17504993686207
0.16313750930575
0.161069093282507
0.153772555854877
0.145664151059683
0.141079000078805
0.137675036623694
0.132672712786792
0.127187057785952
0.124381363418207
0.121790208145568
0.122644323414404
0.115209462588151
0.110555659712535
0.114752362830254
0.115418595437461
0.110268987557058
0.111209345879159
0.108808799344927
0.110809813190331
0.110973154632444
0.112596703362885
0.112123244191457
0.114709102419424
0.115548873688404
0.11307051883389
0.112967529272219
0.115745888023161
0.118557706031274
0.114737297089641
0.113296502600099
0.112795566535107
0.114077388845462
0.11563630814089
0.109741490326135
0.11151675515513
0.113673984671515
0.113970236663514
0.111124943388164
0.110414195005122
0.109016415785103
0.108528758468672
0.113062438062046
0.10716891753071
0.107790227199403
0.111844863428127
0.113470940611005
0.11465660641282
0.114592758854403
0.1163446364717
0.116321144032867
0.120816317848607
0.116409881296188
0.120600511375256
0.121020974973712
0.121851599721588
0.11960632998491
0.12245894518211
0.126231873772739
0.125211109318141
0.125281189190576
0.121748825620115
0.124150304687427
0.126802530583342
0.130381229830577
0.124649084063563
0.12871352017654
0.128080964143664
0.133019519775249
0.128639045480588
0.128268529059097
0.13185502657465
0.135352724167305
0.138899024453974
0.137403671534801
0.141801943455299
0.139756862250543
0.154405572022417
0.155676608581684
0.159716025214332
0.164629888870751
0.168826418812191
0.172320256099021
0.173821786998093
0.172352416347641
0.178549198842753
0.174559905938882
0.177837817098969
0.172538760362079
0.170437519826106
0.168577378913306
0.169876790479229
0.163007230756411
0.154248433554624
0.150924899177271
0.156275720823028
0.154173282488546
0.149963188508838
0.149810157261804
0.152080146165929
0.14675347957162
0.146375547561904
0.148682885002179
0.149637232028463
0.155258036186799
0.150514538490097
0.141496326383978
0.146797406234844
0.14375218615146
0.145129388378164
0.144583921347331
0.146918628511798
0.144065414107763
0.134691498629507
0.138005813418774
0.1401809330384
0.136842039636179
0.129229646170859
0.134539945340953
0.127103135628955
0.130637516576056
0.130034442914866
0.129303882144456
0.126956808363859
0.122067817729356
0.130720141802693
0.129120872050785
0.130095644908713
0.125923526079776
0.125194723281688
0.121203742438097
0.117836611881161
0.120119703136151
0.126797583200008
0.117407731887414
0.114217973526744
0.11859426515541
0.113161309663716
0.115048663281637
0.116533444044248
0.117015701511336
0.110943533601454
0.105339191449116
0.108363949573566
0.111561572537401
0.108776937901498
0.111297956040002
0.1092416235284
0.102024418675483
0.114373411355882
0.113656674983865
0.103271502453917
0.100400060579725
0.109713880772715
0.107928593689779
0.112448132132212
0.111872172501396
0.104590119074208
0.108135481971591
0.107058032363867
0.100365256246305
0.10870572813998
0.100105839672008
0.111701838824624
0.111841947308844
0.110406741672732
0.10738681767452
0.107009543714154
0.108708912813408
0.107691545510211
0.104873778678209
0.119707657042085
0.115919728009141
0.115794397048715
0.119553947114367
0.113884385196419
0.125396634834125
0.125560907490386
0.118900964579075
0.118148527404386
0.131040096458708
0.136601487725539
0.131706249060232
0.134816295519031
0.124949158356916
0.144315331510739
0.14696804549942
0.149260375392257
0.152846653387599
0.158536717729059
0.16729089386485
0.1637291260977
0.157781524054031
0.178261351596049
0.178592839240815
0.192995856036515
0.196125222734493
0.194024122227505
0.201487032653124
0.22248499562756
0.21073482380143
0.207470186596279
0.213698011488683
0.215245643473693
0.215974272061982
0.218765378934768
0.205872293768707
0.207911600108842
0.203154960615228
0.209476211214136
0.205647275210268
0.208308597997954
0.212432317108475
0.199335896885736
0.187701298760918
0.200947412446396
0.204169975650892
0.196172332458398
0.198849317174227
0.201815531208697
0.186444603251414
0.199234760508195
0.199795087414192
0.185243493271912
0.179311183458693
0.177527907531201
0.173761748753782
0.188262038310494
0.179193964691607
0.176632718341823
0.180679255524718
0.166586855609554
0.155564546966463
0.172513457240129
0.165059446639736
0.161655486984525
0.16274845891709
0.173282751398468
0.188172814929223
0.174740935406341
0.161942488330451
0.174343758757934
0.172120125966691
0.18951934550777
0.182931894502559
0.16362975078016
0.185576478490672
0.196331417669888
0.160693405680625
0.150104987487762
0.163265580398753
0.180576223094105
0.178687413717991
0.169551520666205
0.154287260802695
0.174674603887421
0.179473220742957
0.179779696105388
0.162718793838036
0.182127063910874
0.179549520601967
0.181449408511002
0.168056309779845
0.174167169246843
0.195714875764635
0.206502863983457
0.170072804335523
0.183207924558989
0.207886276302091
0.234227798398132
0.215579938063239
0.209006868883198
0.211111072269648
0.212209564777933
0.228974816818858
0.198370307942426
0.19596868233345
0.261187622035926
0.226081595970603
0.226255457200038
0.218063009457618
0.261356996898374
0.258745226763063
0.258428518749071
0.252042588777632
0.274884246313149
0.270955388523876
0.245083632066964
0.250349857287178
0.247769339494461
0.248802580105824
0.249764170475949
0.261598920216628
0.23575242573046
0.229640536698263
0.250329160949256
0.267248624500757
0.246494304206811
0.197199204448099
0.239182617119243
0.236835890036614
0.276900464763207
0.227126573898359
0.20861550137965
0.250180835004138
0.229279877508286
0.197646949167361
0.242744764342337
0.224889499156576
0.24102339612066
0.243465778614895
0.230830978373912
0.277069417343862
0.247987582750467
0.218653846394723
0.266471291831072
0.238870270381402
0.280995166752589
0.298147708431414
0.237634502372111
0.2544570680053
0.286400442754445
0.220207578385037
0.231887978769348
0.180715554012996
0.255016062279618
0.208793603386086
0.300225623545173
0.291966651030963
0.186221526198788
0.278146652010001
0.153034543373014
0.166490831221732
0.286630283776761
0.31457255860975
0.228885127585795
0.280725056682439
0.346636038515269
0.15502880526817
0.283307688530741
0.135328799727853
0.284351246181143
0.434406677142105
0.331000600642385
0.272655215552092
0.216994557993704
0.0757262611344048
