3596
4000.36533379555
650.420452594757
1
2
2
0.0216657418281273
0.0180476342039131
0.0279256596603847
0.0131290378694253
0.0254554875687881
0.0176623798725995
0.0259638158452714
0.0148770429404496
0.0295026621996308
0.0140597964588678
0.0281839018848178
0.0158022842736098
0.0221045726519363
0.0148580230139478
0.0282151390000892
0.0171662426354188
0.0232158903622413
0.00894584744494009
0.0265974498509339
0.0142456171878973
0.0307322666248127
0.00479680543716441
0.0289092066391977
0.0151830521433132
0.0261449446914688
0.0174281945872345
0.026283862162322
0.009662572485063
0.0342597525213867
0.0120895988499403
0.0199719389878906
0.0064725755355267
0.0248808118712718
0.0122477078890509
0.0229659539403133
0.00756673168611117
0.0250402976709658
0.0109562034370353
0.0312230630707801
0.0111318448629972
0.033557520017869
0.0120647916781949
0.0266770715654829
0.0235086737617754
0.0297101969182157
0.0214990754129291
0.0259648066535102
0.0193621637949783
0.0322115295167955
0.0171653666732839
0.0300194985024657
0.0182895245814409
0.0294711226291023
0.0171253924225317
0.0290135953449087
0.0173001202020871
0.0285167740229396
0.0135487197575771
0.0330433427569407
0.0161818241802481
0.0343122102511768
0.0173504436636854
0.0252919990003405
0.0206685099032602
0.0191635913299308
0.00773601961989856
0.0208196787231734
0.011621198320234
0.0259574014074944
0.0155809116674629
0.0304851987178831
0.0228366761423547
0.0318477349828366
0.0139651218329917
0.0324872999372636
0.0189952628682932
0.0283344296656286
0.0127192169117962
0.0247466497263727
0.0113808823094409
0.0284635390787512
0.0166792156475201
0.0294547037772449
0.0137798723443961
0.0323676673174748
0.0190136257314847
0.0311014054750874
0.019215260264467
0.0362735348828951
0.0182044939962687
0.022514210015497
0.01734100734462
0.0300732590492509
0.011401259654883
0.02441699724256
0.011746967380921
0.0238055931113812
0.0209656572478363
0.0310279832862881
0.0119205594766372
0.0233584876241593
0.0277997195355564
0.0379350295913094
0.0216842350965589
0.0302103477281156
0.0161972699420297
0.040794562869805
0.0174362642416361
0.0244362149625759
0.0101509245294864
0.0236314748506796
0.0137245701492518
0.0276105185442855
0.0121922442594522
0.0279526916292016
0.0221803974127316
0.0344280463012735
0.0149343494446803
0.0284009438824683
0.0148704826587911
0.040398924260315
0.0401474176371311
0.0259238480036626
0.0151895712117772
0.0290143871323286
0.0155814472681259
0.0322444350927303
0.0287808411139395
0.0271351122057079
0.0151942194982119
0.0190472840773983
0.0110019342303049
0.0237033877298225
0.0199795891051494
0.0369984039046226
0.0212452834764566
0.0209302231790193
0.0225895644148594
0.0357809658818856
0.0124970976625356
0.0274318053263753
0.0123212168748551
0.0178101596535113
0.0194703442952232
0.0326358362115358
0.0155981929783989
0.0310176279777627
0.0256145922715405
0.022095062075883
0.00743628517185613
0.0249328149649601
0.028961459069218
0.0331125460189205
0.0147427869280392
0.0381496535231963
0.0326120308516207
0.0358827847101166
0.0309440986037233
0.0317722560977794
0.0153281836421387
0.023676070049633
0.0241221822615409
0.0252156376890971
0.0173552892041976
0.0231014380434204
0.0199011839428613
0.0327203825645997
0.0242834744234516
0.0232761022579872
0.0195058469609844
0.0272134157294242
0.0220071536286252
0.0385988132618174
0.017942686784014
0.021301446541118
0.0205007140756338
0.0331178997873163
0.0125759678813482
0.0154441516997395
0.0248516345229465
0.0232465664469333
0.012680097206136
0.0174433419067447
0.0181003805108701
0.0298129349550502
0.023488942152827
0.0225097651249928
0.0170897321436897
0.0196162257511801
0.0226298398938381
0.0314678077365961
0.0363234027836589
0.0333623546103847
0.0184511260208989
0.0117150377553505
0.0236161416772159
0.0334355885410573
0.0145007400620713
0.0252877101395308
0.0100830579313374
0.0114286013335984
0.0178878002161015
0.0234715929470412
0.0165145000440614
0.0205805127369539
0.0309024070731066
0.0429459120842191
0.0173393424828332
0.00965109512221316
0.0122749295747194
0.0184680303488898
0.0283005817190492
0.0308685121450598
0.0207130783902751
0.0197045627157055
0.00813797383960941
0.0302931396121609
0.0261319907113272
0.0166714580962511
0.015386357609576
0.0156242715382903
0.0227980671370309
0.0250326946739072
0.0140986340272193
0.0188610667298523
0.0152265769707792
0.016976674881607
0.0181076818025488
0.0132920809988157
0.0132608254827993
0.0230684010713729
0.015911255760008
0.0190602314792056
0.016013736075215
0.0196614372096202
0.021912088596644
0.0188822553670472
0.0158994087501825
0.0185238326098058
0.0213390846399752
0.0189599334282998
0.0170265808888936
0.0250049617500537
0.0203536715722718
0.0166568577449126
0.0260955168087888
0.0207990240199539
0.0239854336098403
0.02026390496145
0.0223490253899233
0.0261470579182418
0.0247721792948402
0.013986284355962
0.018576885714616
0.0257954861701966
0.0187657294990486
0.0274218710157683
0.0256453939782563
0.0192476801111971
0.0180441319447317
0.0265371006959073
0.0212804425600126
0.0244345727025868
0.0202272102078584
0.0481329843108728
0.0317093680988867
0.0245434716733567
0.0305432955129857
0.0338814715642602
0.0343381321550315
0.0231672799185299
0.0134729276078327
0.0331611382567862
0.0448950015522082
0.0403222383262346
0.0255614375394159
0.0198016107113784
0.0148722124328199
0.0229527513115099
0.0209614131014246
0.0285747488707414
0.0337686098259742
0.0358186986455943
0.0422180857395771
0.0207999921715454
0.0289497237190709
0.0299395312986507
0.0185124516244551
0.0181114424306437
0.0207211476937981
0.0160686285725258
0.0248866338562005
0.025025478386246
0.016370263073618
0.0249458309968741
0.0158546344151502
0.0349931980778584
0.0317083941329752
0.0247037450758027
0.0171506030714158
0.023113569454217
0.0177193441326903
0.0220190192908706
0.0162599515076552
0.0304414119599055
0.0202081529327675
0.0187512578584543
0.0406284142539029
0.0315765472310026
0.0246907845955509
0.0383283613401185
0.0249676571980854
0.0211695087396308
0.00975309922241055
0.0169229461680091
0.0164979840681138
0.0195447502456833
0.0153526938106725
0.0310491329394572
0.031777328965
0.0245879818114201
0.0218547598693681
0.0221081189172095
0.0187830572171804
0.0184547070956899
0.0209194620252376
0.0236983523714409
0.0269210512749669
0.0208053070867426
0.0239033637102924
0.0285528677611381
0.0217545698727818
0.0374276945437741
0.030367257533526
0.0217339292150724
0.0236735367536848
0.016568907347302
0.0246906763469898
0.0204579446722967
0.0204000765448527
0.0215658142473458
0.0195395332559469
0.0296140151497887
0.0323167199186436
0.0245824549072062
0.0365255685235681
0.0372790146903663
0.046894069353367
0.032036032909865
0.0296052652321491
0.0236001701973173
0.0349206343983007
0.0396477745793937
0.0289785491376085
0.0446359712037712
0.0283664485738347
0.027004238834635
0.0232240442650816
0.0299789989023211
0.0270870320881413
0.0300786093061044
0.0231932383897515
0.0265258644581824
0.0225071172755754
0.0244774324471503
0.0255974835393939
0.0273818607840004
0.0399998568728194
0.0362281904616027
0.0342440458120021
0.0294678436060494
0.0236826432801704
0.0381325653895082
0.0502884903701268
0.0413988448341552
0.0588247132350073
0.0443122404956962
0.0694687683101119
0.0432688975917752
0.0375225119717742
0.0315230789719181
0.043078171095329
0.0344252238639609
0.0347589031340257
0.0323301037843792
0.0352938013026595
0.0379859786841345
0.0445619056669759
0.044584325902166
0.0518397839608262
0.0407701139439336
0.0577722166013972
0.0434301200636784
0.047413089965165
0.0418211066283666
0.0460046213364558
0.063312293570453
0.0768797843147969
0.0484534505852639
0.0523899465862719
0.053822761202843
0.0451900296709264
0.0523755274541925
0.0544801929843703
0.0555558480117168
0.0488643631552895
0.0664310484122883
0.0693674011918862
0.0561824334785237
0.0693220800445761
0.0581977546684434
0.0725806045661822
0.0612754046729369
0.0610022320719352
0.0725762975504112
0.0595613783995576
0.060264939681463
0.0733078267189184
0.0824623868459879
0.073234568152236
0.0833076726003408
0.0730975000072301
0.0704354004162653
0.0609680693078864
0.0710506551350617
0.0809699645579692
0.069435883273721
0.0799466123249093
0.0807308820846573
0.0791392996842754
0.0820286722266796
0.0764222247476261
0.0829931138980335
0.0958485407099932
0.0786646328047416
0.0914330061345139
0.0817552946953602
0.0781403158296166
0.0810367584231904
0.111705370797496
0.112701762225883
0.102234817852273
0.131428152916414
0.107876868636737
0.0958792710124918
0.0963751002550688
0.0966989959279411
0.111901249340427
0.103363194957523
0.113918043808804
0.11384216290755
0.121379946787687
0.108167583157235
0.115773215212338
0.107951840248468
0.112898304882989
0.126980827168069
0.129606831132326
0.117377549104708
0.128963753321843
0.125338528995185
0.128508318717324
0.132660237471731
0.138816555713176
0.148105391881517
0.150771553291953
0.142139778478807
0.142482891159191
0.136730240989163
0.142896032004062
0.151316263046077
0.149395463779642
0.144710153399498
0.161283314085473
0.142760976471913
0.156712617382533
0.15890957902159
0.177649272675146
0.160473133958395
0.170753980606851
0.164273093206812
0.17040614208893
0.167703351485248
0.174639619619242
0.179824597318755
0.180547822756399
0.163826187281741
0.194138426632371
0.173173595672422
0.184111834283677
0.182963536667598
0.19535725804353
0.194861046402464
0.204386849923017
0.187662205959913
0.188194237290504
0.197289786068161
0.213236771036805
0.200638440007356
0.220760648044341
0.206773108657023
0.22580297202419
0.21977898732945
0.224702075665308
0.209692004722526
0.228675386026089
0.215830976311094
0.22497914630326
0.227220422735052
0.239237972803593
0.229480677573004
0.246850558798636
0.237050498153225
0.243076216790407
0.233191598553577
0.261433962100013
0.237689635928241
0.253517990022551
0.252043530849555
0.265333129038387
0.252037410646245
0.272932285828755
0.264424371686507
0.275638649812217
0.267578146188274
0.280935791732759
0.281118942721326
0.289595866388894
0.278260714606793
0.289569005892316
0.279681658317451
0.301741474186017
0.272203984590326
0.304850936976544
0.296084885527485
0.305510309609425
0.310755376244444
0.306043523307684
0.282162198562298
0.337996891375955
0.318020404235428
0.310210179877017
0.31783582203444
0.361477278865003
0.312674972825231
0.330776282828817
0.310242236257478
0.328988515260624
0.328643036184265
0.345122078013297
0.330956692405821
0.364071628867153
0.337111374155955
0.345498077814298
0.344773687822024
0.36637128586243
0.355090316168617
0.363856885598332
0.353265663445177
0.378051124123767
0.374018903079099
0.379928752935579
0.353526615798691
0.371296983621161
0.38152757897188
0.395509071929588
0.370536803569605
0.384811071002281
0.369982264525989
0.397467204049803
0.374994508230005
0.408909887547961
0.399922999227866
0.412179951844915
0.402269367018351
0.438611602303107
0.409150735458076
0.416248252302729
0.397185022164016
0.435815562656173
0.408114325963709
0.438798135058307
0.409516599223286
0.422059333004178
0.417817967922007
0.465718459120083
0.428495911119983
0.457990025013004
0.423480128358636
0.458280615248372
0.429082060152317
0.452325080863973
0.446674447893724
0.468997153216145
0.460694627350669
0.464455471913689
0.439147553975051
0.464393145645867
0.44300849285489
0.482762315799092
0.444183530737317
0.475181556488279
0.447389274456878
0.469079065226755
0.458709394017152
0.49684817510206
0.463366346020404
0.491597151278583
0.491687349330304
0.498690793134753
0.481080697785946
0.518147339507038
0.473137176014637
0.512778121145643
0.478245865373049
0.50574711768579
0.487620248659616
0.524557050191847
0.47665570948787
0.516702201007888
0.496322578893875
0.507562843013483
0.495355587529976
0.526233172955515
0.508544873632621
0.531754606174484
0.50126575910626
0.512725899051664
0.48463742082642
0.534546395793128
0.514739712767839
0.531130894490742
0.521961030767759
0.552586234009147
0.498599175630534
0.554366422006982
0.51612523826171
0.559347544352966
0.523166904715299
0.553087416490442
0.516542747678933
0.548654015437681
0.526245211658595
0.57521821429423
0.530665060882815
0.554887899218304
0.544486238609765
0.560613986131636
0.526601217491481
0.574191319889815
0.527335756945505
0.570004335276685
0.531596129722601
0.562531013906493
0.564747094267714
0.582804423279232
0.561554156997121
0.586336999469339
0.536574124377816
0.587243235777365
0.566409780365288
0.564593467916308
0.551390808934643
0.588632323373049
0.561286607449594
0.59878472449661
0.585528470115
0.589229954494679
0.553410926028555
0.608527637254919
0.572696718899739
0.580825383733416
0.573320515208318
0.589068231765753
0.561563605534399
0.581027963100168
0.562107649080079
0.599266439202454
0.574941543762084
0.595858592760369
0.573253078066731
0.600451335493943
0.590929476900502
0.591586744181164
0.553010959378068
0.605013780447259
0.572563524720035
0.618166990109363
0.579978768599557
0.609035919201024
0.575091541345534
0.583073449013895
0.576532069198136
0.620958295706949
0.57345666358461
0.600444028487398
0.564211404745287
0.598688217755537
0.575657000727733
0.605533356288484
0.582539581790743
0.605294278760137
0.581868121011363
0.601268384277238
0.568799240388337
0.606099306534657
0.575693250802017
0.606106799570068
0.586972284610187
0.611627972857144
0.586731631580485
0.62637891018343
0.577564542191259
0.613072259864205
0.594797432102591
0.619530560425278
0.571090586965579
0.620684712968808
0.597436129266131
0.629513440125676
0.607191068891715
0.616738869808219
0.55289403461746
0.594538655854211
0.582674137622362
0.611467446901011
0.595446603157424
0.621499231125875
0.572415969138999
0.614657517275057
0.589342572603964
0.62101922212171
0.581367684240596
0.600104878427037
0.556288850758516
0.6040062033744
0.576407491064356
0.604814428432052
0.556569163683353
0.594664227816032
0.554505610643479
0.599604935261087
0.56058709825624
0.601290463795934
0.565673268940824
0.620071110846463
0.568950558842014
0.602821638535998
0.581285300572021
0.605935394474979
0.558413787169314
0.599955933040457
0.567570411916325
0.575197881749785
0.577583014865263
0.599608182887729
0.568256664989908
0.593475474534729
0.565664681298343
0.591515866098744
0.553689897999317
0.587917659597612
0.563769998685377
0.581607925839915
0.555145892238793
0.585936138431131
0.542694891690874
0.587122936949256
0.560079756939859
0.580452382411746
0.542321768234033
0.570839744042701
0.555725275060808
0.587977300852107
0.538279586204956
0.560820887535006
0.545111145714951
0.568453345393826
0.529304374193996
0.55296225228305
0.539577986191007
0.576157411321034
0.527950837990045
0.550583837805859
0.554177591697937
0.566436651374537
0.522377599798597
0.562687408233184
0.542959351384985
0.551309667189513
0.532180924264069
0.563234729711494
0.530764437019223
0.550963469024414
0.517763553199556
0.535339458703518
0.527975648893952
0.545476064494979
0.515512722151899
0.533534143469901
0.525001728386452
0.532508283329917
0.509170786619978
0.528853129071889
0.507862865090214
0.531957666460921
0.49778023578024
0.535514576356609
0.493964221660559
0.518295556162433
0.498528072135744
0.509479000121625
0.489117348049609
0.519563609497855
0.486914908406648
0.505874679893729
0.486021622111504
0.511352301206474
0.482361119290153
0.498307043538586
0.476863834981316
0.497195860332629
0.472754744183459
0.494835743058275
0.488274140951984
0.50062800326505
0.461166561727641
0.493509141219673
0.473857159535279
0.479362529857141
0.472516619402838
0.486809278863698
0.469963599538325
0.478656035078501
0.471388584798252
0.478924194179147
0.473447405180424
0.474058552957566
0.443163871829974
0.474159752679761
0.450036395937691
0.462236781646871
0.44260005979399
0.467386419576362
0.446775105599272
0.460854842620412
0.438390022386681
0.45970743228972
0.43251676611459
0.450152007921258
0.425409148954389
0.460379683528378
0.434171204837133
0.434353360139093
0.430404773881962
0.432745084940124
0.42550286105442
0.440557160235265
0.421097188308212
0.43462723917713
0.411887893772195
0.436538176912551
0.4179916778284
0.416312250481714
0.38907833157977
0.426686109277288
0.401005064996883
0.418338774234777
0.396408280955219
0.402673552281724
0.402900709255819
0.41469887870089
0.392812006337581
0.399359883846626
0.383949038365263
0.405428707721643
0.382846604051694
0.393197326964152
0.381218252522142
0.396414489031207
0.375601835119538
0.390282300508672
0.366965299332346
0.378415698793377
0.361830817117023
0.38483129355186
0.353168430565925
0.393103642815247
0.372773499296208
0.370933914027893
0.352270315264328
0.370275601567629
0.34662607460087
0.367559623040527
0.348325494019554
0.358587486717209
0.340240727658254
0.358787916891043
0.335462902899777
0.349934004258241
0.336419590753865
0.344934632955268
0.326019925368091
0.338378655298822
0.32410190324847
0.332681893432514
0.32826424895023
0.342017086793574
0.315900514815106
0.334206712663088
0.314911322183162
0.332974589394228
0.309782741842829
0.318131651316594
0.303863978321151
0.319436847574779
0.308121138246391
0.325836880305633
0.305703034187867
0.309516695490522
0.308095126359141
0.309021326664128
0.298012488565974
0.308046388917696
0.289529526982929
0.306313736987837
0.289821996336387
0.307253226051673
0.281156983675975
0.294742352840009
0.279914684395404
0.29741489961523
0.271786095400332
0.282727018987465
0.278153348896196
0.28536627113977
0.269743243227552
0.289334457230889
0.266327813282493
0.273983627879415
0.262018006374503
0.276992109264907
0.267882390472161
0.277366541487917
0.255002974187213
0.268689825448363
0.257017307070947
0.268635294192574
0.257705806636473
0.264640473952936
0.255294693065536
0.258600347829968
0.248342120647027
0.259749802991666
0.247203403136985
0.257997646457576
0.244933249136866
0.247234255910507
0.233141259487712
0.241757523511833
0.242040029205638
0.252326934539154
0.231756533522973
0.247047698413198
0.23046368729348
0.240448304317746
0.228548961627769
0.232682711941734
0.231645427739857
0.240136244258845
0.223185245565905
0.240687388608834
0.213224883729987
0.229629090448694
0.218840273476607
0.218361634607901
0.218019548320943
0.225223063253908
0.214977682214812
0.225110846203443
0.206399455705074
0.21761047403597
0.206948194610102
0.215805878687511
0.209516512524382
0.211729598067854
0.196718203984388
0.214159486171001
0.204267736224603
0.209044075061929
0.204549787202007
0.205672436883396
0.197074001535465
0.209383083277876
0.186593513854962
0.195293059905769
0.190900999647766
0.197209639312723
0.190964661164828
0.202028694392281
0.188439529222724
0.195426393547935
0.187542680785507
0.191990468484218
0.182261000251503
0.196787765334459
0.185638832237249
0.187294861133866
0.176793235747042
0.1827677995821
0.173925692751945
0.186086896204444
0.177315206325533
0.175183429762812
0.172092727594267
0.179815016662075
0.173066707921783
0.180893724248069
0.168855975848281
0.176231728921604
0.166079979983853
0.166906647634128
0.160815153967747
0.173072997075218
0.163693597600689
0.173640198063348
0.162238381979662
0.167398176905932
0.160593516687766
0.167828042218816
0.15293522798941
0.163595250412387
0.158895923095015
0.157500778845502
0.153641424786737
0.160468873210822
0.151795081320489
0.160722570736721
0.154668530316534
0.157491074551905
0.150446269013842
0.154792631724446
0.150977287671921
0.157737684677546
0.144217668573634
0.151473023065529
0.14140816324607
0.151373120532531
0.142406281050874
0.146694126223641
0.136130383361036
0.149760014077991
0.139018105895276
0.146832825403674
0.141567833804026
0.143847663024294
0.141688346715574
0.147866986696564
0.134537732890557
0.1422380817557
0.131759030372482
0.140571329829659
0.135833114230885
0.139464167061548
0.131263164739287
0.139650903134143
0.128427131417233
0.141688272528145
0.137617285619451
0.137784628745152
0.132142848249397
0.135125659045174
0.132176303275803
0.135973320274681
0.130717423165162
0.137957730714047
0.126330881120176
0.142111561290639
0.13025319003373
0.140110910857532
0.131663062748856
0.136434971643601
0.134180361186703
0.139860635182719
0.133371932876019
0.138854730148834
0.12976947829333
0.141519039917854
0.136084330710738
0.142784294893336
0.139009041817202
0.1412884051255
0.136403462153497
0.145734660354746
0.139572672634365
0.144883224833665
0.141939607711473
0.150567179692397
0.140753741106324
0.1461955127717
0.143829518763972
0.15683906897527
0.143155256100341
0.158112483797703
0.146799595780033
0.157674464599141
0.149516307261017
0.155142954628156
0.151352936757483
0.156624938240747
0.152711671654486
0.161159804216413
0.158494523264067
0.158578863410411
0.160702983080229
0.162465238607333
0.156739502914075
0.16994137776937
0.16054898085994
0.169695274494484
0.163259909087149
0.172179511152445
0.165364480333533
0.170686118070174
0.167594737036143
0.176504810514492
0.17111689067724
0.179772521113449
0.173718657919721
0.184017287820472
0.174062906259306
0.188326590087459
0.17647592714032
0.18748581982411
0.18947649828968
0.191514149161976
0.182523991289056
0.194407833725959
0.188761008157335
0.205564909581263
0.191605701407734
0.197831323144021
0.203727875031878
0.203846552628371
0.202302049865415
0.205321045176677
0.19460270471195
0.211731292992049
0.198478071406148
0.209196952938594
0.200092020294428
0.210406020899444
0.200784603691829
0.204267273939013
0.201156573261659
0.203814187277867
0.200272232894886
0.207543213346719
0.199840119617201
0.210289800330395
0.203089889472286
0.20707415644701
0.197644404736178
0.204746035941072
0.197683098098715
0.20363813547687
0.200224991937039
0.209315214250052
0.201887026554872
0.200569204864858
0.199686546340282
0.204182974512783
0.198890844194394
0.200688591142787
0.198409934994887
0.207014624579378
0.19536999933673
0.200002276853137
0.19374804320208
0.203843171168867
0.197286450318863
0.204116768594496
0.20229001109077
0.207378711741996
0.202733758316786
0.200320728477376
0.200801498958047
0.209599463531376
0.205360698924176
0.205345235427577
0.19266830504141
0.20515716204044
0.201712689306228
0.203218661824052
0.197605139256244
0.202181646901326
0.192465379866227
0.205373019994722
0.19500379401218
0.19443995325119
0.195366122085099
0.204036412981191
0.191805790522962
0.19751490437876
0.188663643692994
0.198409127446901
0.19146873200194
0.19419349561431
0.18953828271219
0.192063089822953
0.186538735297512
0.18947845301592
0.184458338612291
0.185958299277888
0.177872195856932
0.183280590406581
0.178694506002255
0.1789806213487
0.174735672648399
0.178804014664273
0.169799005747581
0.176700068255352
0.165888132433993
0.172488979019673
0.16465715302147
0.170039216801167
0.160215868544365
0.165543301200726
0.163474778393861
0.158591979045829
0.153977774901746
0.155697975311133
0.150815225130542
0.157979269532744
0.149078720003415
0.150564184208997
0.14821829560814
0.147789312695036
0.145147952360194
0.148142914399673
0.142927369964875
0.14552992055303
0.143254640482818
0.142538201684118
0.134826410555046
0.136617817673977
0.138163530177056
0.137775502775915
0.128500547350033
0.130811402676133
0.131806427928524
0.132806410959723
0.127530163993256
0.129893990993446
0.130374255332266
0.12835049234318
0.120413091309044
0.121677422327114
0.12084656237681
0.126496168643692
0.122617228197741
0.122581553618465
0.122297761538018
0.12360554154406
0.118194343893163
0.123969773615066
0.114246529493606
0.119998476648061
0.117306629748542
0.11986113449436
0.117677955606503
0.122111670704239
0.113909415364932
0.117529093614443
0.111925051851594
0.116211066833695
0.105717513262539
0.114727692737823
0.109751507474751
0.110442961737879
0.106407791485597
0.112862537478936
0.110654234446322
0.112418772132652
0.104743820689435
0.108132586797209
0.107247982207834
0.108112352588124
0.103070348559793
0.106893761198262
0.104836923328318
0.104806007318094
0.101883512961781
0.105890031088527
0.0993934643284788
0.105105190788435
0.10241313658989
0.104472452282855
0.102129340164663
0.10255874505314
0.103554424638482
0.0999516201559713
0.0981899491008785
0.100271895895453
0.0996530727926798
0.101041604336342
0.0966462596791954
0.0996125468806284
0.0974399913659909
0.0964937844015699
0.0923479089829381
0.102088902531638
0.0974551954800192
0.0976764352213762
0.0970451895354469
0.0978047125800802
0.0930458952602977
0.0962286600441567
0.0914100094856403
0.0906212201388666
0.0934979348201797
0.0961106742475588
0.0921554091734129
0.0922764057242791
0.0950865344800704
0.0954396912040173
0.0887482591782302
0.0946032815039956
0.0908830011925139
0.0936980819232948
0.0909085286124831
0.0940457383741723
0.0891916774260692
0.0901664526379598
0.0902360622856294
0.0916512500750968
0.0879356884960262
0.0867312442697817
0.0851394513821893
0.0894024700844276
0.0868125384376289
0.0882634672174417
0.0805717369038369
0.093280926803133
0.090002620227422
0.0859935200680836
0.0834567064493498
0.0902919904724343
0.082100273681662
0.0896606424812379
0.0879165547496738
0.0906988073661788
0.0872299948948253
0.0843907970377789
0.0851040930384848
0.0871851762440971
0.0847158733639666
0.0879611182452433
0.0856275277676836
0.0860352121848836
0.0829995365239019
0.0871890009838731
0.0825869089426007
0.0840411411143755
0.0834238154621874
0.083080896288941
0.0857840467119712
0.0886040990110237
0.0847611002021504
0.0905509602691035
0.0837035092018103
0.0827203058179168
0.0813113808970104
0.081116235926758
0.0802169512747237
0.0810046870685803
0.0803139050247222
0.0838032755082784
0.080828434772938
0.0845996379736386
0.0791430442619987
0.0820934469116728
0.0811883872931298
0.0830073425120344
0.0757990527091343
0.0820786666674349
0.0799425715810825
0.0811504701296496
0.0792724438004369
0.0789259115336294
0.0761498557616141
0.0795608939493144
0.0768354704021488
0.0789650200798011
0.0764093508765226
0.0817709147777623
0.0770400267368157
0.0812868324332402
0.075283719297162
0.0734781474132965
0.0780966330565816
0.0794416722430004
0.0727955125386216
0.0750944590373696
0.0731705712863052
0.0771518511714509
0.0741081363882349
0.0744253449228692
0.0751512535364813
0.0775859617319725
0.076758056510495
0.0741613290923205
0.0746446315197516
0.0749791704453685
0.0735917548858539
0.0737286324184177
0.0723634658137835
0.0737114904461244
0.0708630502456469
0.0739698536420586
0.0719879449803897
0.0701769135909771
0.0701090574614211
0.0729245557958642
0.0699509437195486
0.0719025216534783
0.0702325228397862
0.0678187399973237
0.0683580452365285
0.0720815637252386
0.0664434608758391
0.0675960731729403
0.065693000728583
0.0713931682802079
0.0727174569348888
0.0707301063186437
0.0689429406379148
0.0680769001295692
0.0640450993478891
0.0641926871773143
0.0688464558504412
0.0680018202947427
0.0638279144284703
0.0631409734269807
0.0612191286285365
0.0612990770109327
0.062392849483569
0.0682186272668897
0.0632508813267555
0.0613175951257963
0.0630553763279522
0.0621455200224279
0.0595860713543602
0.0654800992148089
0.0637049810253542
0.0628258289084147
0.0634735349703321
0.0610418788837317
0.0624939307721801
0.0643527987329698
0.062379983100118
0.0622710056429491
0.0576618052912896
0.0606814047830572
0.0597789080955829
0.0608828586876151
0.0597547685442106
0.0580616364454214
0.0552227961236103
0.0571484948516904
0.0556707054780094
0.0585795939181707
0.0575558153088446
0.0557151341362889
0.0555439842692412
0.058088699850398
0.0576644398186526
0.0533316384645407
0.0539855261175485
0.0536620596325302
0.0539611783413742
0.0557222124612586
0.0531115942758167
0.0545648687474268
0.0514775541682318
0.0528329319511799
0.0492932885893904
0.051179423886422
0.0542550518445517
0.0559439343189604
0.05234663814805
0.0532238399038019
0.053106299591456
0.0541179291854404
0.0531723246274151
0.050655003941291
0.049021304895133
0.0520534797269304
0.0492158676335879
0.0517704167735989
0.05346700722235
0.0498876715647392
0.0504978049692478
0.0509936635111026
0.0513844570252538
0.0507683723828787
0.0480226292300935
0.0490267420338858
0.0497424985512824
0.0513976091502585
0.0481043893073745
0.0456582511671986
0.0498579640027261
0.0492053138318715
0.0482066609933244
0.0451065530957665
0.0458088051957387
0.0456033814742258
0.0460016930194177
0.0489938838518657
0.0467290975891986
0.0517492220226237
0.0446438786929
0.0434937175286689
0.0481784070536882
0.0463462708028988
0.0451796695216943
0.0478183894523096
0.0480369803989038
0.04645779703501
0.0474688176784937
0.0474331963985864
0.0442763745146212
0.044659733581242
0.0448984923887923
0.0402743231056036
0.0458438446304541
0.0416981201884977
0.0481239888696692
0.0471506775441398
0.0444281115635701
0.0435042941843598
0.0445125063959159
0.0448187758789621
0.0428861629389673
0.0462113981281099
0.0456044314694503
0.0439458221167611
0.0432115509227738
0.0447979658376509
0.0424399831482422
0.0444435533084238
0.0451857432464825
0.0437371540897375
0.0435099262977817
0.0440669674604677
0.0416482105420675
0.0441394369916612
0.0452601430037623
0.0448537626919466
0.0450451806262498
0.0454645103280444
0.0436175286630557
0.0428410603018508
0.0413145658305026
0.0423066764002629
0.0411525009622472
0.0423196235035365
0.0412265259816368
0.0397512552651895
0.0418853167730719
0.0437894449119191
0.0443658908727083
0.0398510577807519
0.0416645058915158
0.0430302084161782
0.0410527811582376
0.0392830343543775
0.0423296502318414
0.0421681372239527
0.0406391361084571
0.0422673515048369
0.0417107773751559
0.0369509048432838
0.0421665300702605
0.0378930720816516
0.0390030759060649
0.0407418094088518
0.0409012250253527
0.03896527985547
0.0382300508685821
0.0391610128517268
0.0392796067910169
0.0393360702243306
0.041390599130338
0.0383226131197391
0.0405448652486195
0.0385803325330632
0.0366795759870102
0.0372022327259309
0.0410242865583307
0.0374571718899486
0.0384193223715076
0.0366960711118742
0.03755368939003
0.0410188836418898
0.0381369835052009
0.0386572746916289
0.0399967883730449
0.0354205735592134
0.0394484988338643
0.0372411956159235
0.0400075857865959
0.0380380794304436
0.0344077801588299
0.0360677613124062
0.0370921179785889
0.0379267775560911
0.0389424085129975
0.0366873020047048
0.0355557333689894
0.0354986895350243
0.0378348240229333
0.0354200286294436
0.0375165801080048
0.0361933688205658
0.0381406209696152
0.0339182554478026
0.0347970442703256
0.0379832796878129
0.0373864874718532
0.0361415255045254
0.0393467903193621
0.0369713175512935
0.0358253966152925
0.0341917186390473
0.0347677277337331
0.0340880318084338
0.0371426572473016
0.0334639592230944
0.0350823125692117
0.0341597625784635
0.033359283989515
0.0323292327972672
0.0347816491077988
0.0342468000521762
0.0354347538311449
0.0323625977277282
0.0352481540084324
0.0331272975710195
0.0329396244931786
0.0321103170044113
0.0327939439034426
0.0294075513629566
0.0322349271147477
0.0321445855189851
0.0304540111232398
0.029454520953151
0.0327174594706269
0.0279685839493344
0.0309705755781121
0.0312980321923833
0.032266082683713
0.0304416447113717
0.0336308201402479
0.0314470642852944
0.0312868875906582
0.0301860923064905
0.0306240657035193
0.0307899704085326
0.0323458937747741
0.0300183947849463
0.0287416223457321
0.0305639300514949
0.0336806469365727
0.0285240562213164
0.0295562575150001
0.0276184219551825
0.0294414977260597
0.0278032141907475
0.027776257711429
0.0277505867075923
0.0306872317351266
0.0284788037397188
0.0285916947816234
0.0281853574723098
0.0313059822010336
0.0263311479549116
0.0268532971843487
0.0271904046562241
0.0282914884309132
0.0278540694640222
0.0273679008934373
0.0266588236131918
0.0308561657732471
0.0276563609495032
0.0298778661784303
0.0270138017564364
0.0268500379111203
0.0258431668212908
0.0283080610246993
0.0281618214707305
0.027125326014015
0.0255127415404921
0.0270484695783231
0.0255464903411588
0.0279219030159689
0.0247550585585438
0.0256387067717935
0.0226647872825049
0.0245149683655155
0.0227037253540874
0.0269605868812869
0.0272028748120798
0.0270136445479586
0.023740458082992
0.0270378539428006
0.0229182987736761
0.0260023979355202
0.0237554825543143
0.0263732102867728
0.0257801981468454
0.0268033359974003
0.0228235795788678
0.02449198501833
0.0236510939678075
0.0251975283141259
0.0214110056585667
0.0247024381259065
0.0258571760525692
0.0260386931699247
0.022625376187486
0.0282010079976298
0.0214270045907967
0.0224714611404232
0.0227168633397329
0.0290638243875142
0.0220308643636749
0.0251431919620892
0.0236006520830113
0.026633863965759
0.02524373307983
0.0273259145493702
0.0218448240627196
0.0302095344059501
0.0244045165578872
0.0244509018555304
0.022386641271895
0.0290004091934858
0.0219987277795795
0.0250036752295999
0.0167515044444161
0.023410352706631
0.0214579138485222
0.0279770966034819
0.0141646086912667
0.0236427156554615
0.0225259078592968
0.0208496632591305
0.0190996726511481
0.0292928244952541
0.0170807700044314
0.0312586063674857
0.0159311644681247
0.0153550827759023
0.0187070628757956
0.0228725336968797
0.0201265877346087
0.0200192097517482
0.0097187100935132
0.023197791367259
0.0179080597280405
0.0233607299547671
0.0132089213316508
0.0263203257015435
0.0113883652946297
0.0198987760946036
0.0167865726681667
0.0198439279440277
0.0167050436418829
0.0165959256517181
0.0151994258520036
0.0196976635156496
0.0183248285685464
0.025338180938287
0.0229896603797104
0.0213529750431625
0.0232666877399077
0.0140336600185242
0.018028129305061
0.00977888793069961
0.0296507363926385
0.0206392902063643
0.0407952633339801
0.00504330316348889
0.0346963374946607
0.00212542950089503
0.0473653506928478
-0.00314264311971059
0.0452463833904075
-0.012725474998157
0.0611997141554695
-0.00906997838348914
0.0513153476595577
-0.0104714406189415
0.0557208272204164
-0.0063576509878311
0.0417589331023632
0.00529581753474839
0.0369314174753187
0.0119380165777283
0.0243939242740436
0.0221950055937772
0.0172512744834621
0.028130425783524
0.0147002319215266
0.0279317519556466
0.017650366943313
0.0213770615938644
0.0191278727620333
0.0190889347798853
0.0238221438249033
0.0144312548117576
0.0222953328514063
0.0159712917415551
0.0250901189612784
0.0183225408583173
0.0202471642559099
0.0194766666049706
0.0216297623285356
0.02243407921639
0.0189568516405224
0.0206829554321589
0.0216069618299847
0.0192405654736946
0.0226567788156609
0.0184608725895902
0.0218784356317258
0.0185645022231564
0.0202783909433806
0.0226102017838269
0.0226599309076769
0.019582099278722
0.0219572053480511
0.0201098113112784
0.0202105033128139
0.0180385232839299
0.0202190161205255
0.0197343783672321
0.0180570811177849
0.0177076664996946
0.0203303540365779
0.0192608180426294
0.0200601230214803
0.0201740832475563
0.0209932210200364
0.0214628559449556
0.020594402987041
0.0192176868289879
0.0187780353994678
0.0184337550380202
0.0211270712883804
0.0208749887007911
0.0179084685029175
0.0190758769649003
0.0188946029213805
0.0197297500370826
0.0198399074072949
0.0180978323112934
0.0194387238921465
0.0220157434313646
0.0199200919873979
0.0193944857247827
0.0201931592611981
0.0194404660883456
0.0195060233670136
0.0223090662450935
0.017059648457135
0.0190680477882235
0.0178506194061301
0.0190140983516916
0.0201825172263842
0.0213381091952693
0.021661349613205
0.0205637054099694
0.0171151768039877
0.0198212894634823
0.0189989662737623
0.0186250706694089
0.0227511145184024
0.0192272101615242
0.0179274465137667
0.0209365887495514
0.018390011311234
0.0165527992448083
0.0188669103960972
0.0205647461316484
0.0184708484349223
0.0184021228812054
0.0201122604741614
0.0225117096524512
0.0188598596944463
0.0198011853513422
0.0182615652891982
0.0189512369530264
0.0175071446893657
0.0201241150034267
0.0192138588160317
0.0197392335256835
0.0185402863842773
0.0207426051966534
0.017601009438002
0.0197848325266394
0.0195846848980427
0.0206903894391136
0.0185132962148579
0.0191778543259188
0.0198435286834137
0.0189037194001909
0.0195909728374878
0.0206018113188858
0.0189485148382807
0.0215098515883845
0.0188107947253637
0.0204159552238455
0.0189317135373977
0.0213633112927702
0.0205883863807968
0.0196604458764832
0.0200619275017953
0.0215817890063961
0.0209541814634946
0.020934102016652
0.017445213171865
0.0202929845696261
0.0189146244414825
0.0198620948185343
0.017721359484321
0.0210026918462432
0.0176820185306468
0.0219368965802539
0.0172207547144288
0.0193055300438995
0.0200612036406848
0.0210075648303796
0.0176494791465992
0.0193159496166377
0.0185919384673391
0.0204510732470914
0.0205255103228422
0.0207040543417387
0.0195190757856964
0.0191443802510471
0.0210061363233199
0.019217991359798
0.0174814816273582
0.0211906570095084
0.0186538628146163
0.0206303805858224
0.0193130812013463
0.0209156134819101
0.0206900832440445
0.0187134919187468
0.0209352525714312
0.0216514198731635
0.0194469627953616
0.0217513672834586
0.0171150501066523
0.0203564844851025
0.0191575794758028
0.022572952045718
0.0195472944772155
0.0218295565907551
0.0200274373222562
0.0220622387676333
0.0212494840259049
0.0218643460342747
0.0202878874928029
0.0183702348131326
0.0192234042643934
0.0205747204868878
0.0191770045146526
0.0201735829903329
0.0201207220995399
0.0237766588352675
0.0203624392399008
0.0217104340478215
0.0204122593489439
0.0193291598544388
0.0193981580331075
0.0228211991134312
0.0185640636423696
0.0198170766397912
0.0186526976874975
0.0202226815660292
0.0183866749550451
0.0218949908325656
0.0183321816906419
0.0204921219428796
0.0210280565610247
0.0220914623230467
0.0191332513301536
0.0213982741209591
0.0184592361668189
0.0201109224547913
0.0188293775789192
0.0204532596574635
0.0194564530724712
0.020182265534475
0.0194160033976216
0.0213674518882582
0.0179123409041698
0.0216107573406514
0.0202907009473001
0.0210752560231149
0.0167138316174862
0.0177296889297419
0.0203975724715382
0.022813112152787
0.0174834434320743
0.0215065890865125
0.0179718595054211
0.0188612332170077
0.0180456463928983
0.0187547492290797
0.0167285632693607
0.0208901354850032
0.0179217270751793
0.0185035487584883
0.0174366503531752
0.0195858472363047
0.0183471919355352
0.0195183323884663
0.0194967667360424
0.0194073719712843
0.016199429659037
0.0207217337198597
0.0185306864008441
0.0202779594226028
0.0184926924557338
0.017173914812557
0.0169808495816066
0.0196964041382594
0.0174456555966109
0.0178768672147677
0.0167553297615968
0.0211217722551187
0.0169919436813449
0.0192610885591721
0.021049188355529
0.021893660645031
0.0197947464512096
0.0209602661035056
0.0197509021065283
0.0188465094568231
0.0159110185733429
0.0184047644249923
0.0169539529878282
0.0197955796312113
0.0148465880200856
0.0210604591015474
0.0180543386900853
0.0201261140562118
0.0167485808223161
0.0177252881346574
0.0183748069919617
0.0191284862989715
0.018060439713202
0.0195964483246244
0.0161040706318372
0.0186529366723514
0.0175720254289782
0.02006157460997
0.017922137367417
0.0193084921449826
0.0160388340989637
0.0215206784987249
0.015809900867334
0.0197676945982555
0.0195004473071578
0.0196337465123762
0.020315440137371
0.0164137479315395
0.019504682372348
0.0178068638238345
0.0183253005445149
0.0193868683595835
0.0182309928937972
0.017380922119253
0.0191060207345857
0.018553164554776
0.0171673380220471
0.0188363462703159
0.0186559808659405
0.0164938843732152
0.0178009964675984
0.0190491504246262
0.0166187969714028
0.0184007118646216
0.0174685563867387
0.0191792038984486
0.0174528860383005
0.019602990762682
0.0168769549975358
0.0225065966795329
0.0186142864761652
0.0197237252148726
0.0159244018523217
0.0200953384982549
0.0170859364256129
0.0194971768305148
0.0159982321320291
0.0182271283228352
0.0175732541407117
0.017623557626022
0.0175167928472984
0.0185502110691243
0.0168213697798196
0.0199049657013414
0.014919419356442
0.0168690685611264
0.0160240000708717
0.0200374948543339
0.0142073042526371
0.0183383054467877
0.0152988163212787
0.0193786947550695
0.0157899181547991
0.021540565904901
0.013561341128715
0.0185176440712462
0.0141496087502451
0.0185778557686137
0.0151717517693571
0.0173992370557121
0.0144073006105747
0.0172452167457097
0.0163258361917052
0.0165243181190439
0.0151033775929178
0.0179455690390913
0.013657208742569
0.0168815093403832
0.016053966030201
0.0179992755738467
0.0157976247544589
0.0180475483947842
0.0135662043790377
0.016144788114049
0.0156719067421469
0.0185640663125771
0.0132649986979072
0.0170466506854034
0.0153939381727257
0.0171008980791325
0.0218304076162096
0.0159543069030194
0.0183458282857997
0.0179790063550568
0.0174939986269512
0.0128119550503462
0.0156840086253061
0.0147829253740358
0.0148546749735943
0.0164408643552469
0.0158156745154801
0.0170130310047758
0.0161427871502335
0.0149816584471032
0.014528799396445
0.0130499703731019
0.0121392735897032
0.0173546904063186
0.0153667934749031
0.0162121930461233
0.0139364956014251
0.0135332220852099
0.0143374173833822
0.0158958589841127
0.0174807991803417
0.013764801905228
0.0203241725764783
0.0159448079905387
0.0146140007367339
0.0152979537904164
0.0143494227519359
0.0151016936255824
0.016436497253522
0.0165483416252842
0.014326486016463
0.0164052682408553
0.0136883460106864
0.0168600933865435
0.0143781439682286
0.0154947092701269
0.0140949538752045
0.0172768831005497
0.0171321384839553
0.0152008246170419
0.0149130282467977
0.0155374071076332
0.013585290194456
0.0145173875769239
0.0146080272123559
0.017111167379305
0.0152066546015817
0.0171341548237458
0.0139604155328847
0.0291999474813764
0.00932449511449394
0.0220926066049788
0.0145733429823115
0.0178779181234598
0.0146729518263008
0.0183816122497682
0.0116791123802654
0.0155447055891536
0.0150227258839126
0.0180914728915911
0.0115917669281999
0.0184552841770454
0.014346687131556
0.016344701620411
0.00974478894156066
0.0156366790323906
0.0148272855733482
0.0161066113590227
0.0144989629580215
0.0198932498015058
0.0189750907027103
0.0189173156797145
0.0104915389237398
0.0208910002858209
0.00812782293044419
0.0299694536602439
0.0164958668507876
0.0148673424403447
0.015813638699933
0.0136281203851365
0.0172699470407977
0.0109442112979394
0.0170208632393656
0.0124951010241304
0.0221998285754707
0.0105849467064335
0.0178030976546354
0.0125218766319889
0.0157187237094316
0.0148570329904495
0.0145720182446775
0.0147248974326593
0.0150336228503045
0.0151723106531583
0.0129681381725167
0.016045008644824
0.0134151224354464
0.0166582634222361
0.0156053386724296
0.0152085320342988
0.0183859269128917
0.0128760855092403
0.0165009367950787
0.01344508493144
0.0184293427485431
0.0181529161122687
0.0298972959938366
0.00666209704202439
0.0181143800939144
0.0122262651120795
0.0139317952399149
0.0146943260091629
0.0149540157956136
0.0126598598480758
0.0140812545649018
0.0146385540933801
0.0152905666336335
0.0166433402894853
0.012810227892507
0.0167135036284174
0.0132118582062755
0.015339011638336
0.0118050350693041
0.0163577151335479
0.011545520482148
0.0181420884620407
0.0163830879131889
0.0279280221826373
0.0260155518183607
0.0125129389188416
0.0239225350347573
0.0132331357549883
0.0176636193654124
0.0119126716609763
0.0200045154298783
0.0131821677239285
0.0209912443060533
0.0127620707401609
0.0174030121126569
0.0118405308049123
0.0167135995876984
0.0112203265108081
0.0177513910377195
0.0108856183766034
0.0169453944039916
0.0110070777075728
0.0181656287987756
0.00960578545442849
0.0174765823171473
0.0114130425972089
0.018884339776384
0.0163922174379492
0.0203001928151026
0.0203167928712835
0.0153404881359853
0.032118235518596
0.00625570501126038
0.0271043364149072
0.00681968014078204
0.0212473193531376
0.013121718160559
0.0165167253678154
0.0185141441102551
0.0166747037458537
0.0104725832068932
0.0180778823042119
0.0159994554774588
0.0178392006984472
0.0148945995616776
0.0225507446702828
0.0293042046502216
0.02037494787232
0.0127060013720335
0.0235547809487878
0.00810448154049747
0.0353603263527016
0.0138046270981214
0.0165869701577462
0.0157542840053443
0.0149231575481318
0.0176859740113866
0.0148219808982338
0.0180103879954447
0.0185725536845669
0.0172273275243693
0.013444047997102
0.0193422796333846
0.0131405782894443
0.0169812969354667
0.0204707124976083
0.0174382125385408
0.0213620111373112
0.0155938286367543
0.0173273991140286
0.0211215486788679
0.0148210539482257
0.0167392187060037
0.0152208262866055
0.0201433429244288
0.0171925815135765
0.0245580514607501
0.0165817153856402
0.0207637180224463
0.0233425091856851
0.0169703686467931
0.0216199699202763
0.0258599527518207
0.012666616642631
0.0281800900141725
0.00580983708809128
0.0447491364230421
0.00769794962649084
0.0357462743520384
0.0103365289940665
0.0226577159083667
0.0115381481665305
0.0225111080509599
0.0125324127656832
0.0211647712288555
0.0222753901110408
0.00977069433103462
0.0278178579962763
0.0100816893855822
0.0306371610298748
0.0143736079010008
0.0228724958558264
0.0161164972659804
0.0224375539825055
0.0133572005457311
0.0315397756262169
0.0128078281475722
0.0484796676677896
0.0234027984286564
0.0140933999961331
0.0297484894421816
0.0190342410743669
0.0325411139868505
0.0222977501988295
0.0173244156036799
0.0248777035782046
0.0113914995143156
0.0297323090511458
0.0178344598816867
0.0386717466091233
0.0219786360663973
0.0145535202250851
0.0283002766129485
0.0226504794518195
0.0304836477130033
0.0304450418369919
0.0192462405534152
0.0261643635599613
0.0207661905677886
0.0332356641271006
0.0151590385744536
0.0547417520331642
0.00801231691645686
0.0555431470516876
0.0146407874356998
0.0413911767056869
0.0187715466230956
0.0363151544203465
0.0208683677915544
0.0386934139765202
0.0203166574004766
0.0378312978365418
0.0167436640379168
0.049054210928494
0.0195398703601617
0.0306538333149506
0.0293770480486874
0.0357352288827203
0.0384317370122896
0.0560282632727402
0.0259051043534405
0.0387310467016956
0.0320012717622468
0.0453556379331048
0.0334507896361405
0.0255851530364716
0.0306367972409967
0.0308993430008306
0.0303185391561992
0.0334119654231811
0.0318545932909573
0.0406391114243342
0.0264474075485001
0.0418351259908578
0.0303382218760274
0.0733633584645984
0.0343430361705864
0.0554367150112661
0.0405560253509743
0.0382797546314476
0.0476342601203208
0.0346585489659623
0.0440244241706873
0.0381083861653216
0.040952820024693
0.0364758772614926
0.037070058566278
0.0502229772587919
0.0385608069531606
0.0602148044276273
0.0372468177115301
0.0664261847682706
0.0348713865221272
0.0605088544701307
0.0627084275128843
0.0685698308785328
0.0734715738354422
0.03261377748072
0.0774025946243442
0.0375620030536897
0.0901232303275875
0.0544437252700015
0.0580317687733378
0.0596907770068185
0.0639842291344925
0.0615709500115826
0.0728561679142938
0.0689682474503511
0.0741127522482913
0.070408400031375
0.0825800734470914
0.0757548815838706
0.132678405607122
0.0809202232692305
0.0889767457448662
0.0820458137118718
0.0961262664519321
0.0843706035859787
0.0907600320033767
0.078231799784727
0.111785414498432
0.0836574304346858
0.136580546986044
0.0941540468849821
0.106325998407918
0.109507759318746
0.105649767840966
0.129467770737419
0.100603510783312
0.149977450307194
0.0982976742508278
0.134340481655165
0.106971615331591
0.129714672669774
0.126105030115359
0.137518748489132
0.136918547000008
0.131072661668341
0.141075263291673
0.133292511724508
0.137335986678028
0.137276307583662
0.141186575346606
0.151481618228505
0.15608829446122
0.217489755129775
0.117310285346373
0.176713590913538
0.127255762649662
0.15768077517008
0.137842665857113
0.161734977905895
0.169496366475423
0.149054721186704
0.162600748141935
0.143220869853943
0.147361667150767
0.147261550814195
0.147301922416257
0.148162002319256
0.13590177600424
0.161335941423035
0.130845126892565
0.182130737014328
0.117009423782423
0.194372145635153
0.139021481283063
0.152847261109565
0.137781638658768
0.150159278156367
0.134137725862397
0.159356717756361
0.143255404638792
0.154998348572691
0.146118740646169
0.140744208916131
0.153580308506557
0.146398916480259
0.157074487267723
0.138397207378781
0.135245631106343
0.145879890685425
0.128649796704476
0.160445590084566
0.133334750492928
0.159938134947829
0.142923696243179
0.138563029778073
0.141706124982049
0.138636978271269
0.138896279654282
0.14161378681931
0.142752079118961
0.142576109949884
0.14469641090643
0.142233558311007
0.142145774622482
0.138329067169446
0.146403859307857
0.146408263633045
0.153076665756366
0.142035587826227
0.144436959238538
0.142994853844354
0.145023193087657
0.145275940681122
0.148526628128676
0.145648909692741
0.147671439569483
0.146719243698404
0.148913382314297
0.146037208740286
0.149255764887136
0.144896821789141
0.150277523439665
0.1456749956358
0.146635602889206
0.142648092038506
0.146398578369535
0.14465961653443
0.144902150966051
0.142082471922105
0.139433234050252
0.137427948447024
0.142750621080221
0.140143063419261
0.134305790055315
0.161448714849673
0.121900532587738
0.165029187933154
0.125025925599685
0.139887996831001
0.127725341653554
0.126763221321395
0.139212442529318
0.125336672504385
0.140748245294388
0.119812096433134
0.123424370606581
0.125601474960964
0.121436595693207
0.123937520815424
0.120132173012603
0.108366559907465
0.141547175572758
0.090468649862461
0.192237325450949
0.109306179577641
0.144594964067196
0.109134790305071
0.120888852214675
0.116741382638667
0.115962732935674
0.11699365038679
0.0952896809968566
0.125102386932278
0.0891995656059908
0.119491926559111
0.0967174492780636
0.102244979681916
0.106740145691876
0.107713060253074
0.109720049389664
0.117010852940064
0.109677236971211
0.118833749191589
0.114499910049114
0.109137381152635
0.125485093838281
0.101286550471448
0.102705796047082
0.0880807199270986
0.100097554727109
0.108468305977211
0.0887822282148045
0.111641548179073
0.0800399476632572
0.0974158509092282
0.0793325810415813
0.0975767454216302
0.0896668559307783
0.0939621545109397
0.0994671133715521
0.0801232782850161
0.103442692370614
0.0684439721207309
0.12356106729307
0.0786804191582363
0.111062095935127
0.0751855935116155
0.0957310903680753
0.0867206558446577
0.102791890962975
0.0925585871296318
0.0734931381789493
0.0863455316978789
0.0856513125928757
0.0746836771504525
0.0920245536625595
0.0758226039493098
0.101161778813714
0.102458560220791
0.106477828673125
0.110370541787964
0.0761559281568872
0.078249499446178
0.0723420693151618
0.0718628969947691
0.0847064745357578
0.0606663761719887
0.094279248096222
0.0486570523743493
0.0938331594962186
0.0834495927571144
0.074683169116528
0.0844200950998498
0.0748842365015629
0.0740838655394032
0.0837275519793757
0.0830710825013994
0.110238425933767
0.0887982300978865
0.0983306419138335
0.0824721202254926
0.091618901126227
0.0912405109453449
0.0843025886361418
0.0909763074251507
0.0856521778273953
0.10133372871368
0.0952385132849512
0.098929602771718
0.097860291593664
0.0950629369361721
0.108890400460923
0.115513806872814
0.104614719118977
0.130316508511941
0.0962228863631668
0.163190260345328
0.103637469161591
0.135877889762571
0.117565680477722
0.125248137262979
0.129286295725106
0.122873536217666
0.139484642250591
0.147319271942567
0.129817352067447
0.142921657692477
0.125976803991217
0.151003822572507
0.130975175730506
0.165952208106365
0.136068712800694
0.192308683532806
0.128960830722074
0.173012954546095
0.154962404179872
0.151108509677742
0.155346536620804
0.148100004825816
0.162814971163982
0.151793625140949
0.14979920972181
0.167534250656795
0.153089535345655
0.166345310680944
0.152747702998362
0.163127412385558
0.157599616139466
0.161686131535306
0.162793879666459
0.159973919007733
0.165176867904987
0.165832756864842
0.163281412433758
0.200430724609903
0.157620686041366
0.188792036182446
0.163329522129267
0.185425899150288
0.176234801537512
0.177295902862828
0.189552530713322
0.190252610948856
0.187153227767894
0.184287978064134
0.184216838177598
0.189367088133004
0.181751955477786
0.206628074322134
0.180930144200804
0.210923059098575
0.172666066415501
0.213099265565968
0.196828441970909
0.209915940481742
0.209875504478155
0.199690209638041
0.211483130307872
0.193355301114612
0.201402522456213
0.198551073700815
0.205266094453624
0.199413601330201
0.206786841787678
0.198643109050994
0.204662218983952
0.199559537047252
0.199196651833321
0.210564459080035
0.196881641069106
0.208041677949983
0.196111024311493
0.200041803434722
0.193114414289188
0.207571768236223
0.197563562957801
0.205969246341077
0.199946954395061
0.191610584968064
0.206941044525042
0.20791541491892
0.195978196556515
0.199084377830561
0.191849828840567
0.201221648966454
0.189159495086747
0.194898465935991
0.205014499890955
0.201554012241745
0.207515082791717
0.196493203162057
0.203392896221481
0.195154222408352
0.202489028800097
0.195063344922475
0.209286638512075
0.195168557383337
0.210029099385753
0.202680999767394
0.206127134021417
0.201445105333695
0.208429767653334
0.214187237265791
0.20414364218297
0.203451655167683
0.199049160066755
0.197250927603073
0.205881478409372
0.198883676780182
0.199171464162439
0.191500052013627
0.195213739072256
0.184510244041027
0.211557392626285
0.180959009303092
0.201898825237915
0.182215387958043
0.186342484211341
0.177503844863724
0.178554313514502
0.176604677268294
0.176355885478873
0.176322867086343
0.171005829645398
0.174003481315044
0.170210762067468
0.166828512139089
0.172313126205169
0.172658919378965
0.170252696254101
0.170898959878322
0.16917906460401
0.164159755474381
0.167006777538618
0.163299018570117
0.172066423069529
0.163322041472033
0.17288724976362
0.172843810985378
0.178403108024221
0.171199165800949
0.169536775520863
0.174194789148662
0.16329319955885
0.166757819077509
0.161173531729409
0.169835248986438
0.161809474095553
0.167348508561334
0.164363005904977
0.167343330905112
0.164639862829832
0.168912011918237
0.163709480772137
0.165892559280249
0.162819905368459
0.165796920849456
0.159919973564247
0.164781797360331
0.16288446951897
0.168153443042546
0.163516733680962
0.167904588314529
0.168161109421701
0.16186753287199
0.167263062637414
0.164130147874635
0.168583811269539
0.167365962388038
0.166565542335067
0.162959987671696
0.160953525900865
0.166224228967372
0.163457432173271
0.165093168083936
0.162714213954757
0.161031923512912
0.16187144710092
0.160753031777057
0.159687497446312
0.158109841509853
0.156097117334763
0.15457109328022
0.150866169349677
0.153670789213084
0.147998514120938
0.150031845892438
0.147769077924059
0.14629773617182
0.144151739292915
0.142158149764351
0.143935530809099
0.142788628261262
0.140232754185202
0.140832933460702
0.141403427137185
0.137462643774181
0.139664759176398
0.135541506873666
0.137038220886164
0.139149432723326
0.138286123377407
0.137186976294407
0.139094618742783
0.139388017500495
0.140594949516085
0.137818868064667
0.139044803190678
0.141055586390555
0.139109867504598
0.138873973005938
0.143160468625811
0.140032292244648
0.14420074335134
0.143782236479687
0.144123564059482
0.146793343547232
0.144933467096497
0.145947456544909
0.147762858759835
0.148613996147409
0.146994459615897
0.147217588207454
0.148243023793847
0.14821231499854
0.148069676298963
0.14829168151038
0.148945487317494
0.14991552646935
0.148802342575264
0.149298664125293
0.146973937779791
0.146924393240084
0.147766793519045
0.147311016624316
0.147645572372242
0.145859882790837
0.144985480356389
0.144531610787879
0.143849711404426
0.144519593173148
0.14630245196822
0.143023749123386
0.143476258839319
0.143562711630998
0.141339210917439
0.140706408974528
0.142200318819321
0.140583004673932
0.141937032982228
0.139287766505713
0.142484605890102
0.14049001144949
0.137327051343691
0.138632666306113
0.137537618073819
0.136111156356138
0.137086038088508
0.135674059220561
0.134441405938717
0.135242352539596
0.138421003814947
0.135594748976553
0.13469824374757
0.135002907552064
0.133379495275942
0.131501500040572
0.133516791866934
0.130943231460002
0.131752346646242
0.129462305040446
0.129150896830484
0.128258125519365
0.12770891047229
0.125821072939106
0.126386257575009
0.126537292746828
0.124043333196432
0.123355778926723
0.12114555617111
0.121244406588473
0.120033322033665
0.120950332163671
0.119991309296377
0.120709302996467
0.120807338572916
0.119230652480805
0.12059908149049
0.118153220203157
0.118009125915683
0.117488569264684
0.118667260369087
0.116306330937097
0.117047719371569
0.114829594334829
0.1138341110182
0.113401772112763
0.114458668640758
0.112423401882725
0.110841739849929
0.110415620510126
0.107729972886859
0.108433041722719
0.109352948587932
0.108847845874417
0.110562710866256
0.111593209769478
0.112770047915875
0.114566482904819
0.119655370347304
0.122364640661211
0.124904815753433
0.130429386491411
0.135443050932114
0.14100123045153
0.148344241449451
0.154400180833879
0.160314971283983
0.166721375287616
0.174282814197934
0.180381693395017
0.189868441167654
0.194633579718314
0.200324359372757
0.205507394904065
0.212147532760954
0.219155060523224
0.22395321496498
0.227283028648429
0.231122999865633
0.237614529453201
0.245880931883376
0.24594670353599
0.249466448201549
0.254902640813399
0.262509343832138
0.259316900962337
0.263690975148908
0.267604209148001
0.269560987281968
0.271284055826724
0.271560453607687
0.273708914914896
0.277426004733783
0.276035483450889
0.279513833355507
0.278142645427899
0.278572238103544
0.276296059878824
0.277065244230213
0.278280437846828
0.28056967455939
0.282442109780035
0.28214908060275
0.286256108953294
0.28591740333261
0.286639090326744
0.289561474205154
0.289686525112925
0.294773926880775
0.29759812821888
0.299461796558493
0.304316740083126
0.307324019101284
0.307452016389162
0.312024973353633
0.318189764817343
0.324469335293277
0.326599565734421
0.334970530320801
0.337096732746906
0.34279402574112
0.345971051869663
0.351043920906789
0.355262534841617
0.362995523323954
0.362333979076778
0.364969441596436
0.367221093990547
0.367826792716499
0.37044639366488
0.368372553011111
0.366670738764839
0.367415828175528
0.368142958586559
0.36305014604616
0.359305976597287
0.36134578015978
0.362445161312013
0.362953725133167
0.366314188256873
0.367054657675292
0.3715558701821
0.377926893120444
0.381023116417863
0.389382924985421
0.394684111836813
0.401364331046422
0.40959945260781
0.411784445769219
0.424607969537441
0.430823794016775
0.438114571230759
0.446411795009103
0.452283287009911
0.46146472857458
0.46855473987704
0.476472592057139
0.479863499842607
0.487477964076126
0.497720647656865
0.50504328496394
0.511806230448039
0.522561706567652
0.531096218104658
0.546142364640842
0.551461602630777
0.557020614896121
0.566525784852875
0.57370495476899
0.583535159985111
0.595891536435872
0.601264472876762
0.60322010227221
0.605800951762332
0.609536870870363
0.615349266568468
0.622796086217599
0.620607169001491
0.624708086065306
0.618011673357016
0.620936284146143
0.621081600227295
0.619085384281134
0.617250928811672
0.613070688592709
0.606687337207332
0.609183179744528
0.596884261187262
0.595633711454845
0.596168634777597
0.593051617869806
0.591152474860969
0.595754510337311
0.59262491477559
0.600566881171515
0.597634545896981
0.609289484140603
0.612788337288205
0.622472264932163
0.622478026232111
0.626921836740291
0.628281061575213
0.636440072822779
0.636735122944629
0.643584818628121
0.647014756856181
0.656146172267391
0.652211132724953
0.65542938749603
0.650398299529943
0.656356079315218
0.646864752945685
0.653725333561571
0.646716405721489
0.652970619577899
0.657792326342648
0.650108768724307
0.644616902096925
0.640994191900051
0.63865264078675
0.635117946607715
0.631199639462007
0.625269273964625
0.616513313633935
0.617961761532741
0.609524042325789
0.602128941972885
0.600573866479457
0.591011581792314
0.585766328096925
0.580871041895848
0.573358492056982
0.568143075683213
0.552963405688812
0.543985242670135
0.529475897040104
0.515142021987559
0.500717795153194
0.488886516523347
0.467172937810423
0.452584817931031
0.435905737646055
0.414559714990452
0.396765545137206
0.378519867580711
0.366755777875028
0.348861640934018
0.335719961165303
0.328638296439978
0.316168601187009
0.311134608119473
0.310755153795863
0.302743277461644
0.297855767828207
0.293819946641063
0.2941692901106
0.293267783267156
0.286178977623987
0.286276737096351
0.283166721617426
0.278878532259725
0.271789036249853
0.268495513195598
0.264305429804791
0.260538559400236
0.253495850888105
0.250542076657091
0.245403189847437
0.234935885539114
0.228421090953012
0.223222753435652
0.215635861756578
0.205133477094394
0.196724119377407
0.189472636895716
0.183059804079006
0.173418938136104
0.16413125670998
0.160167093945909
0.14960595206969
0.142055266363111
0.136617882805752
0.130382426396694
0.120574158850558
0.117665000695396
0.111433937375169
0.108740090865027
0.106915602107738
0.101143758596468
0.0965035844566894
0.0950658518090776
0.0937197264329073
0.0911249318552843
0.0890126578612088
0.086208874252763
0.0865789991150912
0.0885552808801303
0.0866471108339785
0.0841161628062102
0.0843554614312162
0.0847323371423955
0.0810619740883115
0.0835308835986705
0.0860419821475449
0.0830222945667387
0.0879017017160397
0.086145383363487
0.0839317303552549
0.0871686952140838
0.0890530533722145
0.090525172615457
0.0889578881597743
0.0859165967848759
0.0840394084441984
0.0848979613790859
0.0886073522968389
0.0832705205510032
0.0855673330975815
0.0847815269775365
0.084990256951346
0.0843665947874576
0.0859884722784096
0.0815356547223329
0.0833261106025932
0.0805097671270757
0.0824022035132743
0.0835395836657971
0.086982220935764
0.0851497363235227
0.0839888280811626
0.0887767282686566
0.0856480336078368
0.0876907390459274
0.0890704913950485
0.0914818747334357
0.0904319423462362
0.0932924988486721
0.0904417950358553
0.0904084260293442
0.0949283927253813
0.0954171377476576
0.0933429755246098
0.0966703778932509
0.0948841144848029
0.0926307999673075
0.0940804654129678
0.0946021769011108
0.0967272710984435
0.101363075057989
0.102589375915328
0.100561421614662
0.0951658655296189
0.0995407543669431
0.102200969344885
0.104353756086581
0.101894799577228
0.107998009984652
0.106886890610797
0.110342494594958
0.117021505198124
0.118198528720969
0.122705935852015
0.12938023041156
0.132702473958387
0.131051762470706
0.138697091722398
0.139188616303821
0.138756154053715
0.134251646951579
0.13591570229553
0.132033937061081
0.132493193589247
0.130134187429731
0.130180156991263
0.12521828707138
0.120054779134129
0.118671322735841
0.117478732904433
0.117883301635197
0.11684786305731
0.113098045710397
0.119105440472404
0.114951041429035
0.104966574908498
0.111166449245383
0.114743595905628
0.1196430459078
0.114477778950036
0.110459963080825
0.113898743298926
0.111446546465063
0.106692818974855
0.11359797345205
0.105400799275472
0.107547882924173
0.103374254456747
0.103095072688632
0.108118130702899
0.10121354828893
0.103935146673821
0.101895949920751
0.0962072804338727
0.0987678882807891
0.0939691025369575
0.100335883403309
0.0982246296274245
0.092625854078843
0.094214853150304
0.0949157680057306
0.0968921970827619
0.0943429446932141
0.0968703812659082
0.0926539293753676
0.0901257016652301
0.0913013628969615
0.0982681852010305
0.0876825279233659
0.0885803393393137
0.0822004870954405
0.0803384634143125
0.0878512085723977
0.092738761837288
0.0865418613157979
0.0894478155087591
0.0828179026795797
0.0798385307023446
0.0843428241095385
0.0809677657781394
0.0784351403435163
0.0798292579334329
0.0817071680846867
0.0796590855526071
0.084644752394985
0.0793834732615954
0.0760661389554684
0.0786602075364461
0.0754034813752788
0.0825278213731576
0.0863492721816209
0.0752236398801821
0.0796617360930219
0.0806864496337609
0.0744535641057296
0.0820951286601656
0.0755839995009917
0.0774962205590023
0.0844771272375993
0.0831157649213883
0.080574076813955
0.0860999946185502
0.0768860314275416
0.0770419176170703
0.083205847646851
0.0863668670590462
0.0778382046460336
0.0837339863966679
0.0909565054343873
0.0884586941294482
0.0957871975537728
0.0968260228506707
0.0899520763917851
0.093278864050211
0.09305506836109
0.101042032905906
0.101383517063231
0.0992286187441099
0.0944979227357864
0.104479998508066
0.113527952374521
0.113822614305466
0.117764539313299
0.122224466338421
0.126074710750582
0.128923465778689
0.125202381376324
0.124746055932033
0.131788501210972
0.141352738863535
0.1551327296254
0.15358158498871
0.154207075962287
0.160031329893276
0.147544874398699
0.161899332657195
0.16935463550539
0.167554166832246
0.157150490838485
0.164290885728016
0.168184187229023
0.158296230289943
0.149675020102493
0.156854829083713
0.158108254484382
0.151964971066775
0.152956322443086
0.151280121180106
0.135944127160138
0.148811535288047
0.141804471395365
0.149955367854721
0.14684520401293
0.149610531622546
0.144669095884479
0.142818086124159
0.151799721790018
0.136089556812472
0.123346836620635
0.140930821928006
0.139207187067659
0.144144659053194
0.138251499257301
0.129932429037901
0.125961755928173
0.129885158607145
0.120206913079032
0.133684805379714
0.131424809740824
0.122566442323098
0.118916495901194
0.138346853474318
0.137924066997225
0.122443940004908
0.123369681174907
0.141638646370898
0.127266606706232
0.135699197433364
0.131064440225452
0.121382611786386
0.132622754532628
0.149828360869689
0.133229780557635
0.143304637910956
0.126820518880328
0.116712911732987
0.125217150972878
0.140988463735108
0.131113831742159
0.126748706686101
0.141512948641897
0.132307440547688
0.127022146554467
0.127123886086975
0.13685278804108
0.151631354402251
0.131253000348549
0.116757388970421
0.126573299721598
0.158435113849708
0.15132275484707
0.151467106294423
0.129199173959013
0.152765949364175
0.171555940643351
0.16612392921017
0.152513175617555
0.162827971978963
0.174212972590048
0.1573762328465
0.161113956558008
0.190204862343157
0.178603633339969
0.177881447346726
0.181129635508264
0.176412491600185
0.197375584647232
0.188440563537285
0.202481921211475
0.204634483415716
0.176026471884054
0.190461548930036
0.171636028829911
0.186567223023785
0.18182201001143
0.209163434259558
0.203025264285084
0.206628041387075
0.193537814891012
0.192801130684875
0.158049619070607
0.162434653913332
0.202224526373396
0.175817594321492
0.126916140695427
0.203162597765635
0.188018753177267
0.178848677784755
0.172834011762884
0.187473377428641
0.165710663513234
0.207534204895575
0.20878578671853
0.202087659729345
0.148854786266609
0.206925119558201
0.164213002878172
0.173600049600917
0.188560955057057
0.227951858652397
0.22642465944567
0.227501471469685
0.173796467896361
0.197219431656318
0.16873893792801
0.169476473916585
0.185167667454103
0.16807501012897
0.129245856814123
0.247909273687352
0.116570622950896
0.0840250218048382
0.257384442596448
0.215106395104048
0.167457195927517
0.181343551861608
0.145249779525208
0.273637455270831
0.295165314268832
0.244540596387094
0.284716997957501
0.206232974424368
0.144508526184819
0.131854846994741
0.0133481961053872
0.17438730025222
0.118733014445016
0.017289366400982
0.0369972627617121
0.191153766646514
0.410655705082215
