3596
4000.36533379555
650.420452594757
1
2
2
0.0672588982759058
0.0530848733048334
0.0594319443400961
0.0452912652470363
0.0585143945394312
0.0494313535506069
0.05199672832184
0.0456748635779435
0.0679597354709636
0.0467183111712918
0.0599192897122696
0.0526683649811863
0.0587972432605552
0.0540891293424994
0.0622353122946501
0.0541884817915951
0.0657749645704003
0.0411409139543963
0.0633504472590382
0.0520755925007549
0.0659922420107492
0.0425835004787754
0.0616204252660498
0.0430461978701908
0.0619577767146434
0.0415053895786585
0.0602375119333398
0.0512663655352686
0.0636810669678894
0.048795078239697
0.0566378152644394
0.0432862543256337
0.0580642375330424
0.0435236931700185
0.0599064004327313
0.0498215566456579
0.0565769265566936
0.04939145035646
0.0639804701090507
0.0511431247505049
0.0624616606871621
0.0479186703493083
0.0669556934663997
0.0517339416550056
0.0588841887811913
0.0443954414250435
0.0624639919210152
0.0483794470221261
0.0639643852178628
0.0461971449812493
0.0636114115007812
0.056125177777214
0.0549860852218175
0.0425649535702966
0.0613759459257375
0.0404868846339727
0.0530581442538588
0.0467314556107861
0.0630109248437211
0.0497561547224437
0.0680103753582796
0.0473506619948369
0.0566150398193907
0.0485355640388855
0.049374240731412
0.0374171085497128
0.0534490036776366
0.0427678565685955
0.0631676975497378
0.0496072140907286
0.059878177082655
0.0566028843695654
0.0652799570205539
0.0388083134962016
0.0544246779850335
0.0477992342697759
0.0547999395784212
0.0418410362517692
0.0568685522314329
0.0468679118271384
0.0658270501164326
0.0443459103963258
0.0534163794388589
0.0377943218149946
0.0636490557810451
0.0482838604926942
0.0550123999964395
0.0437632027886825
0.0614871746339915
0.0433206029254119
0.0484917214795996
0.0423085130906288
0.0598526742818983
0.0404983920722771
0.0473300484641683
0.0406037360773727
0.045188510365835
0.0459700506428426
0.0566070928576328
0.0433073662584858
0.0603264121545525
0.055209867236398
0.0508410478849838
0.0506246244764022
0.0732431283224107
0.0371700196283851
0.0661371580879627
0.051783386527623
0.0571691721509885
0.0348706429739392
0.0453096093784105
0.0368173678266068
0.0528093361020042
0.0449978787411752
0.0593680573615152
0.0535686764790346
0.0617865054620177
0.0400630120029719
0.0483835102663347
0.0382696716268793
0.0669423275385782
0.0668143203170935
0.054860369469017
0.0417559598241356
0.0535427097927274
0.0382297789379018
0.0658525670234161
0.06665919758248
0.0546343702946662
0.0358523471699183
0.0441934757048778
0.0385298183141172
0.0554849065142782
0.0525025143937785
0.0616093311226446
0.037888480484358
0.0454478415763213
0.0523635880169545
0.0681274770105603
0.0412574798916059
0.0414373634836608
0.0367590123740392
0.0444291917143674
0.0518482520729188
0.056896353684863
0.0346124477038838
0.0538391703593194
0.0458759794105317
0.0415104042057902
0.033554628378758
0.0508426232890902
0.0489517087152252
0.0609901730209173
0.0320559484721098
0.0647434170675572
0.0681566909788148
0.0530879514504336
0.0508910188502025
0.0504381709261386
0.0339142230100978
0.0386835985770434
0.0323386876608649
0.0495700675695272
0.0443210100067395
0.0459228158482474
0.0405383755393694
0.0568309650069118
0.0447354269500228
0.0518525662260071
0.0528151565814342
0.0559642859597083
0.0402494428026766
0.0615561401215733
0.043678525761422
0.0448584333565246
0.0451530983644467
0.0525527497605991
0.0339231794600123
0.045811906211835
0.0496220121765886
0.0467926259760692
0.0388388678031121
0.041709382444673
0.0434539824146878
0.0530612907400354
0.0402880349612364
0.048244181387122
0.0413294290313395
0.0437832130050379
0.0491531354750424
0.0640125066105161
0.057242915965708
0.0480733275903579
0.0326919838466449
0.0337368187974313
0.0525030534771045
0.0627056427148823
0.0299780082561995
0.0454887289587814
0.0335004224877056
0.042651732667729
0.0415695875181027
0.0471639604296791
0.0430075434055938
0.0542876411970195
0.0564685531101959
0.065827765427454
0.0448007400845852
0.0378910022256641
0.0356390740872071
0.0436848156550763
0.0563638470938758
0.0717242885213452
0.0387556930118718
0.0396822658076786
0.0319903484405484
0.0528562038713035
0.051299036236674
0.0416450688195608
0.0416248219509834
0.0426091336750266
0.0405038708819379
0.044296911254472
0.0399345718753478
0.0481420765736233
0.0420510738216346
0.0409593410677203
0.0404496139094226
0.0452770073478941
0.0441866599851513
0.051012528264688
0.0440146618230349
0.0443602119691617
0.0441921477262048
0.0516902295095041
0.048650942321047
0.0471894400020089
0.0403273170031137
0.0471717864646232
0.0447032001245804
0.0463586076337129
0.0432942212799166
0.046393363807823
0.0468886744317233
0.0450321820808082
0.0494898884667458
0.0421122741500269
0.0369900683323777
0.0416506772959046
0.0480342069073001
0.0561126286808444
0.0531841602981212
0.0446747182688559
0.0385194699809456
0.0491424442868661
0.0500561935937222
0.0537937100365167
0.0466836699522839
0.0484202901800455
0.0476003901576043
0.0568983078035413
0.0512217791290419
0.0486558784957944
0.0465781848668826
0.0774146543505431
0.0534013886060806
0.0533674160094403
0.0628347847592348
0.0552633034034501
0.0521577871163239
0.0448839487148583
0.0417754515577744
0.0761135430809744
0.0803961285686853
0.0601351178246843
0.0491897096396283
0.0501266620508258
0.0393195822756359
0.0529607006853608
0.0544876079591646
0.0627428711027785
0.0636500291936248
0.0682494743809277
0.0786435555985689
0.0491832238714512
0.0548806381469615
0.0621951405211469
0.0427443097648293
0.0428206962267082
0.0467672489604297
0.0489005989942333
0.0584651365961392
0.0583331711058652
0.0478846598331319
0.0481907966699375
0.0450820575573439
0.0695603986587544
0.0570671397592862
0.0542075041153909
0.047566531124869
0.0566032203450721
0.0546440278486924
0.0527658862199014
0.0467095558934246
0.058311246237959
0.0569641676550431
0.0586009438534922
0.0804325853671809
0.0703896511978372
0.0510797306447886
0.0681964459924383
0.0581156688101372
0.0552693898798085
0.0462423109990109
0.0522669106526788
0.0520609151938383
0.0574503958983489
0.0537546416960126
0.0717904689820923
0.0636421053706699
0.053562587058633
0.0560889051509949
0.0570972377866704
0.0575794522847338
0.0628665397487488
0.0602616788868844
0.0604389732148331
0.0677987685382637
0.063660916068309
0.0674687636152741
0.0739211892776005
0.0626440103526444
0.0828487285405566
0.079191059520917
0.0640669498314022
0.0645388905168304
0.0587357407334079
0.0650493444422252
0.066811060832422
0.0691557347692595
0.066726052370007
0.0673662303456737
0.0836653034337174
0.0815109207393249
0.0745316420931236
0.0824661589997617
0.0963046845640578
0.112938275875702
0.0883181697562652
0.0800729006573872
0.0725653092680122
0.100254140314917
0.108119181015793
0.0829316311669135
0.104989656372096
0.0831971223553624
0.0818848297169236
0.0832855375933055
0.093501866391479
0.087184613829142
0.0953834388158756
0.0902454403294262
0.0909220415126472
0.0942374176536944
0.0984127609975162
0.0996052136336267
0.103896124318769
0.124810239286483
0.112515304036847
0.0995326892626917
0.105685631067655
0.105842506032539
0.125828631086713
0.131460043165828
0.129905440914748
0.147480267793028
0.127720987264871
0.147874310973699
0.126649788678472
0.120253180718516
0.115481976552622
0.131113943715184
0.132098697274918
0.138628403294868
0.132467644637698
0.134423065965573
0.141088141665047
0.151255786998163
0.143841771844148
0.150050507161191
0.145031941409916
0.16134288630737
0.149158801299257
0.152114827222619
0.152993237252292
0.16289283532393
0.192275620614132
0.203059457598298
0.160069411294968
0.166692661727249
0.173338623834916
0.169112850029877
0.18217000004979
0.180507494747884
0.177307827166871
0.174708157909966
0.19981841581906
0.215451259506635
0.197867476220484
0.19794098559898
0.186257845714532
0.216270829547572
0.223864309454684
0.210541194657322
0.22230166434153
0.217611174526343
0.207904839381371
0.228044267472379
0.233987812356268
0.231892053514228
0.242149276378137
0.231994693001709
0.224150961194108
0.231501103484813
0.23615243359934
0.247218242348892
0.242377560135844
0.259090543377962
0.253597089149416
0.252934116512419
0.256828219079494
0.255174393789219
0.268382239649627
0.286115225880931
0.263988022797953
0.285099123279515
0.279326719934437
0.281615587275006
0.258301938208885
0.309508735242275
0.32001051985968
0.299710203137207
0.327764987928015
0.300033864943386
0.289646718271384
0.307371829645107
0.302493746123388
0.307990749382049
0.319845389334496
0.343081965560925
0.340646275975678
0.351049600120938
0.35400361624238
0.339296646284921
0.339275983908231
0.352540099506048
0.363948258879059
0.360641051333139
0.346591606070102
0.37286611109151
0.360846319335456
0.387929776369751
0.385056546539492
0.391907213272038
0.399109806707894
0.400297658315756
0.37993142175294
0.384043183658155
0.392241847601519
0.399291557070315
0.422189030925478
0.424684689593304
0.403134726039001
0.410636040121858
0.415712382783249
0.428739655208124
0.435416339982555
0.45374929523884
0.450335887821367
0.466109402454655
0.457483000469939
0.46768471888112
0.468639712354606
0.487646675901992
0.473880570209777
0.486221926820095
0.463203487124614
0.50807076235796
0.478446721943321
0.490197896791081
0.501905674388973
0.51597697400184
0.492270073326676
0.51918008749964
0.509893158163049
0.532127247279605
0.515874069391447
0.548614844535701
0.529378128290469
0.561949370214618
0.546669206309608
0.541378591437663
0.553689442594876
0.566122426015252
0.565511637996239
0.601749893231587
0.586827635578857
0.583479653385759
0.583532664214102
0.616160188358321
0.590837377026151
0.617107611963565
0.591905589277678
0.602873484110547
0.595285712368751
0.657239465146136
0.613812219623154
0.662632242036281
0.627046439502411
0.641616324933531
0.613372428431334
0.669634737016694
0.659487315419056
0.696995521340836
0.692044631903424
0.671414064442446
0.670692376720294
0.723397625972106
0.67090367770101
0.721659937394248
0.722586682795306
0.691385226042408
0.638161959563327
0.743060400099521
0.722938429277888
0.729482353411084
0.748335229083862
0.764792033424653
0.711007196069985
0.784929709671619
0.729454506811153
0.795100983233365
0.742849286788354
0.794397611630024
0.774831433049316
0.850206228113931
0.787827511609337
0.804737348057794
0.807620185001837
0.860088431856882
0.771811171448996
0.845385619621971
0.807232859348851
0.84886426858056
0.782681377484368
0.870790339839055
0.798555072125053
0.882385572398602
0.813735828786514
0.914454535065567
0.863165443030477
0.884579987203729
0.843423243405325
0.905554914640067
0.870684708802997
0.898409002337482
0.868383603544214
0.920953743933257
0.857232316871196
0.906096850083734
0.870277958747987
0.935191084308165
0.967781151111093
0.994506360782672
0.865931906780674
1.04699380406826
0.883500870987434
0.937696194554212
0.901369388260537
0.993216571603964
0.904482148781557
1.00999906606215
0.994788997858962
1.0503716101759
0.918408803992364
1.07608598277018
1.04379781278528
1.0120822810922
0.967382471402771
0.987128072712094
1.05033404703361
1.12716790021795
1.03374471335982
1.03780525034418
0.965060673388657
1.08788788303949
0.998541347207458
1.1768540637779
0.949067903864375
1.09460449205891
1.00951378565352
1.13319564282303
0.977039429465096
1.17290908103119
1.06208722645944
1.10285045888633
1.07491116603466
1.19078054519665
0.996528635401054
1.23650465328284
1.11140519432962
1.11544097345698
1.06029509005283
1.27603609554244
1.13279641634661
1.20574873170958
1.09940033537321
1.16483601066461
1.14997998194933
1.18534142686241
1.07715043299382
1.26908030595986
1.22674573668487
1.20030619178414
1.11650814581253
1.2062155900664
1.1557293924258
1.25621636937094
1.16597835936932
1.22099577709167
1.13324676420895
1.31478001598577
1.18431765958734
1.1790772062429
1.2070228654446
1.31104366918955
1.17902704054822
1.27786468272221
1.17013576976954
1.31650010425706
1.21975550338546
1.1899960572983
1.20287693186869
1.39167748023857
1.21441228787494
1.51202457638946
1.2671403379861
1.41747627162474
1.23029120953478
1.37378352432381
1.18087973338153
1.22972305984538
1.24974671989305
1.56059492722401
1.18765918805996
1.37413656268787
1.19536936318094
1.47159724814797
1.33448193118908
1.4096036391358
1.31788660324892
1.48021597524046
1.294442412831
1.44383119061165
1.2626618000225
1.51881613273299
1.30234174547855
1.36087903026269
1.27716628416968
1.28430927317639
1.40219133947953
1.42101067445386
1.33565658411823
1.40058393667224
1.32530245301889
1.43979242830373
1.38466921841113
1.44776412271759
1.34148678017079
1.44090369628838
1.31788401679416
1.53090182943644
1.34078489814376
1.39685350395385
1.38781780752295
1.54887072063603
1.27125000848861
1.56761348390675
1.300017019831
1.38335751759695
1.31623470505717
1.54760923971386
1.2954389350348
1.47355604300168
1.33859555685626
1.53860300571018
1.41433344637593
1.45840221556522
1.39137148788673
1.61033388423877
1.32481228458856
1.42524899942976
1.27549595090686
1.38983936228255
1.41508555643545
1.52018540857966
1.29196907365561
1.46735411990679
1.48369263992668
1.44312951163936
1.40818377649565
1.87917126762678
1.38177406066889
1.57969948236449
1.5113508647437
1.45143117032041
1.38377176174922
1.47782194713131
1.30830800236048
1.77349199133021
1.24990515317136
1.49362136361021
1.43112994446473
1.55312189579145
1.34888917384643
1.48580288708164
1.55935245151134
1.68553149604764
1.39308673708571
1.47996738974727
1.31210347318714
1.46817785522307
1.49129258445916
1.41209720799776
1.41304148725849
1.48909054996227
1.41933843523125
1.49359328728708
1.36402064638389
1.5417276954188
1.4143234711623
1.52021321571145
1.40632793382842
1.50256010036849
1.36497726273369
1.45281724985774
1.39249333744889
1.56738798419359
1.39239767658381
1.52037458390145
1.33803382368808
1.60285530326311
1.35105511521297
1.44764973889233
1.4606635435124
1.53044135195944
1.45850833641668
1.48931734276297
1.50208301466266
1.38918469283261
1.43705071183144
1.46840048310672
1.47097815284796
1.67814227002106
1.48002451394796
1.59168920746582
1.34058192481297
1.63064386139042
1.42042174895748
1.54560329962384
1.34666518099263
1.45071939111284
1.41106435315828
1.73567093553578
1.38842598610671
1.60346850741233
1.38846947742884
1.57302239415726
1.48487383691788
1.54547356827485
1.37712955840163
1.56218716501537
1.40867315203372
1.48082519374479
1.43761431270636
1.47734575871834
1.45222980328142
1.46691207639056
1.32024459825311
1.45267267726226
1.32415231594676
1.42961061210946
1.34130070987735
1.39124650527851
1.521872287808
1.51556699126737
1.45994886873317
1.55100168830849
1.51936525561073
1.46138148676464
1.36480208152002
1.40116193347121
1.50933457759728
1.43759493203869
1.36491130594661
1.57751538789201
1.33602302767881
1.60959230454543
1.35376596287756
1.42131207711926
1.3939679500569
1.42031047357329
1.31647196540679
1.50276206743568
1.30432877638771
1.41475559212105
1.41813544443488
1.42333778592764
1.36387279297546
1.34538652003993
1.36108089238864
1.51609274920827
1.38218233672447
1.38691779693498
1.31349507839004
1.40342263658447
1.32992077839607
1.47936344260401
1.36062608733045
1.41479151076569
1.31426910724178
1.38906137994571
1.35241402645337
1.36013356760108
1.27611135578762
1.37497314361173
1.29659469118902
1.35921882675191
1.25050034125685
1.33104275691237
1.33063560547121
1.35895739066233
1.30327876366115
1.36028010158378
1.30300645671647
1.35003450367224
1.30464968016781
1.29478071216087
1.2143749876558
1.32891191841212
1.27442927150603
1.28776251850546
1.20374991748469
1.33235587055665
1.30272879125654
1.34284527718733
1.23463739973857
1.27219564015314
1.24056871603023
1.33527647388702
1.27041440662712
1.25652686854152
1.17029931854214
1.24744805586591
1.19913018102419
1.26310465565881
1.19228553174418
1.21256519290412
1.19897666454328
1.20329829330002
1.19247426516801
1.23835660965693
1.16135435712502
1.20285741828254
1.17223682175419
1.23787031483294
1.16992006447583
1.19930787844559
1.21729309881585
1.22604546823063
1.13599358708653
1.14163172257126
1.14039438905251
1.19217787043922
1.14797161516666
1.19311689092714
1.17321609266032
1.11520127785516
1.1452611982608
1.2430894252335
1.13972129016401
1.19266668053983
1.04341931273746
1.13998576307649
1.1006487863368
1.09286511765502
1.06270639856017
1.1337628675351
1.06865408731171
1.06236025279537
1.02743526181077
1.08569336136865
1.07566416260578
1.07368773090947
1.04386999632204
1.08271104636623
1.02434701524816
1.07398702391297
1.01233426020945
1.05071444747615
0.971546276102011
1.02643344154736
0.97952564835872
1.0114592425565
0.990145843197296
1.02484798886975
0.977786868565741
1.01492688211642
0.957722150666822
1.03212908834026
0.975774934762291
1.01850279354652
0.926341561759696
0.993954858749296
0.95175491998096
0.991699137847323
0.92069535516047
0.992411110698778
0.934690256413612
0.941014660057223
0.959702115923776
0.925112057699388
0.887177136020775
0.927380956988938
0.917193490259737
0.917183393346907
0.909772159819758
0.909718854142392
0.858517851336761
0.914835424931082
0.860926810137248
0.903561504382735
0.846733675995012
0.927656816013483
0.841945499016265
0.893111648102486
0.839879836958114
0.866686451551103
0.833763023765464
0.877066150442818
0.82122025844086
0.853654959481672
0.833528874375694
0.834925760036541
0.825549517089153
0.849190086296281
0.817029386167928
0.846422259349092
0.80318332499688
0.841528073373247
0.780514997023515
0.797695301695751
0.779393155842839
0.80685658595625
0.774388355756574
0.809186258384399
0.75890810997389
0.791815778962673
0.777502073722621
0.790944027401217
0.753298882711705
0.7818442610765
0.748852512019411
0.773989298772564
0.718974633195652
0.764369665598006
0.729365233150227
0.747362037089492
0.717861835687144
0.757836887980217
0.715926571577493
0.752440359281561
0.706519628388598
0.711763684733877
0.714012548212488
0.718015700087971
0.697827837162735
0.716024220701163
0.713430115234113
0.709330152813949
0.69744985215884
0.694863300051936
0.690520919501479
0.706757864785831
0.680224789415589
0.686335174697659
0.672893565481149
0.676451112096524
0.658692198173623
0.683476271111925
0.651346910401825
0.656282718440082
0.649522212197914
0.649389447600738
0.637643730860983
0.650816834374158
0.626238952857037
0.665360366063073
0.641025617453714
0.633227254520025
0.619836365633577
0.643390621055576
0.632937256402242
0.633790979274675
0.615753208841593
0.616349997078789
0.606461792764629
0.615649088743648
0.602319360469294
0.616927703696856
0.60753994648373
0.606362928414431
0.592535210995399
0.584236238044848
0.577936333248944
0.590790439988905
0.573677752032449
0.594529023115459
0.567940977974751
0.585447945302143
0.561122010089448
0.575321758290047
0.558669076303242
0.563335756579191
0.556443190027158
0.571941943654548
0.553995822690081
0.572655606830624
0.541546530240244
0.55972384213381
0.542567125137025
0.555658244308058
0.537953672300501
0.543563306489585
0.528832696153992
0.541808558734288
0.540429617261314
0.532875514683905
0.510710263464308
0.536065429183656
0.514336613878563
0.519923707705103
0.514167194334113
0.519979860959706
0.50719062395263
0.523184368953044
0.508061548770058
0.516307457805612
0.487874201510891
0.516634697053792
0.502108207718647
0.513176570521304
0.500411295579292
0.504145695191424
0.487543859504142
0.499125612389099
0.480559600181887
0.503056543139904
0.475862534220012
0.496666961218626
0.485851048352419
0.499379075492616
0.474556312315216
0.481200242744237
0.47384373956643
0.497619323074843
0.47852516684249
0.486644523710794
0.464782053589591
0.496852533042625
0.480024506788064
0.475650105127353
0.483776581685581
0.496085098247026
0.482898596175886
0.49482689448151
0.48048407475235
0.490634215190802
0.475473256487131
0.490216141640996
0.473548616242752
0.492787857710262
0.486454111607645
0.493231388342464
0.497214947749605
0.500955304983358
0.494699693692158
0.509102605155819
0.480297490829408
0.496694339090977
0.495343600865172
0.513464480668369
0.509220190351284
0.516963550116901
0.502276318882315
0.516887233478209
0.509220763295868
0.521318082230056
0.512102532150892
0.512628568461761
0.510111228464683
0.518612147462511
0.518995625092318
0.524219545430544
0.521177374646839
0.530693671378112
0.524154990930137
0.542844833057593
0.534892539229524
0.540841264704176
0.543385612978577
0.536250498127222
0.539422728067909
0.560158189367346
0.548521512502056
0.569149389971311
0.555510289741968
0.564395378864295
0.559802063348892
0.580448553700824
0.567864162705574
0.580685962307474
0.567280581796698
0.592412544249561
0.586345571849187
0.5971047424897
0.598702277454248
0.615288987192207
0.60550446491538
0.620546294184338
0.594306988730151
0.611595616620851
0.617835046916213
0.629501918348807
0.59816868483109
0.62382770863829
0.612073220494153
0.637261577983736
0.620395520375805
0.652027532295416
0.6337333706124
0.652301054668143
0.641491146883597
0.636881586189158
0.631993753895411
0.647412546838649
0.630087379201221
0.649188267197622
0.641319096779892
0.637894038994958
0.62508485335339
0.644130932503535
0.619260494587969
0.627874527758716
0.612538680839815
0.631852251790676
0.611949948228829
0.642372268731821
0.628917642214607
0.646445913416998
0.628246059175172
0.636816423892679
0.632157148693327
0.62992535338248
0.61960077813791
0.62818181006033
0.632822097048739
0.635402612819975
0.623748092566355
0.639715479664106
0.625250744513922
0.634762632371117
0.630878814780921
0.649412721612633
0.634053075414019
0.640809669535648
0.628811700577783
0.647158972324479
0.625108698585981
0.648741476904462
0.632153520428673
0.657319891507142
0.63593081110393
0.63300258710526
0.63152587517576
0.636981875704031
0.642245169058918
0.6414557261822
0.627023523966044
0.639279045782587
0.631540507664588
0.638592831384371
0.614803029505193
0.628920666207189
0.625739726392633
0.623889393801592
0.624112103813822
0.639221586570762
0.611277229833907
0.623880086936618
0.615130273559815
0.621158657182205
0.602084189763848
0.606399376490029
0.59681951009275
0.607602027454435
0.595226652917224
0.600846477335422
0.584329035746649
0.600159865444156
0.577222460537138
0.580201359720865
0.569627993464587
0.568438560667793
0.559689033897134
0.576696724589634
0.559598202225802
0.554261779587124
0.555549956339312
0.558524067625417
0.524608179994681
0.543470260215072
0.535394699965883
0.541343004765716
0.518276538254905
0.527012972667878
0.511836134531227
0.515414765481673
0.514175010051738
0.515568275513529
0.500459091276744
0.513931081645981
0.498768621245064
0.501739010172142
0.49097812392375
0.498204256584698
0.486187370661925
0.490713336577717
0.481447864702653
0.486686529902228
0.476162875871212
0.480231441538345
0.472762868886872
0.47405044354307
0.473767845163854
0.470042018333858
0.462635595736596
0.461339407647097
0.46079516116025
0.458875689034134
0.447084528090672
0.463606092226797
0.447302885724313
0.452590830343049
0.444081420225339
0.448891790247268
0.435004006092189
0.444027202930264
0.441900635736257
0.443987464732718
0.434138882057298
0.436009267695375
0.434421242643247
0.438208424341889
0.420660360442085
0.423934578440529
0.417309168333003
0.429799771642232
0.413464978860081
0.427515101394012
0.416989828998037
0.419472499591434
0.41572977076355
0.419607741877078
0.412581931492709
0.41629301201269
0.406928561107486
0.408469752912896
0.406508121591637
0.413387962640261
0.407456078729379
0.408386879902713
0.401603264931256
0.405825975551594
0.397263228107972
0.402894584732027
0.396693696916919
0.395648309310378
0.398276845863748
0.396057501597189
0.39395395176857
0.39211880120244
0.387427942212872
0.390927826053241
0.382187229110304
0.389735731527365
0.392740265252444
0.391920505075374
0.37706851582703
0.385531732429332
0.376882448403164
0.386477267812873
0.382086685638414
0.379143032072585
0.378014741111113
0.383654222795777
0.38118117838184
0.380629563069256
0.371050243569045
0.374762098081119
0.373209704126076
0.368971415507923
0.36847310142037
0.374651327571419
0.364201027849829
0.373177251960585
0.363065829717832
0.363053552396307
0.361162380539102
0.362294547634309
0.361744601015561
0.363114215127134
0.357628662687121
0.36593725811367
0.358899453822408
0.363453441206782
0.35731934437114
0.357173762382325
0.354544792453657
0.357389809921195
0.355379952080816
0.36404393556002
0.35114054396145
0.361357326268095
0.35304535458004
0.35418746292402
0.352879139998401
0.361607242155731
0.350127147481281
0.359760035537557
0.354497182023438
0.356966638205132
0.343554821086792
0.352180957284932
0.353404446656604
0.351703023071361
0.354141524957783
0.35070991209858
0.340826120692061
0.347561405122006
0.346138052965301
0.355699348745616
0.346767379634153
0.343358825614443
0.345236909301545
0.350269735341663
0.34825349206505
0.346625567016144
0.349017717222973
0.350630369478699
0.344063129731193
0.341475362455607
0.335492719874742
0.345072966270538
0.337519408928677
0.340642800082966
0.337953943068945
0.338085522628537
0.335471730839694
0.34211732559077
0.334676005261451
0.341736970970436
0.33488605854526
0.336581053046113
0.33591281217946
0.338538728982092
0.335403864576956
0.334848288277123
0.326791791405244
0.331875376727561
0.332516296073671
0.334089646622455
0.33017902449879
0.333729264536006
0.326318504050011
0.331775735028789
0.326259036061147
0.324576609369439
0.326268016561755
0.324456043085872
0.318916092735865
0.328326511604962
0.323954676113052
0.325431610566011
0.319647178311465
0.320389340866564
0.322187499652372
0.316661396760176
0.320168344031877
0.324758790941368
0.31747664084539
0.315655949682912
0.321573141956312
0.322245100965363
0.312322198171548
0.316209517408123
0.313896881053416
0.314243455171907
0.312354437074213
0.314777567516359
0.309182471573506
0.307346578488643
0.312467793218899
0.312629914186984
0.30850120319485
0.30975488020257
0.305711509824075
0.305916932965419
0.301066743936038
0.304407892891943
0.303224453252897
0.301907173039613
0.295269720783442
0.30219473996909
0.302927153695052
0.301008962919154
0.298767433263724
0.297490646187166
0.297001502545182
0.296093085372135
0.296971067828767
0.297136263609775
0.285973882409394
0.28781181804769
0.290763349753059
0.28894727139527
0.290593616776729
0.291745792007784
0.283361468752713
0.284101784203527
0.285393706750312
0.281041296308052
0.27859394742988
0.28072315932888
0.277747380824662
0.282220576931949
0.278013913465384
0.280224277514332
0.279680852967668
0.278216386481543
0.278682436194899
0.279924926126826
0.272937661020591
0.269928763973953
0.275591265318532
0.278738333098794
0.268308452669974
0.27079439554933
0.270822146441886
0.269678620432582
0.267704724850062
0.267361589979044
0.266429511031617
0.265811219810708
0.266888576946395
0.267163000951789
0.265031378234427
0.262834662331797
0.259592009555285
0.259405498061004
0.262647669375213
0.260227369668843
0.253493231262151
0.25896700854341
0.261088615067363
0.258868328872466
0.252553789828788
0.255172052802113
0.255812345652111
0.256015330474767
0.253269724025602
0.253587007840927
0.252318701800696
0.253362952530242
0.251534218781736
0.252477543578711
0.248846695049512
0.251281622541332
0.245923850512781
0.24650826258024
0.248619864822148
0.247346853119337
0.244008005426235
0.243154253480305
0.247573210458848
0.246978915402339
0.244687395838619
0.243054337268785
0.242683766440842
0.238599287742276
0.239285798060234
0.238660248856943
0.240271769100348
0.239040481183497
0.238498962995329
0.234986501345942
0.234121555148134
0.234875862563063
0.233109273814227
0.234885839656961
0.232058840443695
0.238752736739346
0.235416014815562
0.234690066580798
0.235224595552148
0.23442695378094
0.231897622374199
0.230930747237547
0.231150692876113
0.232969035714764
0.234474891963959
0.233343608663119
0.229107617782271
0.227389785052537
0.226842151949032
0.222094859108128
0.230516852876216
0.226524521438098
0.22956203883447
0.229003921293994
0.227981195489192
0.227365277807953
0.225786365538495
0.225094791509357
0.223243554059926
0.225450041869364
0.223256135064385
0.223107514229211
0.224583226900635
0.220489776629343
0.220212175444533
0.223869970963023
0.222558045738917
0.22387389751083
0.222730090688056
0.222813803866478
0.217076704304884
0.221209243537109
0.223512949260281
0.21802368098812
0.221521719444352
0.224642145687323
0.21839765995648
0.215846535757765
0.217121596703524
0.21623925991101
0.213457240274624
0.218042493688829
0.218554011352856
0.214098661791978
0.218220870894408
0.216325768678165
0.212102858605036
0.215953964516609
0.21673741994419
0.21193594168493
0.212478329731769
0.210937223166111
0.211243844770838
0.209913287781824
0.21215681202266
0.214596348656955
0.209279324737833
0.203114359356907
0.212710545389423
0.204451983615923
0.205671776725329
0.207789740636854
0.208897077692058
0.205105802722981
0.204803835963077
0.205652132153669
0.209517160884663
0.207066586979737
0.204602767381001
0.204073236078104
0.208616471329306
0.20846606764959
0.205275640757492
0.203240173515134
0.20446721940506
0.203537015089914
0.203260581049623
0.202261471988363
0.202467365154123
0.201698862247308
0.201576174199433
0.202310866376714
0.20030816974893
0.197965107127632
0.202156357591476
0.202077417978746
0.204045461053142
0.199970861257968
0.195671794711526
0.19383313858109
0.198643667780539
0.197822118955051
0.199927211390913
0.196433867390526
0.193532923877933
0.194621877532891
0.197490939019436
0.193396955582145
0.194769849244713
0.190585308102148
0.193016174601909
0.191154509739368
0.194086766907642
0.190584701116539
0.191855284024483
0.192078769463236
0.19685421355347
0.189167650657986
0.188176949997538
0.189392121901067
0.187961910288714
0.188182660841706
0.187956325019028
0.183955237686682
0.187239286658982
0.187018670397574
0.185485676387648
0.183591531544675
0.184161118338719
0.18104435510438
0.182469746751088
0.182536666884746
0.18192140285743
0.178850238005077
0.180214587462234
0.176999079467382
0.181098256608194
0.178597932709372
0.180327058882489
0.173453092457333
0.176297427702569
0.176311512202052
0.176106812550653
0.174666420062839
0.174673365673434
0.174963835015115
0.176702871164807
0.175899986395216
0.174974148630858
0.17330318435076
0.17205933184591
0.16999167622307
0.170147369011866
0.168359187241407
0.172046758465832
0.168710590428802
0.166040083283683
0.168841613623736
0.170444828273455
0.163738799567506
0.167619551458662
0.162479062320084
0.165497371585971
0.164263760973815
0.164080350097469
0.162261208954962
0.166529839158278
0.163803597302832
0.161941292981751
0.160770510582752
0.165281352149625
0.16186576992621
0.161667323629011
0.158111133892155
0.161270676776679
0.160867926491424
0.158223089060947
0.156015548564886
0.156544436418018
0.155060207931671
0.158873343677242
0.155892517554793
0.157209147002035
0.154367858869435
0.158220682247682
0.156944699356972
0.154639208893326
0.152799855398593
0.156812793579164
0.152912681488879
0.153944298004569
0.14992714557631
0.151158391360696
0.15133931727034
0.151089765398158
0.147286512286578
0.148512532466007
0.148425420525478
0.150578743283113
0.148538240368279
0.150803535599111
0.144776798319698
0.150406253416534
0.146124527025882
0.146770907215172
0.145008333500702
0.147514298147206
0.14466664293703
0.146050115811136
0.142357087195519
0.147635796578049
0.141782514843527
0.144813704188346
0.142003414303301
0.148940905417032
0.145059331227283
0.145598234634725
0.142491784172898
0.144415817229682
0.140018619354028
0.145900294396286
0.141360310718803
0.146029121426236
0.142479339759553
0.144381436824774
0.13869140953763
0.144394730198384
0.13878980740543
0.145112533936214
0.14029865290966
0.142913572027773
0.137203283622341
0.147841690226361
0.138231376561061
0.136406747250491
0.128325703440448
0.140736085819095
0.132788932339594
0.140760138862198
0.132488259041741
0.14333104017659
0.140222569323276
0.138140145901432
0.132472555899413
0.141863051017663
0.126706534622781
0.147406743182297
0.130649141731184
0.128901113528831
0.133606773666926
0.133381468063988
0.130623088607443
0.135759745523905
0.122237754609383
0.136847575034005
0.127142568984738
0.134038935605975
0.124622063079595
0.137019559307386
0.119566727188415
0.134793624805948
0.121626308113622
0.128136524217791
0.124935303153908
0.129022724256637
0.126294402622785
0.130019242954306
0.124436759140083
0.134033852720087
0.130102085482661
0.131953683628194
0.130321757148331
0.123969853063899
0.122900422966133
0.121709494996238
0.13431138766016
0.130253930658011
0.143541184433649
0.115549233931672
0.135472397226857
0.110722466905592
0.154761972272304
0.104416182195249
0.152682383729547
0.0983675999310085
0.165465635003939
0.0974385846411442
0.155911975221698
0.0941063211123083
0.161517384602223
0.0991867998117538
0.148826471053651
0.108211551636734
0.146391102367801
0.112543619460066
0.129574711712739
0.124222630888884
0.122662196824627
0.132724581384718
0.12106287998818
0.13138058642975
0.123326361311826
0.127582141118183
0.123289730542527
0.124682912261604
0.126378324550228
0.117525553375586
0.128373077599024
0.117684151874269
0.125167753244824
0.12043220301938
0.123675621997514
0.121965417607465
0.121441839789302
0.122632431308969
0.121058545320354
0.124068198032342
0.122549186464229
0.123932940976313
0.124751271075635
0.122004317455764
0.124021836142358
0.122958074318089
0.122986306084193
0.122991782224199
0.122476929219019
0.122573059416104
0.12282945882636
0.123634418271636
0.12217354877532
0.123821926818027
0.125016602647602
0.121864814569551
0.119587131854736
0.122983353122886
0.122107220377925
0.122975590707326
0.120582826031764
0.121216816772502
0.123157744228947
0.124398488661481
0.124046706375632
0.122455284200674
0.123012619934267
0.120663054422935
0.123480176900196
0.12102421524859
0.120452540957828
0.118401640920457
0.122044259196255
0.12228670417112
0.121329035509678
0.120931281031718
0.12359356665642
0.122844636761781
0.121769055276171
0.1219451992483
0.119376553581308
0.12337650280202
0.122112161001361
0.123507449155195
0.11980525601493
0.118758490856636
0.119175487511428
0.119287979388779
0.120893315854463
0.122897693061116
0.122834250369839
0.124099243019432
0.122038289464675
0.122082786931955
0.117785308071782
0.123274544581742
0.122836162162044
0.1212794544799
0.117675077975442
0.123381385945585
0.121609059146253
0.121605333496038
0.123748330940055
0.122762217972509
0.119780977292542
0.123768706778853
0.12168514516627
0.121082925071619
0.121288629800413
0.122236798890641
0.120405244064326
0.125317350061446
0.120349651937575
0.123569493310603
0.121617464704377
0.12244772555937
0.119833456793192
0.122131103886591
0.122010618586061
0.12179671050373
0.12301709330974
0.12492479540938
0.122639572296475
0.123834556294372
0.12270747883483
0.123731372006222
0.121814766872575
0.121991726980377
0.121632078653194
0.123713749709484
0.12235295036511
0.123401452749438
0.124681761719175
0.123685203682835
0.124292103608763
0.125624053023934
0.12303361525174
0.126909652670747
0.125186387539795
0.124597363529039
0.122616638430831
0.125108601997605
0.124240320328193
0.126319244225101
0.12265376856541
0.122119801540312
0.123816076436276
0.1245156442195
0.124085310901233
0.12426818813274
0.125419402201992
0.126976419636116
0.123782992230719
0.12367277419829
0.123449688877908
0.129132363304813
0.12647069040931
0.125490384684947
0.124095513056555
0.125966452156738
0.128081304284362
0.123263369629161
0.124392987150106
0.127897025689104
0.123284777537417
0.125470410670721
0.12639278195489
0.128185142303948
0.12499910756506
0.127117126812537
0.127573098928275
0.131171208539928
0.124499966805546
0.129665838432156
0.128713628530858
0.127663176965095
0.128269090477487
0.130406824618234
0.128498868208313
0.130414110825433
0.131671146939134
0.128511194760909
0.127399577841215
0.131084712989531
0.126132951287978
0.129040763365342
0.126402175868598
0.12880408019683
0.128402906000269
0.132798808450901
0.127381963877485
0.130314776463589
0.129656081090873
0.129052338406045
0.127828066193874
0.129370741825762
0.12787915287186
0.130190165603639
0.12804729383289
0.127507402948718
0.125416066342472
0.127134560122712
0.12626497916616
0.128823908037982
0.125508102498423
0.13011638668434
0.126850509473347
0.129124843972896
0.122151193888936
0.127522586329616
0.124582242412639
0.126532271259376
0.123406175969361
0.123040790120667
0.124760908165345
0.126785489614841
0.124381678153544
0.125837563579466
0.122601846608553
0.124805960381651
0.122002605332701
0.124772518372983
0.122447210486189
0.124404766593736
0.122255447536025
0.126526690853755
0.12139097228899
0.123340625267051
0.121294873948373
0.12231568619378
0.121392270973681
0.123215775199415
0.122026205968441
0.122294854272416
0.120585371275886
0.119562407461373
0.117740780715167
0.120735398594541
0.118220870513543
0.122601707853511
0.119320046475637
0.121144469835188
0.117795686604056
0.12121676879909
0.119611328163357
0.12151244641536
0.11812146704073
0.11973253540776
0.116167520548246
0.119988181187968
0.117063405435049
0.117544855958907
0.117030082987687
0.121840878744874
0.115645251216802
0.119319319014116
0.119784040339302
0.118850290370233
0.116178496180747
0.119939143000559
0.117302677422818
0.115091314011673
0.114529538725097
0.117324007033065
0.115904763455862
0.119006720637398
0.115048607212646
0.119673499401509
0.115488202652238
0.116645146425128
0.112659923276276
0.116152222023762
0.114901645420452
0.117724603055447
0.113828195381239
0.11658172591272
0.114012330134799
0.114027362379334
0.1143316349277
0.117246592793619
0.114616930947309
0.118348668918655
0.113087847689095
0.119199052220373
0.113324855198619
0.114759596761283
0.114013068922832
0.115926165139445
0.114077147483539
0.112874368928255
0.112028177129583
0.115365637087787
0.111436818345779
0.115732822158672
0.11241170579304
0.114965108071693
0.111366097705629
0.113027382474309
0.108612087547833
0.112146778411518
0.109467600519187
0.112723545010385
0.108907540171349
0.113927200397852
0.108868183954265
0.109630725088863
0.111143498733627
0.109502955363573
0.110423742663311
0.113509648079129
0.107792586710404
0.110332553034503
0.109710882596823
0.112125792011056
0.10689927791967
0.108829343305733
0.109144348367503
0.107165388459333
0.10507901637927
0.106026696432592
0.103324140349496
0.103293805657706
0.104996021323472
0.107916046629185
0.104926881243337
0.107657299750334
0.101355576663434
0.105591055132889
0.101576510757342
0.103915975768684
0.0990766905857658
0.104567953119096
0.100328379877544
0.103356576971218
0.0998443913531161
0.107143899462398
0.0975157340232284
0.102199373404719
0.0980425161163091
0.101427426225931
0.0957875083497655
0.0979982927977124
0.0935619729548513
0.0967424931381852
0.0992221016595728
0.0988499263884301
0.0941241407904129
0.0973755833361426
0.0925840199423541
0.0966612593836112
0.0949986278379542
0.0957822109009532
0.0952144826448555
0.0948946032180957
0.0921926206029449
0.0930000326546759
0.0911129192583378
0.0967064891310971
0.0918902823760486
0.095101937588527
0.0918891143010107
0.0950551755585621
0.0964956334916488
0.0959119328064751
0.0936502787591468
0.0911176071806271
0.091565937003913
0.0869331658710241
0.0894699515211649
0.0900731948908404
0.0885065431522824
0.0890954938662082
0.0903575196403761
0.090593368786118
0.0890505802375164
0.0899763482108739
0.086971940785463
0.0890038887610568
0.0839898960228678
0.0879141777989811
0.0886832688859476
0.0896703162395552
0.0857431984579153
0.0879322168890501
0.0880900881784428
0.0883659127403224
0.0890268082961153
0.085363767132731
0.0916130830825024
0.0878464201199283
0.0862361015506168
0.0850914742862329
0.0841377464841413
0.0878746746898911
0.0844824145886568
0.0869808573667432
0.0846996710782241
0.0864743252421338
0.0821358878491192
0.0850255608548529
0.0845238849380204
0.0877969645105398
0.0822087573753199
0.0850803117129589
0.0853759212660502
0.0821208576556371
0.0804768309670055
0.083847414973205
0.0816364212343242
0.0846484443632815
0.083337401895073
0.0851763449392673
0.0809274573194582
0.0824054289081893
0.0822211665835511
0.0993138157318465
0.0776532904827934
0.0871792483572743
0.0797751488316802
0.0835925096372719
0.079033472129435
0.0837683735613916
0.0754924237044341
0.0812542178958038
0.0774683088263571
0.0830509501758913
0.0769110474079439
0.084183330086767
0.0809223870546491
0.0817214985696651
0.076889752157675
0.0824049652076053
0.0778198010752476
0.080220088928122
0.0777631898515683
0.0849481399911344
0.0854165000634456
0.0873520602367917
0.0773199789070505
0.0824245603754858
0.0722651637680961
0.0976328534672705
0.079513071402371
0.0783484252662527
0.0777995163941581
0.0780867036490193
0.0803373186774291
0.0773188852636174
0.0804255062123319
0.079154740534221
0.085717705392444
0.0748214637189616
0.0811866323315878
0.0766087497182275
0.0794929711231182
0.0795421822125631
0.0776306223841909
0.0772160946116654
0.0783611775749967
0.0796222502309327
0.0766969674712485
0.078671469832308
0.0769361347895663
0.0794120273592454
0.0758620300602889
0.0810921834369633
0.0831041769249703
0.0761350896970692
0.0801666058710263
0.0771552045539256
0.0803597592425246
0.084112516140313
0.0964185302702309
0.0697567710136665
0.08084077522057
0.0753986120427491
0.0760550713905273
0.0770470992769003
0.0769896662592292
0.0755125865612207
0.0755148531542293
0.0779673143417295
0.0787140901650377
0.0793402482329005
0.0762707087716244
0.0792740963929964
0.0745270853146252
0.0783371330795391
0.0754995202386267
0.0796773070893471
0.0739372190030693
0.0807235617234402
0.0743461768412933
0.0870826256617011
0.0912920246661329
0.072724165732694
0.086401090588983
0.0759167825628406
0.0809559215826837
0.0738933381383224
0.0810632478051748
0.0763782269136611
0.0815474908396465
0.0744526986122745
0.079211296520404
0.0734534789555357
0.0781810744462868
0.0733304869367223
0.082191093512923
0.0729185850730412
0.079441436610006
0.0741254949097321
0.0814060028271075
0.0707594057739903
0.079210551394081
0.0752145303342462
0.0818014491041313
0.0766748283194539
0.0841079406313262
0.0824171029392809
0.084653729715295
0.0933331133025733
0.0709052043963397
0.0921687605221516
0.0694255651357929
0.0862206063603787
0.0769748089974007
0.0819657807417714
0.0822537153212688
0.0803686248665615
0.0751854705986891
0.0823714274745458
0.0783257097072464
0.0811885389968285
0.079455849713373
0.0886146610417196
0.0971484573727343
0.0847739067889692
0.0775783752964808
0.085859633089846
0.0740381192349545
0.102012379564833
0.0775010838296404
0.0839454054622063
0.0800515999683257
0.0799113767991701
0.0832733936808388
0.0812604168256667
0.0845352560779063
0.0854693756738614
0.0826269975338322
0.0791959140657757
0.0848085933069938
0.0787781207475433
0.0834693270339608
0.0846070092569955
0.0837378229353714
0.0888791710076366
0.0819115120331735
0.0867943849064757
0.0897868461969892
0.0824680685906898
0.0852635901351113
0.0832970674902295
0.0916623632860854
0.0869319826726444
0.0937371703186247
0.085993888415392
0.0926649361053502
0.0935231188872028
0.0860399455385971
0.0924609460007457
0.0947733431204697
0.0851208073778454
0.0980920517205536
0.0778355549864471
0.116394298753486
0.0775801505425504
0.108246327752938
0.081131966862118
0.095358549630399
0.0828787803867989
0.097189260832261
0.0872837499169554
0.0930774238756031
0.0939488058849889
0.0839407303578995
0.101581552263203
0.0862192231359343
0.106697471498841
0.0888292282027847
0.0981196837382021
0.0900998695321091
0.0993755390928356
0.0898561155389999
0.104756511749219
0.0907406271390367
0.132800975191462
0.100265655375545
0.091017148726327
0.107141526313071
0.0986229899011247
0.114723208593649
0.0999239640547639
0.0964522534263549
0.103605204435462
0.0938220963233699
0.111698817855103
0.097211605436857
0.122578824636198
0.103848636112177
0.098120890394191
0.111556131536607
0.105753023188428
0.1178875222164
0.116143987152347
0.105211161001041
0.109460636343584
0.107494900270439
0.121410630765284
0.108555924221685
0.14467311002859
0.101863750040688
0.149227602834783
0.106704395226176
0.135273230433001
0.112041647292859
0.13063597204011
0.117823730979642
0.13924928681574
0.118790306446177
0.137052286907963
0.11741262804249
0.151378374886337
0.123304324953115
0.137254063448861
0.133920556849614
0.142868280976246
0.152077104517434
0.171214559731702
0.133472275762912
0.150612414850153
0.14553019459276
0.159399805373424
0.14708863527081
0.145864734808838
0.15301450599224
0.150728996768932
0.15400351970148
0.160799950178281
0.160631363847262
0.165521313237114
0.152100087244115
0.169924569453562
0.158808005327803
0.207972291143754
0.173649892731531
0.190622198656954
0.175610558592886
0.17979413978869
0.183834045516054
0.171856493128759
0.182310581159128
0.178615012960607
0.18420141407533
0.181926554207673
0.184488102721758
0.196483188288594
0.183745154988561
0.211474576617306
0.18601923552395
0.223144991665619
0.187132412615505
0.217377661576562
0.217231418512095
0.250003531365778
0.235162990896436
0.194114961567262
0.244209562049071
0.213358992025314
0.27128387110314
0.235319617681837
0.244447838749189
0.247937341507031
0.254255446527974
0.256138867095534
0.270781854447033
0.268186479520972
0.281681520653619
0.281317348854694
0.294453405499516
0.303300290673393
0.369198569572963
0.318826669196922
0.32635922886566
0.323363134876356
0.346911819091495
0.340491895977395
0.350142239333939
0.336217396713996
0.371682892500093
0.350728982028183
0.41306071351617
0.373906391793053
0.392080976245647
0.394433945303163
0.403161771055593
0.438507941521825
0.412504806268613
0.466657565174567
0.414795995346197
0.461699651394884
0.437343880266116
0.467914496225867
0.459230717147334
0.489885030684156
0.489894850371743
0.482005496664271
0.497956846557478
0.496081010613627
0.502943901661169
0.51126599633286
0.51896612739856
0.536742476552577
0.54324131328684
0.594247225170511
0.545018054998609
0.571488230536026
0.512049885612394
0.564406902457578
0.533212627893582
0.573517924473332
0.580709077522947
0.564051127682306
0.584633266116098
0.550888062466431
0.550481709761474
0.556844180461587
0.566423231067358
0.560273620509265
0.551793796848229
0.579776400794435
0.552351433932334
0.603149039256527
0.527383731566375
0.628222344118228
0.554232527857264
0.570234827306044
0.553950791695118
0.574097181497637
0.563548402075404
0.576970989098073
0.560121331266916
0.587629184419173
0.564500618436041
0.554308820150396
0.562676310395002
0.567217769750724
0.578435416530572
0.549837982175602
0.543357312824034
0.539762173861944
0.528249653791482
0.554535896332884
0.53729203748113
0.581204190245633
0.537331816786663
0.53315390407912
0.531738557821051
0.535866477688381
0.528423297383919
0.53324685608077
0.538941347150868
0.53212248163347
0.5289601350189
0.534788785408625
0.536752234651508
0.531344606958156
0.536775214354001
0.540006801019607
0.543554414869204
0.531740872588329
0.539638672831805
0.538567797581172
0.543745132507797
0.530438217833577
0.539491569382983
0.547361944409418
0.541225913297211
0.549870598093755
0.552681601046493
0.546391008726917
0.549441115558182
0.546212803648942
0.554675737283549
0.545608291248567
0.547743334782297
0.549259417686282
0.547757387450271
0.546113831728951
0.549353793383796
0.551255985776823
0.544010895714091
0.543724401911048
0.54331467526418
0.535753500325032
0.531610673967587
0.553896878377871
0.53881988091537
0.564822768069243
0.513073135789332
0.529645327387983
0.507968996427322
0.508439533630402
0.524690630159982
0.51384454053699
0.520798724796034
0.488462466103216
0.488740058182406
0.483279676993495
0.481097490056902
0.486316353109257
0.471748419959863
0.456406447512598
0.484104225714488
0.444149094304704
0.548863341442237
0.465735369224407
0.502580876529749
0.442263081908599
0.451376879844771
0.451135733443238
0.456813216338736
0.442961206427089
0.411702784550208
0.439975939544804
0.412036503974999
0.441502518167424
0.407042612075771
0.410550210176077
0.411706073907272
0.412331961890404
0.415816867760874
0.419644650557282
0.42066952344711
0.425578528355257
0.419153614191909
0.431493146061623
0.420748716704519
0.388010183308158
0.380902131630332
0.366523379593856
0.382432422627484
0.387923068505752
0.366451815149
0.386860124500996
0.354435322745907
0.370892971296278
0.348538764669133
0.36598662002828
0.358488744083536
0.355773666456776
0.357566653878133
0.343791540414104
0.36126584828322
0.323991271358984
0.386349567440663
0.346917862804279
0.379361177626661
0.323768435815414
0.345151217406342
0.346086879228106
0.354057651552726
0.341783342637421
0.325485463382132
0.33243765306688
0.331167688127672
0.317085718786628
0.330659598744557
0.314533982759925
0.342231956992053
0.335102076048496
0.334791669843366
0.34561882391069
0.318706266097901
0.313479555167369
0.30539093856784
0.307984132492079
0.320410263489984
0.299609295164694
0.331953013191385
0.289761725326103
0.33249617050804
0.321539875908896
0.31491493424324
0.324636292487453
0.320734615443625
0.322018313620003
0.331162935505828
0.327999061715841
0.355074092599587
0.337937996119571
0.357043687647138
0.340437854963383
0.353399571880207
0.357493150396494
0.3483616394419
0.359862838536618
0.360721032035762
0.37331953227753
0.377196170392287
0.383398444644517
0.386846041059645
0.387693547385475
0.404783408725102
0.412928679424812
0.412003127080231
0.438897207038937
0.422822367617636
0.491745651467517
0.434438155817058
0.471632221170336
0.459249917934761
0.469223207338211
0.476049417236972
0.476550927605194
0.492339236533156
0.509645652788719
0.510847725737683
0.512708593139006
0.496876216550919
0.529044789220244
0.51165851155491
0.548216950640274
0.529773858299301
0.581701859782223
0.533112110468167
0.584150405492426
0.55359635148528
0.552904619531502
0.561940761483419
0.551340546870193
0.571080189752696
0.555103536020856
0.562698057768452
0.586065950376515
0.573484215896646
0.577774910615825
0.562094080963913
0.578528243564868
0.579355540366226
0.586025359219498
0.593725202901363
0.59183844302228
0.593065944275635
0.592355430231839
0.595962934803283
0.627152652916864
0.624446583917761
0.640118645626554
0.612618774884856
0.631478508314466
0.63213283875631
0.635373869491668
0.633801573527115
0.648905524459968
0.658163939004643
0.653459854944091
0.662195676503181
0.671820247916704
0.666398164331195
0.685857059625911
0.673885883084967
0.700766050596613
0.659918478617517
0.707253885860306
0.699817660767429
0.718541292546151
0.712859378787832
0.70951535645255
0.717328764147772
0.693958262860688
0.715193414453926
0.707383911650827
0.714262620697727
0.711085498834042
0.724357979498492
0.714158451550141
0.728794640981403
0.707343515389028
0.716264482045682
0.735720427283116
0.727672712892106
0.719402964246999
0.71173678712186
0.714978128463636
0.700892288422862
0.716193125549331
0.718102993186182
0.72985738667699
0.71530610580609
0.707608662826535
0.726137112993658
0.735474854042569
0.726231404755693
0.716458878662021
0.712343651761351
0.713586477876862
0.707034982638899
0.715371361530304
0.731117389007128
0.731068164029025
0.740683270191627
0.727315461473441
0.731962431543913
0.727594898198815
0.735966741686341
0.728200474117108
0.737196342956842
0.738633296805722
0.760940794193138
0.753359435156875
0.75150884357493
0.747417508167626
0.754529715013515
0.779993457993031
0.763992659054425
0.747153260636358
0.74721649844968
0.745074219964326
0.757755434708237
0.756236543490302
0.75110724759795
0.738399638200603
0.750199970045477
0.723306400739793
0.747664243362298
0.731477296999391
0.738628138798389
0.723390006087035
0.711270128616775
0.69687078764375
0.703447571597978
0.696941134456383
0.690307662672112
0.692494066895703
0.694019830316587
0.680008044094558
0.675786773537574
0.676158375404725
0.673750149996378
0.664474858831751
0.679134016758661
0.67418163026498
0.668640735447103
0.6600513446263
0.66647971384982
0.668340214797556
0.673368877336248
0.666616573364776
0.667199422401791
0.669319771240793
0.68115143014835
0.662220509527661
0.667426267658343
0.663976253689353
0.659809484086705
0.664566696041213
0.659402309256935
0.658387518999798
0.658192239775687
0.660993612815473
0.657035838127109
0.657752848482691
0.659950690675641
0.661214104629368
0.657701448871483
0.657226773606434
0.655244379033984
0.656325322541979
0.656292501595915
0.655333294076855
0.662168639199044
0.654819991394988
0.651120034450045
0.661009317655266
0.662190993521914
0.651027396955478
0.658471933532071
0.655575794677208
0.663249595927504
0.656942152078065
0.665270389981364
0.659969187272978
0.664236363307894
0.653418889127757
0.655697401403354
0.661675374484045
0.643989384363237
0.650450948049396
0.656399153876994
0.653438514766189
0.645053936225619
0.642087681184286
0.639586643802713
0.634370535138309
0.628253275857913
0.626215376944523
0.618593497998823
0.617455560772533
0.609993076955458
0.604327718852718
0.597635282613058
0.590134271217118
0.596340158574633
0.585412585023231
0.588335310254847
0.583967591513178
0.577846120020767
0.576164873422926
0.581357243880942
0.571001948624576
0.574325043293487
0.575080669352711
0.577985786683075
0.570773440884969
0.569133760162041
0.570488372405264
0.568998391299629
0.576244338001014
0.570911485009276
0.570129013690091
0.570649523604791
0.575833963962997
0.576367191851711
0.579552905988457
0.579548298266567
0.58128865842193
0.583317494931807
0.582982958994947
0.587094352136641
0.58929388708369
0.595792035282578
0.5917159937061
0.602801926706636
0.597163507354354
0.603417477351758
0.604232124317582
0.604465223479983
0.605652296424243
0.602739326840602
0.602438214547182
0.603974411902773
0.602131338667065
0.60391454067124
0.601094096392018
0.599582904098908
0.599847715621679
0.599533920241159
0.596780415881044
0.595381043291255
0.596733639149711
0.592292527571964
0.592221815736143
0.591339787699329
0.582605562207643
0.583213721496123
0.587004271098525
0.579215700055258
0.580040027200656
0.577857590513053
0.577009706508937
0.574622473674171
0.568590492823991
0.568550695572532
0.564877074448217
0.567460803794389
0.564359013871437
0.56089424667973
0.564489855568348
0.560621354874816
0.554646235320697
0.560498960664378
0.554175519104583
0.554555720711322
0.548978887160371
0.552175462758766
0.550191786094596
0.547085997300052
0.543906212862291
0.545535283984164
0.540084875898746
0.536985269676271
0.538784882622001
0.528597261993639
0.526428992961601
0.524821311569506
0.518968558919932
0.516481944778634
0.512219897706479
0.511911587668047
0.508310931298422
0.502350407985146
0.497404915526155
0.49914082692959
0.497365739193568
0.492575594628083
0.488024547177861
0.490440068577144
0.488268938873946
0.48947454743441
0.488516888446253
0.479847950982403
0.477907114196331
0.481296435784675
0.476653912370094
0.473652120555273
0.46688905384056
0.460951806308767
0.460304119359545
0.455513064115044
0.449805606614055
0.442828022596284
0.436439729381997
0.429167427771383
0.429078757634674
0.427613277523394
0.424468430627952
0.423080654668103
0.428871437521802
0.429189425081037
0.43784336295664
0.444229252100082
0.449476804668029
0.458540368208329
0.472717485399206
0.486073984812822
0.504874285888329
0.517021358927412
0.5355530293265
0.55530797040836
0.572199402590263
0.59023101238301
0.608600369683634
0.628027574372306
0.644770595560211
0.662880047912867
0.678923507672425
0.697980069383064
0.717774668150029
0.733443387834513
0.743936915982469
0.7678978760079
0.78448331180586
0.797341981168729
0.806343029858461
0.818630276409427
0.834327088965582
0.850718793488473
0.853049766843724
0.874828302670275
0.874347805867751
0.889717287636371
0.900861613892174
0.897082248543988
0.907370284822984
0.904754493086366
0.908623393541241
0.913491638293627
0.91805711189114
0.902628683096
0.906318641611911
0.910583429288646
0.91000164394012
0.906198012661485
0.91785799524697
0.917886503047478
0.924705057020431
0.927909345179203
0.938488678229293
0.93392013555142
0.942280110557494
0.952845628647795
0.955013431677052
0.959478554617042
0.972026033971327
0.973622870378455
0.989467269432931
0.998958834505195
1.00479729644392
1.0106597409791
1.03936231073595
1.039674948563
1.06516813301059
1.08098571488751
1.09131462591562
1.08382055904285
1.11769305715219
1.12112647929661
1.14459635655807
1.13837283756111
1.16471475853525
1.17194607223105
1.14692148571974
1.15188680554128
1.16168717874411
1.17031476223801
1.16666553364146
1.15360584393743
1.13600583098131
1.14089925628403
1.12380024715486
1.134662681623
1.14025402413564
1.12863924196245
1.16120467989674
1.15320528422166
1.17203051076243
1.18507080176965
1.18745851112556
1.18862739271776
1.23159745765549
1.23365845555137
1.24432973488907
1.24980674429095
1.29453745507054
1.30164992836814
1.34200571365127
1.342076430694
1.33259890461748
1.36518011754544
1.38897172355705
1.38500799886255
1.43246726505674
1.46250065534728
1.43584483639777
1.47802572732826
1.48466384130371
1.51662901756398
1.52011917412911
1.5825909004895
1.62404933585978
1.58215880324512
1.61816907422462
1.60333941647599
1.68370914211352
1.69837476997716
1.72157074369875
1.76477763598707
1.75792795508909
1.73911039244338
1.88480203909861
1.82072260046823
1.75471601266286
1.80056404126069
1.77191969003908
1.86001494605504
1.86738485006376
1.78121807981628
1.80618000992061
1.73309432949806
1.88208654314395
1.8266440115285
1.77759832397675
1.81807466316361
1.87519257625286
1.83057693221202
1.85050111216139
1.81093417633042
1.98979200918682
1.96904877869414
1.81474111051258
1.7842301327639
1.90804804891652
1.78145011126954
2.25457038356697
1.88160938336375
1.927610779689
2.02528305115587
2.10663120125691
1.90959335802077
2.02313724174566
2.01133749915169
2.05023406980755
2.08773877414336
2.02317797827836
2.0434699417997
2.10274924333913
2.02558610858816
2.18024097681279
2.26128334596055
1.98337036610495
2.05261284272222
2.09168843393132
2.08830390345381
2.403658213227
2.23037286141026
2.21500408788121
2.46283478179383
2.67640020874554
2.21404530700824
2.14229086163782
2.27323727536935
2.57147459131679
2.07549098902102
2.09518833241232
2.14963821948983
2.11702182160491
2.09231229709686
2.89293993847947
2.05913795475836
2.01538901283887
1.99770188113871
2.03095677581758
2.00876527084998
2.09839692553238
1.94194414344286
1.97381953376632
1.81917007474544
1.9354974731878
1.79723469077277
1.77908521425196
1.77995590513143
1.87001636703722
1.74500061158636
1.88999216154309
1.6879432963079
1.70347421798634
1.64406676713014
1.7826140856948
1.61930937037426
1.75608071406007
1.59514086448224
1.70291057055224
1.64717497474231
1.65852721840021
1.57225970502666
1.62272662148622
1.57143782833258
1.65709835203446
1.50465190664706
1.58185813603723
1.50257199905533
1.57775919876097
1.42828580962841
1.46335505732997
1.42282783263509
1.4340378607449
1.34946285561986
1.35233314991658
1.3486933688221
1.2589671628431
1.22254371951768
1.1799039794043
1.11757779078833
1.08537658295705
1.05087640388972
1.01489536844055
0.95556921998169
0.952165185636401
0.905606405575748
0.880417476372845
0.83540289340592
0.817754950317857
0.781715448264806
0.767785799531384
0.748709393865236
0.730863164948516
0.70462834296573
0.70630550839875
0.687611107935508
0.682185046395911
0.671288048261759
0.674568079134677
0.660993427328308
0.65577263591542
0.655171803678178
0.648591946399443
0.65372389459298
0.653790574649579
0.67055831868782
0.658513126905006
0.664623099702417
0.664809300503205
0.663949637345927
0.655697915561345
0.656894372041811
0.663930685884538
0.646285362999458
0.641177545843416
0.650285860266706
0.641404712798894
0.638714812467985
0.637505225579383
0.628044921518977
0.627792672825987
0.618237534057879
0.618751599141589
0.615893894020659
0.613997393942705
0.611988957816562
0.610955189556515
0.615481013306974
0.618263210394243
0.614504184639443
0.624293872962361
0.625809150775201
0.626648936191443
0.629543877451902
0.639081433732462
0.630778756162679
0.640879464550784
0.650983930732973
0.648985257384481
0.648674341126698
0.63985709939245
0.645365798135169
0.65129048670838
0.656425393932105
0.644008405337425
0.640860743528235
0.662727848920058
0.652532888547062
0.650748859424785
0.651424494266863
0.671834034138555
0.655420123682005
0.655497467337877
0.658552095041055
0.678365146950985
0.685525046899284
0.700620368264541
0.69509465895984
0.725509644516304
0.726321704893629
0.747721994130508
0.780975737521345
0.799946421447593
0.797387856962411
0.824205818889913
0.837288564140927
0.834805208944761
0.845144060653748
0.864001145138451
0.823536266628836
0.838183029366955
0.815176101891598
0.817005801134167
0.818296273968696
0.802503206324587
0.7764903476097
0.786912139029179
0.765656940419665
0.754783798403061
0.777861906847314
0.763999372137246
0.766914186805488
0.78400555093142
0.758031902408767
0.769938629694714
0.762541887097087
0.774499100120154
0.755778804872625
0.76996861125347
0.750179699354157
0.746960238957688
0.738946404025654
0.736811068444539
0.718795772739615
0.738366465203702
0.713739263092584
0.730366176709749
0.691786979671617
0.690323745417631
0.705285316739139
0.724377084583582
0.686686076136383
0.69315554810361
0.673229802662226
0.708970578229018
0.679680300634418
0.678223902892529
0.681034720694756
0.680982419473095
0.677557656823072
0.679485867417596
0.643636965187497
0.671008277205479
0.666774792896519
0.66581063729137
0.642577780109765
0.669191063286177
0.640148871096547
0.62905228308825
0.65022082292264
0.662889752147531
0.642363717922856
0.633897249289914
0.623366142930645
0.641946732637251
0.60664456734682
0.624028159803942
0.613996807089047
0.606750414179882
0.5820720540792
0.61448472212588
0.603977408957053
0.5981759452345
0.580152789006245
0.59829500294782
0.592265915200622
0.603721117288571
0.581385361866713
0.603755903326257
0.588725947537218
0.609348668615963
0.59936666537332
0.614673820760244
0.600269410671988
0.598485804250378
0.590992456965921
0.611547770730889
0.600679555209893
0.606955696045233
0.607510739420462
0.605955001762504
0.611773333708315
0.64354146168232
0.630614939921631
0.624771029936334
0.622982175744965
0.645936108284251
0.647565117114981
0.649237719374218
0.631190544582477
0.655486140431566
0.653207490253771
0.65448521722544
0.657947520780821
0.7189010796473
0.690186164463502
0.699673241542233
0.710589678588857
0.74732520807433
0.741426233174564
0.754826941904681
0.739108512311422
0.832718476529136
0.817177887347269
0.835438987571055
0.829287287553193
0.927012391020304
0.903993105157963
0.944095662301054
0.905250228424299
0.929573121611075
0.946574494129179
0.926085254646043
0.913223894479457
0.99623061671956
0.974056852541754
1.05857426555029
0.933688583050672
0.97126848682399
0.968965887106735
0.979793334984039
0.961186189160162
0.953702413724924
0.96212065058931
1.05541021049327
0.938756948011761
0.999252851097788
0.94999489682241
0.953177196456175
0.934076252927808
0.964708263430974
0.943928643067733
1.03291583374202
0.975955670168836
0.93432501755597
0.878329007184236
0.98497109505405
0.896511630536049
0.993739315806545
0.876064037712304
0.994195576342715
0.85156779215782
0.881833336058629
0.90442252335692
0.961269995316873
0.893609777174652
0.855513724372671
0.857396203770278
0.905641921459564
0.88387418504897
0.919305101769779
0.914923607573696
0.946674976340717
0.850491668446984
0.922520653929795
0.884314998725116
0.936935737008804
0.881619718735179
0.92597546613044
0.84218711444277
0.916457383130366
0.833457271249418
0.910590774464148
0.861707440070001
0.969430710694681
0.899870843598812
1.00330517163505
0.851474557550829
0.910809463857809
0.845571231151297
0.840047928029403
0.876321544914368
0.957773188816076
0.968972685400167
0.915315182356054
0.849569712522987
0.953028682446717
0.967632208582514
1.10085828942622
0.964777429988366
1.00276598098307
0.938281010264108
1.0742677264091
0.987852226201974
1.03469755339299
1.01916778173549
1.09034333093125
0.958608011906969
1.06879779360848
0.983938547623916
1.22464617577418
1.3794895462957
1.12000813930851
1.02182810298808
0.962126393655506
1.10922664018667
1.26119161798923
1.30002663308442
1.20572503801714
1.3011309320849
1.70932528052091
1.18741233325038
1.45774452117617
1.23349026908713
1.13111060984161
1.1138169609125
1.37151509792587
1.07505719500802
1.42162959676972
1.07667018646326
1.00298147668493
1.0439704789441
1.18791452723527
1.13510219042988
1.36741905973649
0.955784238967931
1.08686609646719
1.23395753695757
1.24208389287505
1.02754807893944
0.916486474021222
1.07067846686545
1.36324944065665
1.06508820640683
1.11408176094667
0.991931196920683
0.97196655458322
1.45399305900599
1.43777258129366
0.893475615559401
1.6881140244903
0.840521221074151
1.26314686837924
3.24409821082747
5
0.823175089665277
1.05727847087031
0.803406305174699
5
1.51823217686489
5
1.11264269724992
5
1.39676626989957
1.08223658499423
1.190275583006
1.02896178180362
1.82289056376213
5
0.751262232374552
0.975255692881003
1.30338169220318
5
5
5
1.30596946969858
1.29694978889242
0.650837959522095
