3596
4000.36533379555
650.420452594757
1
2
2
0.0687573733606494
0.0567059522140092
0.0655314108066763
0.0572333439856798
0.064515992689315
0.0480029698639697
0.0589531686319131
0.053335708265603
0.0719844418876558
0.0569533883919051
0.067292588998707
0.0567109895488236
0.0656603948068985
0.0491661621807757
0.0718936904832105
0.0551472373841957
0.0632596867478752
0.0569770464382716
0.0665950231200791
0.0491187350749869
0.0696253237144003
0.0453985230940224
0.0643625469820613
0.0604022681972138
0.0630538156725155
0.0511097987382987
0.0654967148489357
0.0452354494038637
0.0668069739061538
0.0535423667330657
0.0575452334789759
0.054296823821081
0.06306483047169
0.0539898624559724
0.0672834860323357
0.0554195716107112
0.0570850227203994
0.0506430379611409
0.0699927815818308
0.0545735024721788
0.0685784471188205
0.0534869199128668
0.0682442454347767
0.0583288871774649
0.070902243900065
0.0554565513992643
0.0668418413470241
0.0530082188191957
0.0671867945351032
0.0523149261100884
0.0627228063984821
0.0559692434222868
0.065651827781298
0.0505020140751645
0.0728080544814786
0.0494878340724164
0.0596620819864826
0.0455753999025308
0.0651458853280754
0.0620149229223467
0.0744570192173827
0.0514294513262546
0.0671145513614719
0.0571580107807407
0.0551946948717382
0.0506987213264344
0.060422785702134
0.0492045815055944
0.065268333380407
0.049501224332101
0.0695411938563512
0.0658714741206819
0.0674788782985087
0.0453851154834685
0.0632178852758302
0.0510621074115561
0.0600882322316837
0.0464048302676779
0.067808286224013
0.0566757905891518
0.0665725375058547
0.0548092784048303
0.0553006210777812
0.0441199176523022
0.0703228128809833
0.0520293967870328
0.0631770551377715
0.0594402752766459
0.0685226107711911
0.0564897491321917
0.0626561637805094
0.0503255977100009
0.0632931305236828
0.0485154839208647
0.0551783609787711
0.0500060327859938
0.0583189390836533
0.0526249104190031
0.064658093535452
0.053192742581284
0.0630040390499057
0.0737133048314869
0.0643083884328682
0.0569236149262227
0.0682952464585754
0.044753766950439
0.0812680175926564
0.0608807764263226
0.0633543228407741
0.0433445454427941
0.0517219925127994
0.0425427623898676
0.0593845034422048
0.0480908261393375
0.0712191552846281
0.0576578820839532
0.0617928470981756
0.0527498585399518
0.0525925120038516
0.0436736581893375
0.0703737597686877
0.0799087402975127
0.0572361673335218
0.0507561870128771
0.0604041393467722
0.0449865554809899
0.0742997023425789
0.063764327708587
0.0506641511988414
0.0477427117856078
0.0493150019137609
0.0420542206819123
0.0566345615273246
0.0643652607200217
0.067524020921247
0.042823205462167
0.0643986884420948
0.0614154315748418
0.0945461834543201
0.040982622993115
0.0512693817470584
0.0475407637965318
0.0543103662242709
0.0666029837656406
0.0695118052344649
0.0351299142076224
0.0593280897207909
0.0521244731805473
0.0508224541695103
0.0419024148552071
0.0564673939901373
0.0548899832841808
0.0672779970768393
0.0487721035011276
0.0871073720131835
0.0935983419079209
0.0523927228079309
0.0584394234559104
0.0580288926416607
0.0404711952944618
0.0512497388935523
0.0422709485412397
0.0590951162118096
0.0458826861170152
0.0556845851112252
0.0490656421902402
0.0625519304187423
0.048037671503151
0.0604823347465361
0.0695144321348649
0.0664272466680023
0.0465398264213913
0.0765001043077222
0.0378560514248485
0.0491700045511931
0.0587310920818353
0.0556870888064048
0.0387363990743322
0.0580631388051966
0.0623611070151161
0.0540098417486522
0.0443127069307654
0.0551149520725494
0.0549442524008603
0.0726289993238184
0.0465931879686532
0.0499364800941699
0.0496547163600875
0.0507881575536182
0.059778271830962
0.0772673113158471
0.064627733887409
0.0552852131711153
0.0414324487356832
0.0498761528075207
0.0658156530850339
0.0778436256022369
0.0291646183583495
0.0502501703631619
0.0493974717843138
0.0528058821359142
0.0488522698407613
0.0527167158497726
0.045855471033194
0.0615147311033441
0.0651081254431597
0.0679377248385061
0.0518461023291471
0.0494558333364973
0.0423296086416438
0.0536956643573606
0.059704687507472
0.0776205893700378
0.0483158798985549
0.0448928466046319
0.0399434999727315
0.0674328740466245
0.0625001464294256
0.0474377003875133
0.0494206909402645
0.0479713517557206
0.0535826958370289
0.056525294817301
0.0458079486357421
0.0559209160698681
0.0482209606894805
0.0496806996372906
0.0457871913845548
0.0518318663000068
0.0543216078934876
0.055810874258497
0.0462727828871073
0.0512224880080992
0.0433014343494028
0.0541281878731179
0.0628056153427272
0.0510469358403743
0.048663573508182
0.0511571633208023
0.0544872269623641
0.0531295616241421
0.0434785123671794
0.0538177122309419
0.0521780918182619
0.0558442936358305
0.0705257293946146
0.0606752850779257
0.0499883858209155
0.0490577617377212
0.057179775280216
0.0669162893390195
0.0567050715149614
0.050705650241279
0.0493920572570816
0.0584117493182555
0.0536502945933373
0.0648863225158511
0.0565388164023349
0.0591873494693477
0.057052311288776
0.0584039479735918
0.0517079416718746
0.0554216061007428
0.0579508823617607
0.0983730009437183
0.0616018364561155
0.0625119050723364
0.0811233832731827
0.0562683649153087
0.0642468700266369
0.0509084814469449
0.0534668670429257
0.114740565776088
0.0956744771638502
0.0606456603386393
0.0574888481804282
0.0596066053473714
0.0419553181608598
0.057960470955229
0.0639425813286585
0.0619061769747237
0.0667652647387976
0.0861526974429289
0.100575834779594
0.0479355513592126
0.0619183374514794
0.0733843972637502
0.0496896186121883
0.0540316926609526
0.0487400596982204
0.0565734707795787
0.0698926336337827
0.0645551663153632
0.056272768419051
0.0660439585914255
0.0562871563484204
0.0761280645849173
0.0649353795362989
0.0602318377883141
0.0571306418003643
0.0635418760797747
0.0603193678382187
0.0605145302830742
0.0540998892776748
0.0647860216137428
0.0633218028207084
0.0674343275423964
0.0899515391207762
0.0724334445434651
0.0604116422409371
0.0719957328396747
0.0530776256598381
0.0646974706617371
0.0559743279775766
0.0593013061074793
0.0586726094979767
0.0589722840932526
0.0629319208551126
0.0808831742181463
0.06635227352913
0.0595743125810433
0.0645413811792503
0.0676474449154076
0.0660582295720309
0.0701325888982391
0.0679247292540333
0.07281504532759
0.0766136288105466
0.0667372202156402
0.0790158832076817
0.0854532322593217
0.0666431162445062
0.0926222716815149
0.0976840971397019
0.0715105869933062
0.070536025044499
0.0699044895541941
0.078702886642419
0.0720062386512531
0.0758444198254984
0.0811117147577543
0.073326372897169
0.0890028549120503
0.087658839055529
0.0801970471095431
0.0949810556517443
0.114243188046093
0.119816324129832
0.0880599865896805
0.0860733199899865
0.0802976352517108
0.109763038777865
0.112804497307472
0.089465489939288
0.115360778099008
0.0897059871818469
0.0953778514336116
0.092660024316814
0.0958590887540936
0.0979360765375859
0.104339921746239
0.098017083162477
0.100228831492567
0.100473718800093
0.103716835851103
0.105520311147902
0.114843953071997
0.133759542111806
0.114869667709734
0.106532425537826
0.119429758801986
0.116367521133153
0.131998613930895
0.150292573742551
0.145634119534214
0.153622834786679
0.139479715372212
0.159235429150846
0.129555586586363
0.131976423920267
0.133036751976857
0.140399084242037
0.139704394219327
0.141882256047865
0.144992956230363
0.149245446738371
0.147325957007721
0.151423974026038
0.155449879829202
0.169287119936882
0.159130169684879
0.176226554763193
0.16290027605496
0.163750062023213
0.160322916377186
0.185288715679652
0.22469966633167
0.226836622166668
0.17996693407598
0.181420935668659
0.177091015609156
0.183038083714796
0.192857781044337
0.188249988335791
0.190601434966618
0.191637941081516
0.220651877222792
0.220003899766262
0.205475528710495
0.221549475493743
0.207736417278921
0.229563299880919
0.223488781009668
0.227549151141098
0.240400610907601
0.233945655359891
0.22411444180352
0.25157268535674
0.260356390948731
0.234570290542535
0.259928026807433
0.252539995191552
0.239345363055038
0.245902613291268
0.25379939684431
0.258697794298952
0.2570775162855
0.271557244266618
0.270363740739866
0.274164523223057
0.273778593692929
0.278965073880055
0.280728845130287
0.309188694043019
0.289867599032724
0.305401421812573
0.3022521375671
0.301396819747252
0.284731302559761
0.334006491376002
0.34267611939165
0.330706880734392
0.341380362510315
0.321381273718397
0.312413632180971
0.325165833438942
0.32648138757136
0.337968762092633
0.3464039684217
0.352290212723757
0.350507597871634
0.364632464521835
0.346481879289037
0.360989915501951
0.354961375667447
0.381145226440189
0.377939096236641
0.386322667326376
0.367273597080423
0.388982432683979
0.406041072157166
0.425700110301355
0.422841094290635
0.44087356486522
0.444511513868879
0.398192812450476
0.398288382443475
0.424143963971142
0.423565078814297
0.439804679407377
0.436139479059649
0.438122718431467
0.441127544069885
0.460215522202725
0.441611359691116
0.458393830371945
0.442214939452794
0.461010524566128
0.4575116028874
0.48915587995413
0.489176943342804
0.515128766561619
0.4676751449027
0.484060900336077
0.511108042261484
0.517958439508142
0.492848222621529
0.501940853902501
0.48905659239748
0.516561034034066
0.514003670618559
0.53539028270732
0.516402347070649
0.545156346853835
0.528270430803589
0.558882316821719
0.533972693467073
0.577543896813252
0.550321380618594
0.565850807185858
0.568034961639681
0.590275128133911
0.57944879291442
0.590022729658722
0.589619186035275
0.648619758794468
0.603832078831686
0.612555296118809
0.603273410452322
0.620967515897854
0.619571208035719
0.620704017246393
0.603856288486471
0.643834556260432
0.598008179485129
0.663085572619685
0.646488902654719
0.682205676354008
0.670405299690681
0.659616580101965
0.648936337951404
0.727326178084415
0.694413476962585
0.739620446992448
0.684155393572736
0.744495740010909
0.67285489017524
0.696144942663787
0.67821987804325
0.710850438789453
0.704909265504829
0.764101239214679
0.675151065013379
0.741028489248625
0.714293076213659
0.775665082642924
0.726339588313128
0.78984283539315
0.757803923762303
0.7817023774999
0.757867581842837
0.758553610500751
0.715280346512407
0.802095470085376
0.747815783419842
0.812725180644731
0.819197333860298
0.817068419070056
0.776282275149689
0.811996135867866
0.765102845170538
0.857027694612114
0.823813534841541
0.854776970048615
0.81336147078365
0.877492199417341
0.840816622686855
0.88204529327674
0.834661141795288
0.911718911417609
0.858259907852306
0.893500898286746
0.857911093021225
0.890783341659651
0.901978453273254
0.978241862376198
0.851825962358666
0.923870972921592
0.852760843137
0.913644720234644
0.865874523156487
0.932473737830735
0.948332977795978
0.980355881722169
0.894410454380461
1.00897697967106
0.968570571405503
1.04746207026949
0.934662455190562
0.978161959664309
0.963596307048941
0.964519021277048
0.96304569558522
1.08489735904109
1.04903608036912
1.0962254152105
0.992052130654956
1.03050141107723
0.995071477044572
1.09802367865321
0.994824829929703
1.04110155387383
0.993795859132758
1.10116714114201
1.00927623895655
1.14816037088116
1.05304844407521
1.11315063061759
1.01229818247026
1.09432215190525
1.05275797185619
1.10656399625952
1.02082163370628
1.06956088746376
1.04227826040047
1.07559695381276
1.06083078803998
1.23581935371355
1.03229207100958
1.12012645681514
1.0843600358209
1.17962700020448
1.13962385803716
1.22229525817382
1.12323163529497
1.23438235586971
1.05521373273776
1.25268940674817
1.12889811263937
1.21570041756688
1.12030899751474
1.12139893137337
1.11651316690041
1.2125917143966
1.06413681418811
1.26097036111668
1.06987714454114
1.14645775970263
1.18820964284716
1.35390286206273
1.14092251387279
1.27748039872247
1.22373144629816
1.31683408897469
1.23165943767254
1.32275540113879
1.15923802204901
1.23267717062515
1.20409784155938
1.22511480485292
1.08587263368937
1.2495083186404
1.28998658787845
1.31047481453974
1.24778696895763
1.42069214601364
1.30043032988272
1.35514902025512
1.1555299167533
1.3624322926355
1.2249148683231
1.32162467658146
1.29272763174139
1.26965072272574
1.34108281494256
1.40657906297021
1.29606814366606
1.38963181591888
1.23012393022207
1.29776222560545
1.2573195010884
1.30329982127714
1.2269261503824
1.28085406287787
1.1976208688752
1.48757169340254
1.23974049016799
1.434401124406
1.27254607988667
1.4425666053749
1.34378078182308
1.47621887719777
1.28369606989025
1.33663986777358
1.3401534318879
1.39480106978599
1.32955228324939
1.42387172041063
1.25099531916167
1.40574071091614
1.35910152053613
1.50690128461204
1.38849572125769
1.43985560154707
1.27266550245829
1.54708804105517
1.32998639586647
1.40969990132205
1.34990200183678
1.52059955791567
1.39075069147694
1.42698464862677
1.39533609286618
1.34754051971873
1.35691593245822
1.45100819619775
1.32800486059903
1.61465273370805
1.33997433548354
1.52663597072053
1.34540547171347
1.56587861227514
1.37249137564167
1.49258854997727
1.33930965183592
1.51533570466386
1.2722090607488
1.52796685094136
1.37061637251941
1.69282849205529
1.29823075796618
1.41137688228692
1.47363205669323
1.53882701656935
1.38422612041901
1.4810603281517
1.41409138315688
1.46236384060607
1.25104548756328
1.55214841003288
1.33242348775902
1.54545255830433
1.39512438752342
1.77397610880116
1.42645878110419
1.51379554206333
1.38363313420816
1.53242058366486
1.40694887399159
1.42373591320312
1.41432694546735
1.5912267923956
1.47643767955426
1.47692884442776
1.39173410175953
1.62622393550448
1.44923499228446
1.50858242359236
1.42873934336172
1.4946159901519
1.32399116173381
1.55851079330355
1.52544698738968
1.47045027070806
1.33034936783084
1.53508662927507
1.33740541584787
1.55809447423062
1.42916045573285
1.5114567375645
1.49149067020648
1.52624635930546
1.42426218557105
1.38022653736706
1.28448026258155
1.55195134825953
1.33169824879582
1.53497777793199
1.44087765997485
1.52703804828234
1.38416461746747
1.57891126985278
1.49351981381521
1.64351152849586
1.46062414130131
1.52396607552663
1.28165820876509
1.43249976101928
1.53849571479025
1.43688687205888
1.39666275783301
1.52698498072658
1.37092879586342
1.51664002931816
1.49886004076047
1.61850134769741
1.36099983343202
1.37628716968469
1.50124426498942
1.58719848068367
1.38907251398726
1.48084189361851
1.43751356270909
1.64618035015777
1.40643047831067
1.49565775258381
1.49038900563575
1.45828933665969
1.3481646570172
1.40813012294184
1.41045034254282
1.51754643134961
1.40511636720929
1.50164575052155
1.38183517346926
1.53116832000007
1.33404189246763
1.43215891466859
1.43469881759269
1.58591107801419
1.39321200609285
1.44820959769711
1.43874030187468
1.50360372895757
1.36571689324172
1.42618100340911
1.29436010935
1.51659900217326
1.30478554774331
1.38808741684999
1.2992635902705
1.44438702952777
1.31884284600082
1.51578272373651
1.35070061575378
1.44992324093565
1.44686631458591
1.49067447335987
1.38457717819203
1.37495662931445
1.24772070218297
1.46567773455512
1.36784773739856
1.42042948239403
1.30110464531943
1.41423449649657
1.3167084594942
1.51290994338707
1.36035489532542
1.43038861482362
1.32443884825974
1.38456308353103
1.26848717719245
1.4582955824192
1.30880058108556
1.3636064007199
1.27946803676238
1.38962778899487
1.27297260582645
1.33701407448605
1.23591550150245
1.39581233822211
1.20466406519933
1.36382564224824
1.2298235045162
1.44203148404829
1.18770160039851
1.39547145897348
1.26533765049212
1.29027496462565
1.32228612801886
1.43688386857389
1.19813811763258
1.28269420167262
1.26720736941715
1.30180858508527
1.25483904909664
1.31494220124107
1.23439411637835
1.31583304005508
1.21957582468273
1.29543512419892
1.19652528843164
1.34778629745105
1.21069936794293
1.28540431358569
1.24035242007988
1.21325754806481
1.14032126847006
1.21468760370568
1.18092482108075
1.18779003870108
1.15741436975965
1.21835647347409
1.19304206748873
1.26303701796002
1.12010585495902
1.187297057639
1.15942878489595
1.23228662976539
1.15822363741078
1.21601908697671
1.09023670606394
1.11755498784443
1.09338591087846
1.1504406685091
1.12194882395737
1.17530879163611
1.1273508804863
1.18812353895917
1.05791165185375
1.13259083777878
1.06791452911372
1.19424176726558
1.03889890259409
1.09382934999031
1.02072113827955
1.0868907789631
1.08378861534352
1.19180538289231
1.05054224625775
1.14901099431921
1.04732221753786
1.07215357323041
1.04455829252466
1.0803481979716
1.01771571314401
1.05722330886943
1.00344040210215
1.05447656257986
0.996430344027086
1.04672838698606
0.974837540910707
1.00932023488238
0.998523079593013
1.02352192639481
0.989404163076037
1.06345982772053
0.989348627600097
1.01901865541275
0.981135367590309
0.99382999239116
0.94705148853833
1.00748838008139
0.953260578411042
0.962117065919812
0.92600918516405
0.943235515771747
0.906699845826453
0.938092727166749
0.948266502538869
0.936620426546976
0.892591448754485
0.92430432680541
0.920184121261532
0.935998622273892
0.881052267084587
0.89651343881224
0.892514459696435
0.886360983449078
0.86270871422261
0.945913886622062
0.848708241901986
0.903192799440496
0.872794989735791
0.887684951698796
0.870760365710523
0.88337444338919
0.858305561995469
0.86522801918496
0.846493423728542
0.867696394659533
0.80159472851615
0.872449365073813
0.81772313387003
0.85041955331037
0.805315906314765
0.842407282199798
0.794607518321113
0.832844257205973
0.787894505063285
0.796063518368923
0.770655520026253
0.815586782263696
0.767006453891196
0.809619149067294
0.772049575499726
0.784217528220316
0.772382580029824
0.79283407570265
0.771393117940831
0.792669284428605
0.749000048295801
0.779753175869526
0.756037425434082
0.752925273234389
0.732774465167266
0.764303977014337
0.744840801911395
0.755433390810636
0.72041815611699
0.748570163220542
0.70205715394803
0.727661366726662
0.725734113805698
0.731601643708034
0.705884826703025
0.715387473678176
0.690166278121528
0.732401075279372
0.701247344256708
0.712623090747274
0.692612880712317
0.700359182906503
0.681222441046876
0.71033129099036
0.662672503018761
0.691428052127884
0.672005670986972
0.690108416426427
0.650282935585848
0.671638018052289
0.655980222150785
0.660377927192929
0.647318369217996
0.66023193170239
0.641583488931523
0.670508561315319
0.626382950999714
0.647071692432608
0.633620780200742
0.659268567899757
0.621243269647556
0.640558009757837
0.614748705349023
0.625039754644142
0.621233156290289
0.630343831342348
0.615690801131134
0.621140558148589
0.594799295663144
0.612282841830221
0.586017247070578
0.605120055142956
0.598594905747071
0.601806797388828
0.572929312492806
0.59392420668027
0.573458217848453
0.592989248080938
0.565291160795144
0.592343499715767
0.56191942207553
0.566963737415468
0.559127899899424
0.567009134902426
0.548646713052814
0.564942582467067
0.55200733744532
0.570748773896149
0.555702769060676
0.548865123920494
0.536661795998427
0.542580827417766
0.530605990765716
0.543707233189112
0.532411804219924
0.552306182806105
0.518873134816166
0.528944441148296
0.515587061671441
0.524590388978443
0.522668525963742
0.531132471966297
0.506854119655471
0.515896046090228
0.517382043111974
0.515485088311178
0.508606520238509
0.51464133095759
0.504732394213394
0.51938535796641
0.499651980879019
0.501917435916562
0.498090125678406
0.502964282117895
0.4877424728886
0.50169776896761
0.490919066117744
0.500049091801719
0.485980550257476
0.497841878037695
0.480254385035638
0.493794552450244
0.484393907744605
0.500530343230946
0.479760073035661
0.492814215879139
0.482642811715586
0.496581731668032
0.481724656028663
0.493167779087451
0.482519173972469
0.495930456829157
0.478314285283854
0.49355459761224
0.479197143763105
0.492640503797241
0.479505576627878
0.504118373715779
0.473887803640218
0.492967081560292
0.477948812340591
0.497504167353893
0.487028658202545
0.506321757337671
0.484942372104663
0.518676456601054
0.493452111600732
0.503840644579592
0.507885965275105
0.512867535362127
0.496543348078608
0.514409532734142
0.505774159155723
0.528116423608216
0.505366086582822
0.509664345071558
0.505968025820793
0.528486158385204
0.519818053484424
0.530666117124781
0.515451706532412
0.536227470612186
0.523041422502157
0.539224897011602
0.512255671749032
0.538746657951639
0.531612043074197
0.548662702137209
0.54107432825628
0.55742431588354
0.536519939450511
0.559455010589312
0.548999368769703
0.556504678532233
0.552690542240709
0.579096994960521
0.560179781923137
0.577388453692837
0.568726269387182
0.583449009370245
0.575593152593451
0.591906971364912
0.589292250278536
0.599200420884941
0.582802790040927
0.605866594491211
0.592532507751765
0.615541469460536
0.605709040466681
0.624168050947789
0.607421123466074
0.616568427882665
0.626884681041965
0.636302826080626
0.605215325585738
0.617729820223168
0.625135046051375
0.634720169834565
0.627754157536766
0.630895865214599
0.62550599219637
0.647972266483476
0.620313402867111
0.643951984876246
0.626102118322442
0.626019667748519
0.605081316873759
0.63582908676487
0.622722110027786
0.63427189398223
0.620885490258331
0.614732300467151
0.613211043857449
0.624041845010663
0.618156015753644
0.627680925894624
0.62284591746895
0.631599374047707
0.627039005696731
0.633555688247185
0.61802306783389
0.626491326617771
0.616216135602713
0.62651574604799
0.609232991041631
0.619854109207022
0.60476483608545
0.639372480026686
0.604277134829642
0.627194941279584
0.622231542357229
0.622638099837519
0.622199756784098
0.625931386962239
0.627840248454832
0.63271210836382
0.611585367505213
0.626035986666412
0.610273612175508
0.631007662351006
0.626775104399956
0.625794774423898
0.615775110546125
0.620508126783405
0.597728751435336
0.63040478264375
0.623185172048062
0.621487605140097
0.602429827111409
0.616848779912735
0.613276242833962
0.62538629882392
0.619373465105323
0.628623428274132
0.603426353797838
0.619949158917339
0.604179201324464
0.615234885313015
0.603316059848159
0.602639333070151
0.587904855931163
0.593358802156243
0.590896560226422
0.589249822438417
0.581292729995702
0.587868384438994
0.576403849020654
0.575408830633982
0.565140723926183
0.569022762765895
0.555770452527894
0.565964143960147
0.544722926800793
0.562787172895935
0.543948445519369
0.545712692434467
0.539985212198257
0.550101874715422
0.537349568050955
0.532917224467899
0.523358422949595
0.522280807352175
0.509604089121385
0.527504343488487
0.513859237312823
0.512618868615042
0.506625102978561
0.50874140509585
0.486754276227769
0.502584158340296
0.493412725383245
0.49489795610232
0.483407247702093
0.482116560473214
0.474213124448242
0.475627359179349
0.475965037377389
0.479946616733101
0.467656213223662
0.466725994206379
0.460311619462922
0.461033203676823
0.460104911362008
0.459624360855633
0.447978922769881
0.453529640712796
0.449704559204031
0.458160964701921
0.44404183591546
0.451160566674453
0.442231071497201
0.445211856608044
0.436189110665734
0.444534492678524
0.432871918870151
0.432721419172327
0.42486813052285
0.435322742797795
0.430678417130844
0.42853333681593
0.422235791313267
0.426903950377369
0.418065083416871
0.42481937927201
0.411861163735039
0.414518354222003
0.418033786127608
0.418868865254159
0.405479431058719
0.41702333536541
0.407903762397357
0.412899173301787
0.408431219239765
0.411333145805829
0.397333161336339
0.406542966901578
0.400966577082477
0.400447394194137
0.391804562140935
0.400654644270237
0.392321909212289
0.397371509149302
0.395369130984352
0.392377620939587
0.39065491012144
0.393338301347404
0.388933165719308
0.390094975026545
0.39148987111197
0.38995626416309
0.384095521962224
0.383596533922855
0.376494405311245
0.386345578215025
0.37998634552441
0.381489593863734
0.372331067680285
0.373324325859395
0.367281565090125
0.3801812503047
0.36838984988729
0.370130278891917
0.375318934141821
0.378622011234361
0.367967577174799
0.370095504622741
0.365801200225723
0.367669917437584
0.366011871694872
0.361691459756154
0.365669899578202
0.368694033646395
0.359717954967564
0.367161729714166
0.357991413886302
0.365185290949871
0.36330140631131
0.361867645449543
0.356472775182235
0.362045419039744
0.357277376239019
0.358953410890361
0.35551788490039
0.356702872019725
0.349696240803987
0.35556014965916
0.354572503549896
0.350453479702915
0.348223579904439
0.353741926469573
0.341629189367409
0.356744225942926
0.352060620591549
0.349116472876499
0.344574278574812
0.352204506361787
0.34510062577577
0.354826295290015
0.349134449638132
0.353891441927068
0.346251688098571
0.351039715170265
0.348312824285442
0.342936651691406
0.344706666331623
0.347902647265785
0.341410802498264
0.346149301794876
0.340079203260656
0.34540152380588
0.344172552889547
0.342777119540873
0.339275370571298
0.337345162554372
0.335067255060506
0.342018855000556
0.341481771985465
0.3417360267676
0.338457668000174
0.339772208826189
0.335923918554369
0.338682170541131
0.33330240958953
0.338381983989979
0.333061494112258
0.331231900569707
0.324569783545725
0.333864067688642
0.332014661938887
0.335314884663959
0.33160007821007
0.335680381843198
0.329950265017727
0.330083978543226
0.323536788308669
0.328936730257267
0.326630323101331
0.329916989423418
0.321470889101391
0.326991208980533
0.322213174172471
0.321345606878793
0.318738316457817
0.32277302364353
0.319024149216145
0.323092803046436
0.318757761391672
0.316802319458416
0.317975098379732
0.322648462559854
0.317193859987906
0.316283720811946
0.312773403834173
0.321529013062431
0.319915144809645
0.313038952613189
0.314827387653595
0.319450552663417
0.310951651108914
0.306961296864353
0.310289315527126
0.313985549029475
0.313135508039876
0.313178872255077
0.306957261656
0.3080857497658
0.302444757116427
0.306047764435201
0.307455736102955
0.304904890360783
0.305020322560705
0.310781267878284
0.304279132346555
0.299433619182506
0.298771877721226
0.300606788586875
0.294639576828585
0.299613388978429
0.29318151376127
0.291147853605052
0.291617209409392
0.298899944728505
0.297693055586194
0.296520411255267
0.291188246702594
0.290817664732989
0.294325279683334
0.291771277419357
0.287779019980725
0.28680082009189
0.28291573447847
0.285679437050004
0.285979345190971
0.285745573865753
0.281322179053533
0.283445834719759
0.282385448263503
0.281481595237944
0.283330239416534
0.28022291862122
0.276777799012609
0.283575026202253
0.278246472194745
0.276298888921452
0.277496935839255
0.280779749611664
0.276183592497074
0.274066918864782
0.276981130926787
0.272682979659035
0.267510452136513
0.270701743615557
0.27480069781292
0.271607557910552
0.266347355306694
0.267233226032721
0.264985022282431
0.270913042882651
0.267195823649845
0.264871527458842
0.263397791058473
0.263326459588556
0.263161538053627
0.259818235742203
0.261190552827709
0.257366697901818
0.25864791174126
0.261066931813159
0.25671388297006
0.260078969157472
0.253235763597337
0.254491936709535
0.251865010597528
0.254746374944399
0.25438903635654
0.249426724264731
0.251616260898978
0.255898298177151
0.254138860760633
0.254309315690192
0.252189850405474
0.252536246823833
0.247083515852378
0.246722709905353
0.246321969492062
0.248619442926188
0.246896739237465
0.249704019657819
0.246370913455835
0.247591447170469
0.246878670621875
0.244360985197069
0.245952004255247
0.24407896591536
0.241943852792579
0.241362184964696
0.240758855848168
0.238911788447904
0.241829999396226
0.241728778544921
0.241520777357467
0.236668624906003
0.240109092837335
0.239584073344599
0.234265290023127
0.23692049635583
0.237130045591479
0.237118498012499
0.234295789973895
0.234931747735123
0.227205309955469
0.231545416527951
0.237905502562724
0.234965312876097
0.231236114949088
0.235183121964351
0.233227810779568
0.230824853440171
0.234152279760626
0.230981791812124
0.229865054223253
0.226294534376225
0.23076871214087
0.223184373627753
0.225886436227716
0.2296378045524
0.230958410546466
0.228661262302104
0.227558253383316
0.228339688601853
0.22726372925388
0.225455291800184
0.224975823245238
0.227208728521558
0.224003977875091
0.222247786211335
0.226879040006607
0.227705518054246
0.223673601846889
0.222905774166069
0.226248231057611
0.226416361913958
0.223110571466819
0.22321230647595
0.218246198475414
0.223094544304072
0.223557202967329
0.221553052065138
0.223372376263986
0.225892960552146
0.223986324870989
0.221151394485468
0.218253372822303
0.220281679690351
0.218450827725563
0.217907042457529
0.217595534735764
0.218949557240664
0.220881167015619
0.220085282472321
0.221719295421305
0.21362917434775
0.216003799747791
0.217954274124359
0.216794876922727
0.212439244598564
0.217055543891115
0.214336186820534
0.213304817945064
0.212708738109226
0.210574016886566
0.209726281775547
0.21488465996041
0.213982401022259
0.211807505800042
0.209516678793328
0.212402558085435
0.210656900107173
0.210373033204679
0.208020259667503
0.209573201958797
0.211001838138717
0.212054733306871
0.212679234084098
0.211032098567439
0.208584979269387
0.208511191428808
0.206541953476642
0.20891576836549
0.206840873193964
0.20669382481704
0.206490551596368
0.208776288600264
0.208680342077315
0.205173379529532
0.207124043959849
0.206471871616914
0.202111076966324
0.207824246928675
0.205620572733189
0.206064689390965
0.201821565335349
0.20148048447062
0.203622338494096
0.204478906382055
0.201513409611351
0.20497177509122
0.201714808563227
0.202410263556028
0.198601167882287
0.202941697389814
0.199917747859002
0.200117217529037
0.197478068303996
0.19973119179272
0.199758043824538
0.198450611891513
0.19559990926045
0.195007703455271
0.193975416988036
0.200502660405854
0.195509062358241
0.195102221437458
0.195269098806016
0.197560739782398
0.191176660293422
0.195403180864827
0.195849754650919
0.19269246730006
0.190347759103599
0.190966832453446
0.190017476165227
0.188634631790817
0.189723010025562
0.190791355950972
0.191069501898278
0.191609353122544
0.185088580254843
0.188485418968601
0.186077236834268
0.188608399228532
0.185504975977751
0.186949136650082
0.182756782159889
0.183700966244078
0.183209496928288
0.188477133647287
0.181132074685516
0.18123385595722
0.181915926893477
0.185506435295084
0.180828136579779
0.183334518513851
0.183044334776537
0.181847045831002
0.177630620449631
0.177107525086311
0.177126709565347
0.178401026583093
0.176082938532868
0.177310892125709
0.177096686267164
0.17963353997526
0.175841750763063
0.1768029945833
0.17308978904705
0.177738985470468
0.176432381048492
0.173957434316671
0.171735563321716
0.175968801828816
0.173905953344521
0.172666868521166
0.171355652259919
0.172856245632976
0.167482052959664
0.171509259273965
0.170765106729171
0.171450906848167
0.16775719538388
0.169268416713792
0.168505857378698
0.169912918648917
0.166968199039561
0.170218501751054
0.165733968457739
0.164529847375062
0.163154428555963
0.167609390022616
0.166203342727945
0.166273575285496
0.159684295129523
0.165787355211891
0.162188495010596
0.165236860408333
0.159953747164211
0.163140983799958
0.161164350263799
0.161310596455746
0.161268479191564
0.164224014722037
0.160338065983231
0.160880105374582
0.158198526688436
0.16094268373212
0.157651336769672
0.161398174757054
0.155993716745278
0.15886892400756
0.157948405236532
0.159442187573103
0.155630366599475
0.157097640513383
0.155019882235698
0.160231830171175
0.152361427225597
0.156246657644885
0.156277489332062
0.156622829011619
0.154420028501468
0.159217967987273
0.153381089632342
0.153982023321498
0.153579808449029
0.159280452170519
0.152902977307339
0.158073655986746
0.153348400090484
0.157860625722136
0.152563347283984
0.155471522265897
0.14757765027556
0.158977164380556
0.152379412308234
0.152914325711396
0.150463852748292
0.161307894624157
0.150709819497268
0.154065592465784
0.138119060157324
0.146621597608315
0.146211966208311
0.156431209066119
0.142953638218595
0.154051644047435
0.149130615414125
0.14822558464036
0.139636940015167
0.158375847632563
0.138435720444806
0.15978914825979
0.14210120519158
0.140174632600446
0.14243107548883
0.147311400070028
0.146477024301349
0.146541412071018
0.132610531815411
0.147494357009158
0.141435459417557
0.14911561508766
0.135681579757343
0.152443817134887
0.129797190322724
0.145870721669722
0.137092271986494
0.143242489074094
0.133031037127283
0.141609790064662
0.136737415337983
0.141680478233089
0.14027651068515
0.147468305619095
0.140705140984233
0.143911196423517
0.146333430543481
0.136118140339143
0.137497606272455
0.135160024240793
0.1460854563486
0.141511389531848
0.156363343787284
0.132264562906229
0.148571159712218
0.125019913602712
0.16758802933891
0.119628535937944
0.161611837229378
0.108976332335376
0.17424723520182
0.110173585612861
0.173418234715851
0.108905088862385
0.175753185691704
0.110115714717269
0.164569838995417
0.120730294434895
0.15956306067559
0.127405985235279
0.146951709116721
0.137522147669114
0.137896281595143
0.144056696663789
0.134729480726038
0.146348951938348
0.133736555354365
0.14015907331178
0.13972620077367
0.136161145360053
0.141015120087099
0.13456449641158
0.143030609453424
0.134618624705227
0.140722270508293
0.135417445890217
0.135576564045453
0.13778958080658
0.137296793656741
0.138406068527705
0.134742897324103
0.13765803466372
0.138953394325548
0.137454622435982
0.138089694641498
0.134916558895944
0.134633382622038
0.134325858185968
0.138847619535693
0.136040537181394
0.13652550025782
0.136271855703267
0.138278631841328
0.137872288505636
0.136498117830176
0.137643519464055
0.14082060340253
0.136284950107458
0.135876592524312
0.137071783216454
0.136000589180285
0.133654778662295
0.13721836969082
0.133847807950999
0.138155679972125
0.138467908178062
0.139328934163917
0.136784182754136
0.135962849820542
0.13501420713488
0.137070684882632
0.136266864797217
0.136240623813957
0.135144601662879
0.136452439025624
0.136967717814
0.137650559210096
0.135197350564177
0.136122941862094
0.139237741553666
0.134753791103924
0.136684415945778
0.136047427272857
0.135084671108255
0.137768313259137
0.139788577551846
0.136217087137021
0.135515763330416
0.134431344081439
0.136273638675254
0.135115619578665
0.13772001196915
0.136704516267701
0.138281876082622
0.131891900217644
0.135361081823536
0.131613784353
0.138266769310985
0.138145123720537
0.137474538119933
0.134973651159759
0.136678757045537
0.138480786002134
0.134029780354665
0.136187549505608
0.138551839887989
0.135545506601548
0.136114860587844
0.137084924546844
0.137185588892856
0.135940588357909
0.138481341719482
0.135656999407697
0.137192722736097
0.134774093487668
0.137933403428872
0.138234517229191
0.138511706315939
0.136285860732921
0.137384834012792
0.138063025362681
0.139691950564355
0.137930466279926
0.139534538390342
0.136063656804447
0.13856746592563
0.138713834021022
0.139859762608762
0.136809227395371
0.139462367802116
0.138280144352307
0.13879592884016
0.138198255745136
0.14253324142189
0.137932765377789
0.139744016305279
0.139610920762166
0.137649602427155
0.136774328400244
0.139333449170487
0.138914588957638
0.140180382553772
0.136952520647497
0.139674858362722
0.140091103675927
0.142560377371741
0.138755242565745
0.140005897073929
0.136701668888406
0.140448698863366
0.139126746346345
0.140188146636377
0.139601904169815
0.142231415831714
0.140820744275841
0.140152958223971
0.139490052524133
0.140922653855266
0.14185928331276
0.138995710271469
0.140669939155353
0.141219512167744
0.1407757509527
0.137897549171395
0.136618051279981
0.143386778842644
0.137924483370701
0.142687565662861
0.141797340793266
0.142796421407026
0.140007289127686
0.143872728485419
0.141297280453025
0.145579703257254
0.145096885305709
0.146065595702211
0.139596558134144
0.142770782588147
0.140644955275987
0.146169474323067
0.142793439997628
0.145418949970402
0.141945557959936
0.145008359168627
0.143365056320108
0.146086595585232
0.144555592878314
0.144002593435671
0.141188248647816
0.145231552879202
0.142305474028281
0.144420957173133
0.142338872373992
0.144245414992113
0.143290187112759
0.147418342793777
0.143966065515983
0.14576744051578
0.142741448838764
0.146808421692286
0.143036313133511
0.143972346345208
0.141674845146127
0.143502889039837
0.141357991857792
0.14297842824452
0.14013162121676
0.142101691335216
0.142942153398402
0.145512726776012
0.139318380352063
0.140943409376611
0.137899739539871
0.143334236587747
0.140549660472548
0.142104641562915
0.141578998670594
0.14130411056204
0.136354765231377
0.141144343000935
0.137455599269287
0.141836924465534
0.139414030007263
0.139085924221658
0.13684278102431
0.139977523868477
0.135612299757979
0.143463338863891
0.136533326466016
0.140519931698079
0.13915564023158
0.13922362209663
0.138813409752255
0.142238056290422
0.138238609713614
0.139212002576292
0.136444784431322
0.138266969963837
0.135566524348277
0.13868695611346
0.134424974568498
0.137797783858783
0.135218377307897
0.137284095271145
0.132102919626848
0.136280387113632
0.135083684056109
0.137817112477597
0.133953198485475
0.136790229889969
0.134905544293596
0.135455389283581
0.133435901666171
0.135308181777526
0.132203644796369
0.136854773677188
0.1328178556971
0.13558508970779
0.134938818265216
0.136950707204226
0.134373835142423
0.136288314036861
0.131105200848052
0.133534330939451
0.129419862860269
0.131805334014243
0.13216446318761
0.132998963492948
0.13038216678248
0.134497536540205
0.129921325648724
0.132561724621022
0.130357885920688
0.133485485820271
0.130082322737524
0.132428425032652
0.13093596418692
0.133180461894453
0.128694774999362
0.133484352792192
0.130212532734277
0.131873107111819
0.130771468527159
0.132328255808161
0.129162059111724
0.133570682708206
0.128617455975782
0.132196604522422
0.130686627909079
0.131873548558241
0.128875869571888
0.130991326969979
0.128973205044245
0.130334107026467
0.127586475062878
0.131943772960385
0.129972294607005
0.131253784770166
0.129100447678732
0.127816446415712
0.126542054451938
0.127933720081985
0.126471365682891
0.127901295875155
0.124265570352495
0.130164311855825
0.127426382546882
0.127635797974278
0.127874083888375
0.12628815736025
0.125886326595593
0.129392596943917
0.126099399574793
0.130029305768691
0.124021702323323
0.128738095548453
0.125191792088556
0.127119779424311
0.123769866693294
0.129314281703848
0.121974101390036
0.12468145442548
0.121919387506014
0.123765748496415
0.121953062684786
0.124478391505206
0.122033581712302
0.122423488065796
0.119983175503846
0.12152105449821
0.120231337002271
0.122226548670593
0.118029990716981
0.118943584777672
0.117873807243545
0.119487369967436
0.115931110643341
0.122266474595601
0.112958044685393
0.118518473025029
0.11772221621783
0.118308236661758
0.112802266188396
0.119450106790683
0.111897998127803
0.113837930525388
0.114224546655815
0.115844701389011
0.113359743360848
0.114181284131261
0.111584192430662
0.114182540061424
0.10942559553612
0.114560636753595
0.112426458622252
0.11411091245563
0.108671693956577
0.111597743016164
0.111124785021484
0.113007659598732
0.109264098223163
0.114333886261286
0.11016493463465
0.113109113044841
0.115479083481848
0.110772360599748
0.112148706819459
0.109744009628382
0.107630371986764
0.107813226358513
0.108799705080367
0.109195418145588
0.107661831985407
0.10748089758026
0.107999300836591
0.106959888026062
0.107679120037478
0.106855034635258
0.10625440516915
0.106206207435296
0.102593788363527
0.107595232842281
0.105466030214455
0.107021358347365
0.104435049119208
0.106549545096054
0.105663798519923
0.105815006044408
0.107621748691678
0.104380146718439
0.110982220081276
0.103357655267734
0.102290476810834
0.105627523822024
0.102230351213205
0.105283939487777
0.105502647040637
0.105763942762161
0.103365748959353
0.103524879254101
0.101315556453348
0.10314392898874
0.101740326872053
0.103507835756599
0.10050500786272
0.103078263780768
0.101165974048177
0.0986517049317837
0.0979348562550089
0.102275921938959
0.0981676524554099
0.0997431738747536
0.102705005948583
0.102245764736216
0.0986435959695719
0.101906014170736
0.0993726182864452
0.116188830345878
0.0932488436229675
0.104419385326164
0.0965601663809204
0.100600300371
0.0984004873672553
0.0997925667897677
0.0949397592111546
0.097855505958855
0.095887924824493
0.101410281578877
0.0937262854776925
0.100085306137883
0.0967941543856446
0.0987511241871161
0.09251334259236
0.0983475293344136
0.0956819480806452
0.0992568403671522
0.0954628503176457
0.100248780517151
0.102031619360472
0.100383449364287
0.093726955656557
0.104545239210876
0.0922125255521167
0.114019190292667
0.0982368077891239
0.0945856765194769
0.0961429958004967
0.0964088378970448
0.0953958376629996
0.0955430595117713
0.0968024606933815
0.095441966043162
0.103343177049804
0.0914159405837856
0.0997539141000081
0.0929752078587639
0.0954275532403603
0.0956636445245821
0.0956202134893081
0.0952061115936135
0.0960570473562221
0.0968078230898464
0.093285601297233
0.0939478817739948
0.093963457401978
0.095923119619941
0.0938452037367498
0.0983229237721278
0.098887837379144
0.0929899729393414
0.0935921895189798
0.0934699453203227
0.0955430838448302
0.100142227694478
0.109448070976158
0.084566603376129
0.0982451789732683
0.0927754087865776
0.0935418566162654
0.0935765513098881
0.0936305782274086
0.0937147102700712
0.0923964047679528
0.0925681977747737
0.0945922985779041
0.0938031673916926
0.0923967683590563
0.0935992157016615
0.0922730356686634
0.0943726304977592
0.0907260277114316
0.0964200868308886
0.0889095339166467
0.0957915074189674
0.0943709612578041
0.109143053909834
0.105465933680301
0.0911155349677327
0.100360942842921
0.0928107044073835
0.0969734196692961
0.0908881930449484
0.0965506645428378
0.0921326039295129
0.0958833550624233
0.0912580585066206
0.0967380667434042
0.0910112357151451
0.0951545372323172
0.0887111849397378
0.0970667163049492
0.0896457394084632
0.0955548053722641
0.0884710141455959
0.0975080551008961
0.0878762991856565
0.0943173408807552
0.0898098232590412
0.0978839693146858
0.0916985367460444
0.096119511313967
0.0982294251084217
0.103250967543537
0.108997593605125
0.0871331120490686
0.105925561558831
0.0827906147354027
0.100435728987493
0.090873909946422
0.0979507370052426
0.0997505064420787
0.0947859005388451
0.0893640218465678
0.0973015443981339
0.0943464484678269
0.0962554506970122
0.0939569474504203
0.105489179819471
0.11120330219007
0.09738456112656
0.0906857856914979
0.102545772796066
0.0901408504938886
0.116874480611224
0.0915985857176699
0.0987930249840639
0.0936850832773772
0.0943591583749374
0.0979830482322509
0.0966247128482042
0.099003890656922
0.101251775601968
0.0980211142196521
0.0955388398645864
0.0987630466812831
0.0950642917559103
0.100521282445346
0.102574356672273
0.101099378079527
0.103334230544049
0.0956700070951141
0.103197846761613
0.102860810576584
0.096049681101446
0.0988526165831577
0.0963273155904968
0.103700443868095
0.103589699112661
0.109108043177594
0.101752534176029
0.108450935604652
0.105264827238948
0.0989062713075954
0.106044837491176
0.107974641602682
0.0992743147746376
0.114179248144108
0.0964350607090781
0.133273709875048
0.0938595635835026
0.120063042173474
0.0939581629932882
0.108484009858867
0.0972828884357402
0.107912875469457
0.100198910260114
0.110680812906908
0.106228157646851
0.0977775551900148
0.116308979250531
0.0998373055860176
0.117601416049166
0.100932625566153
0.111322962520989
0.105886884481101
0.113529787396276
0.10173856980271
0.119355622633705
0.102881512511216
0.147499054872384
0.115334810502386
0.104770330592054
0.117141089674258
0.11400085559914
0.129222592377914
0.110369929279616
0.10932219320812
0.115900356488715
0.103240783602329
0.122483724716628
0.112770102280625
0.136203613684186
0.115527378218183
0.109871995617461
0.122278244509003
0.118917776812544
0.13153031348782
0.124679596698139
0.113411200689778
0.121795610472683
0.1216719818044
0.135284317637739
0.119753590017779
0.1518869770046
0.112751254400376
0.163574804546221
0.118105532187345
0.146319847526969
0.120847078466791
0.143461019643226
0.130317848499964
0.149033879620955
0.126930054972068
0.149216453490728
0.130978670679841
0.15716236979982
0.13052874305796
0.145757978482881
0.143215998341482
0.15620072953811
0.165756645280578
0.181263017928932
0.14351465932922
0.159305855062847
0.155589193256698
0.166010813928109
0.155116742295517
0.152271023074417
0.158399383082731
0.159185188939277
0.162883313448664
0.169241625906226
0.168324499480238
0.173069888917255
0.158759301394644
0.177653323718614
0.168743435909142
0.217675505875426
0.177235202239735
0.193920138026601
0.183272921978214
0.187965836664491
0.192361893941052
0.180861945466462
0.191083467661806
0.187604181302821
0.193086383722087
0.191062506260687
0.192956302242782
0.204131771342552
0.194981865907654
0.222599882362984
0.199774921684379
0.229716361277186
0.199250499603353
0.231570475356779
0.234478479232426
0.259917423064223
0.244147875209254
0.211483450390177
0.261616750501078
0.230495433322398
0.285617685063683
0.250004919086101
0.258175522831258
0.263274456645976
0.27235630558987
0.275705669298765
0.28822698938759
0.292285428429882
0.307646412161315
0.304435047056264
0.317985881102283
0.323012029709135
0.38386197143566
0.34135051512801
0.344463385334159
0.345846593750674
0.370412978178792
0.362453047247181
0.372358227675132
0.363846576880383
0.402095030677132
0.379709696840385
0.450052674943681
0.406101725705745
0.428194438918194
0.434946724123003
0.440711726752034
0.473057496768266
0.450137466209008
0.50584496963248
0.446634862263575
0.496949099473045
0.477575022845757
0.507408559974083
0.507169538799767
0.534355886732519
0.538060838128052
0.53323833716548
0.544914458155355
0.54051268781144
0.551459106714594
0.558046887482722
0.561111895654225
0.567620393602909
0.591936629961769
0.696334285737308
0.641687633098093
0.634375893217893
0.565103933457753
0.60335577629791
0.58512720487115
0.625348605326055
0.627039761829871
0.624230026240329
0.633550273070853
0.592402707002657
0.599552552635747
0.60055647369328
0.603199689612079
0.622942080151623
0.609885360552185
0.626088449541445
0.611610211858275
0.650022131450974
0.576902536261222
0.715683768740661
0.613889650116341
0.620848210175238
0.606185796291374
0.624181845946898
0.603400230393012
0.625854798937758
0.620107670617906
0.649766734921618
0.622598504445506
0.60112882654158
0.602008680388054
0.592450045624399
0.614933780513877
0.585625619643788
0.575592978664845
0.578573862857384
0.554010953467345
0.58918060286005
0.570577468058621
0.61322629230858
0.560168474371953
0.54984125772513
0.565022011725247
0.563541563523876
0.560258950467392
0.551371409612282
0.559925195592184
0.562884761869072
0.551733173368528
0.547630786068545
0.544392068702527
0.545216453506396
0.556038755097025
0.554214851199058
0.553952371529263
0.548120065072012
0.555297938982967
0.549968357387771
0.552769993487934
0.549882549662452
0.555464327396743
0.548895999438578
0.546094248410453
0.55869500517215
0.559894497773208
0.562630601696266
0.566809846509593
0.559443412951773
0.557513835010345
0.550418819698089
0.557226489838916
0.557635577781924
0.557112977325034
0.551480275588952
0.553568925367597
0.55674500471082
0.558541944282406
0.552653713766141
0.560474848131043
0.552499415235792
0.538467706088345
0.564234800820717
0.563467766221336
0.584848320781928
0.529273764430829
0.544324602190794
0.521966015041964
0.515658819532711
0.529300999153579
0.540575970189405
0.557988166267288
0.512020918749505
0.509986146147559
0.512353517819375
0.499094146787709
0.502803870517859
0.494235139907208
0.482354701611265
0.511403414466875
0.466175151735746
0.573075989816255
0.493222794797178
0.529247150251319
0.470210975528068
0.479964692934543
0.485940500837852
0.478628885516561
0.464523670191876
0.444797123023289
0.478857360576599
0.444222031427653
0.468036036743273
0.444030352390461
0.444417204017749
0.447428580105797
0.458805394279487
0.457167496952101
0.449566376890713
0.449708588030394
0.451049500509925
0.440805267095673
0.452297397507043
0.458568092922133
0.424276504486728
0.421716595575882
0.406258836841608
0.412220899670653
0.417738036250212
0.403158621768086
0.417940992262394
0.388047379803318
0.400013979806788
0.379587988143006
0.397181416713358
0.38586039724594
0.385986847674604
0.392017701931678
0.371392263557584
0.390055587719537
0.35452097427528
0.407735726614542
0.37878715129131
0.402916837864635
0.347655195550596
0.368879538145794
0.374818123023505
0.388160837217347
0.372310494305753
0.347839812363009
0.349714394845403
0.354590623327966
0.343864286111709
0.351431954586125
0.339095700444658
0.370163027657977
0.368240116001282
0.367301260862724
0.375129236752158
0.345062539589502
0.330115136352414
0.324200843263289
0.320940170237038
0.335986942378701
0.313479982963415
0.347133595831012
0.310097905854065
0.348311519821771
0.334929015842775
0.332459338541908
0.335967851240851
0.329691114265139
0.329945295081417
0.340026189863772
0.341582206001762
0.376574175841474
0.358448908671047
0.362000478843989
0.348705613411164
0.363616461118309
0.364009098538221
0.357945916393612
0.366148856288048
0.362609057109487
0.37481118418728
0.380106161037422
0.389005277122873
0.393262326016249
0.393263221392599
0.409204150327682
0.417999853767347
0.414933947878904
0.445123309670756
0.427677815411509
0.490403074809746
0.450104237261815
0.475876228389313
0.459603006631538
0.473336875358051
0.477189245405653
0.475304249725728
0.497912694269309
0.506470371364147
0.509145043613962
0.514739248151418
0.496500975325694
0.531073993284706
0.509985077810535
0.548974217976806
0.527001527231451
0.585167976116243
0.51936761021478
0.580967196653266
0.560351716666208
0.553597195155272
0.551865225903943
0.547625990323566
0.566609093037758
0.556591823158544
0.560179055066882
0.590333670945033
0.575710741395549
0.578419239770668
0.563455731187551
0.579613380593141
0.576590316315293
0.583460555784815
0.583374058773024
0.581185734565705
0.594823866211242
0.594552548397412
0.591681926752194
0.63391487793493
0.627807254861621
0.628393193935229
0.608587437628208
0.631696557697483
0.620091776043009
0.627176512875034
0.636716356222406
0.647150278874974
0.653348583984662
0.64379416219508
0.650424938095521
0.656561118698904
0.660959219994101
0.686007744432742
0.666704684177269
0.685379096611752
0.662846173750593
0.697012013921353
0.692728039329011
0.721139434920034
0.70174081304815
0.698905566592156
0.710577470684455
0.690382867068646
0.701030981972782
0.703758416087656
0.710860109637258
0.704114508506349
0.713154068758823
0.709902639249621
0.710434018601307
0.706125559112051
0.711581764440589
0.725163886918215
0.720358580299454
0.714573748188376
0.707908709566361
0.709428427026824
0.703707477254298
0.711653785825562
0.710800909802866
0.726639345702292
0.718673517458049
0.705268146401494
0.715977505340783
0.724179473495252
0.713035489941071
0.708257413390131
0.69956135402157
0.711187884324633
0.702737422515507
0.708624065889119
0.73023581824206
0.724392350478659
0.728974975412895
0.711998258307828
0.719906475829326
0.717156845784557
0.731095953037041
0.722921414936115
0.73813500861072
0.727991457208772
0.753573546686626
0.742390723226814
0.741343130922404
0.738417803492636
0.74226104970656
0.754941761257088
0.749012153478156
0.736418645016336
0.73691050516903
0.740138913155621
0.747261513634624
0.735212115201806
0.740061785133352
0.722276934164392
0.730479645722019
0.714897724692761
0.742661251681672
0.714492735663508
0.717857524679368
0.709913873681336
0.700895287759615
0.688935026609191
0.702617601166027
0.690730145510675
0.682631981227299
0.681104471730909
0.681997513145429
0.681817649255582
0.672621221140242
0.660037586973027
0.666557472201208
0.66336562776117
0.672991385889298
0.66478243998884
0.659561802544209
0.651260861992083
0.658294996724413
0.652186330679623
0.664829749215958
0.656511395944019
0.658193545018123
0.661254951200282
0.667011874259398
0.65328067405353
0.65782952196886
0.664182017872595
0.656530209487198
0.651950815421422
0.652724022854287
0.656719728896697
0.644707883914621
0.650490428421714
0.655567120893216
0.648815164870171
0.653690009007663
0.653966986557266
0.640252670277952
0.644074196224683
0.641106190922258
0.649463499686503
0.643912931307728
0.651956377200822
0.644160217583369
0.649727260840921
0.648912796842463
0.652034861180707
0.66068838510334
0.64437559064688
0.655512663441774
0.646917385280651
0.65344167595428
0.650302344138158
0.651608732694675
0.650055068288676
0.651592722610571
0.647178357023989
0.64842597145466
0.6512008270813
0.645935853692385
0.64052702757978
0.642152634561803
0.636214040745822
0.638169672142831
0.637560636769775
0.626687428003727
0.628380394812623
0.623139906431817
0.622641996669478
0.613444966012184
0.610689978358329
0.607510376059136
0.592795298921835
0.596264839280561
0.582442626551821
0.590356627495559
0.581339519339496
0.579679891433892
0.576694125222849
0.575052316595101
0.575073044523954
0.567159427013581
0.570198516564603
0.570935319031422
0.564494545775341
0.571299222253979
0.570265709742162
0.565999837634453
0.565594460387204
0.567336585401232
0.569794991765324
0.566312799111943
0.563110562328085
0.571358309542367
0.574782710772251
0.572389612555457
0.573611854698364
0.574727803218916
0.577890734935047
0.583212896619187
0.582324595424305
0.587997923297428
0.588278801856895
0.591184038905239
0.592400176394636
0.597498184339626
0.592546256913545
0.595615426145036
0.59931251477516
0.59709166166714
0.601842785769366
0.597989761619387
0.601972228776477
0.594025302228864
0.602068657854721
0.597766419178741
0.600666596916921
0.59690793311063
0.590105436475618
0.594282952518514
0.594101468685343
0.58748754502228
0.595456425141958
0.58666031130216
0.586826332876295
0.582000698402046
0.583774909378115
0.581007251163022
0.575495254274863
0.57087481698575
0.575425277437457
0.575460212413101
0.570348221588919
0.565413778747486
0.568377752215189
0.56681619249216
0.565113913522452
0.560794636739996
0.558666868620363
0.56204298959885
0.554102965973098
0.555978494697321
0.554990639898278
0.554256647030757
0.549131089303639
0.547471479296527
0.549923349538185
0.548402938118371
0.543615188945767
0.546978997557
0.538347971502612
0.538078009511888
0.532748221181849
0.533665113302799
0.527906503894775
0.525948273875416
0.528740153571269
0.520131283290109
0.517275144192388
0.515809271331502
0.507913182583236
0.504284467200074
0.501939592231766
0.498177849727736
0.492361055099467
0.49290160288703
0.488736823676023
0.488667604541808
0.484231423767278
0.486954086014408
0.483744361352609
0.482001271390269
0.478626307216648
0.47709526844796
0.477075693261326
0.476395897043277
0.472063237483677
0.467492156116656
0.461522259683282
0.45713791233275
0.455522517354638
0.450140542649143
0.44749334163502
0.439053502504201
0.434126066523236
0.426125774438941
0.425152520787997
0.424878356991453
0.420521858978304
0.42040490320827
0.422069845028327
0.42582883870809
0.430079691877261
0.438901250014521
0.447521374191372
0.45789018147515
0.464402517111827
0.479492532111271
0.491994536591854
0.509432932341076
0.524959661468977
0.545801239894892
0.560749623367428
0.580685125202712
0.598040469403256
0.615836535089805
0.63319515624537
0.648554732215917
0.66858825143429
0.675965169614254
0.700338838999331
0.720152012658261
0.741625100314675
0.753442735475366
0.76741343556584
0.785084959188414
0.795765818794384
0.807175871302662
0.813904300736467
0.827472785584245
0.835882143255505
0.848564471669588
0.859011282267724
0.868357160454946
0.871619248773271
0.881099064712052
0.889245045045134
0.890048141129575
0.89108912307152
0.890660449426652
0.88919678284424
0.895819173465068
0.895662551892609
0.893708979910307
0.897119401747426
0.905430492531965
0.902655568159486
0.900341336796459
0.910212683564827
0.901011528216908
0.910298198692114
0.906488961239647
0.917848119412178
0.936143236336429
0.939418722450457
0.942729129060815
0.948815941657195
0.947872202628386
0.954408844142853
0.966818419271518
0.990607042468297
1.00356688662928
1.00030075519037
1.01643930150162
1.0206350922077
1.03842935998319
1.05705263080273
1.07704655766265
1.09614670948179
1.09431390998469
1.10337078650067
1.12006384291624
1.11957209330278
1.13356050143656
1.12366684406084
1.12644261192181
1.13911986981056
1.12580601323974
1.13076040587533
1.12302317141824
1.12084147397193
1.1170502295519
1.10732755809256
1.11956719289945
1.12519021220386
1.10614257205269
1.12033950010926
1.13360378585944
1.11918958046893
1.15812747219047
1.16997886682074
1.16690006490892
1.16384609573823
1.20063298368433
1.20172634668753
1.229574470732
1.25488627274334
1.28064552664015
1.28962828556048
1.27867432842506
1.32696736876766
1.33229325441257
1.33037468529966
1.34568855376992
1.38279794787551
1.39218208153981
1.40516560668414
1.43257241457388
1.47735285378175
1.47329029956358
1.53017475418717
1.54741586555318
1.62335535154129
1.56728229907337
1.602304794031
1.65442554195564
1.69275172840495
1.621254093553
1.72588314141973
1.69070336728455
1.74868667581839
1.72561931284085
1.77211859923741
1.77393244333621
1.7868322632678
1.80083301370215
1.80376816194709
1.73334219366448
1.79462110521903
1.72280393551288
1.77809161211525
1.78880716547132
1.72397573152892
1.77391802190817
1.72341573459526
1.69771688875522
1.68375128291405
1.79069932806457
1.81584691564487
1.75928047068622
1.87072026693245
1.69612285628607
1.79703321234674
1.73965977564802
1.86297314440231
1.893518640992
2.00051007222759
1.96596607471632
1.7869369599584
1.88284359336911
1.94023643538096
1.95969705523466
2.0313432431597
2.07676578166159
1.9247460786763
1.88943443748255
2.28512522260559
2.21456526888643
2.00102775141199
2.14622004019855
2.27282134793099
2.33336089034206
2.11264121642028
1.95168167834291
2.41161776806295
2.12408344837346
1.98343424763823
2.20840821813512
2.27494939944905
2.04611954293329
2.17043434104403
2.05308911577064
2.0561404857383
1.96787000315868
2.43062687940574
2.10564495310002
2.19862244494453
2.25104368836088
2.07421436371742
1.94551924282707
2.20703065310392
1.92566945274544
2.14920296436332
1.89603821475524
2.21135568596583
1.92943705657515
1.92286421554098
1.84828710561516
1.91630550610833
1.83045800701212
1.87997348442587
1.80003416336473
1.76686798996961
1.65887910893401
1.83362052343538
1.73412980173842
1.69178930462969
1.66877862833538
1.64499958247271
1.67563063718401
1.6341293541471
1.63101218556858
1.64625986482267
1.56504842690085
1.67176397219376
1.52370784056386
1.60292676640904
1.54737044357184
1.58060238747749
1.49825346592316
1.56319506505652
1.54393130900289
1.5471220963998
1.43514689525975
1.51824489991073
1.40797894534595
1.44348169867369
1.37730077599718
1.39526290746006
1.32119248482261
1.35341265463127
1.317983156774
1.31959036637122
1.23484100085566
1.19985504702105
1.16474268856623
1.14586991064733
1.08071688529143
1.06311382698975
1.01332781564983
1.0028784614627
0.978942473100833
0.928852955999343
0.894914785370536
0.882176098552788
0.84702579685527
0.816982262063909
0.792427757118161
0.784020713916989
0.756049769068784
0.759025950359342
0.740526857497645
0.727711411663582
0.718569564821087
0.704385331182058
0.698864708452161
0.698370392060526
0.684145969339064
0.69255891822686
0.685729535785832
0.685952476414467
0.686382035845212
0.686521639531191
0.695615824692156
0.699399309943923
0.69358410807469
0.694752254375636
0.670902187961383
0.691862967698029
0.680263913853892
0.687042440143531
0.667555688251148
0.661245968837787
0.661339975800425
0.662906761398157
0.652079856001336
0.654263088708397
0.647757492913605
0.641383186073027
0.634701371733972
0.635035914770412
0.63617950887149
0.652987110683945
0.636642432671082
0.647996404239917
0.644111542502386
0.640696072952853
0.644958800969355
0.655250162897542
0.656516608605239
0.662057538766759
0.656243154971744
0.660887872725856
0.675262034992856
0.673359867561121
0.671755623940651
0.666265437061843
0.670639895106716
0.683847675409853
0.663041057025999
0.674386649497644
0.666241925799876
0.674663686038176
0.67446325236238
0.68738196223858
0.668133853379561
0.682470342551684
0.682493328676397
0.676359074106385
0.693578549480528
0.700561182226267
0.691417432378396
0.709984358033453
0.716088096909736
0.727814842719681
0.748836309590726
0.755874897752027
0.793729157690204
0.805080390685176
0.809459664665726
0.839687187326738
0.82891256340371
0.828829077151186
0.851944156216165
0.863959402773137
0.837180399621729
0.842410258526332
0.837902186333517
0.848536363744497
0.808613054621818
0.802835265482966
0.783619544600785
0.797175866638615
0.781963120339826
0.786170670311015
0.791985616598146
0.797403818996238
0.784408527044525
0.783066094460689
0.7929788670808
0.784035744846059
0.78456866792552
0.794011063817259
0.761711395524719
0.794369094036624
0.770311632046177
0.786415538596402
0.772410909435984
0.769132525028585
0.738894742319205
0.757186659946869
0.744457559498471
0.768308366594551
0.731983018165983
0.743885617785817
0.735531860679947
0.725602353221743
0.71876966356617
0.745560836588245
0.718876509622453
0.726500271931603
0.708181315584526
0.7383904012379
0.711647863443249
0.717260367530114
0.705582784090817
0.695252506311334
0.692788741803744
0.715262391295009
0.697120525259011
0.717443157282027
0.682966943196581
0.674140879182757
0.684651585221354
0.692133325963373
0.684300462959763
0.707161833609281
0.683549293982697
0.67275657475808
0.658916735749672
0.671835321104928
0.660092998339639
0.664753337099985
0.652358829896529
0.674468335468058
0.652698588515779
0.656578833979469
0.642826436799819
0.661744872882956
0.622916159661019
0.642322836098113
0.643481095118275
0.650043487054985
0.65718886144041
0.646757714506937
0.630810582615577
0.663962299685942
0.645581569382692
0.672551450946947
0.657234462822409
0.663042020118209
0.653715557872087
0.673541793547315
0.664044254351115
0.688082365321412
0.666030400663402
0.67357601934466
0.674725336187802
0.689474099314058
0.646820313855928
0.668493566726338
0.690550361599477
0.694873553371425
0.682881870607503
0.691351360451718
0.699576081531742
0.713260200392124
0.68367163817293
0.729675996035998
0.71244433458996
0.723450784165039
0.715049616611253
0.759960378690845
0.77034518532814
0.773562742094062
0.738342701258784
0.83975995565456
0.779060423280888
0.81922272000504
0.825592771178759
0.861275976873089
0.850619261202728
0.959760719393168
0.898128376056842
0.907644304484877
1.02328740814391
0.997807916828626
0.942913881082826
0.978682407311581
0.985180726552907
1.12842484640554
0.982607252703007
1.05972706257773
1.02398987795314
1.0088774199429
0.99039214261648
0.966417863670423
0.949929402438854
1.02301100936977
1.00800749546735
1.0683339398605
0.975463127123785
1.00061253339324
0.987069597052756
1.01942936075681
0.944338725728173
0.984482293337005
0.916689434804657
1.00137458816108
1.01461928492098
1.08472439502437
0.938271162594734
1.00365076833248
0.960073833979677
0.977041485395471
0.99557374395713
1.06454136362491
1.01455042927591
0.962295267187576
0.891703768237305
0.930637238724053
0.918301650598931
0.974510642401321
0.916340385582981
0.920574324854489
1.0318709394044
0.957802049239532
0.924346773869965
0.956674775132225
0.915808765036445
0.896437604351328
0.899130328660104
0.927054451661091
0.966333175250504
1.02829877871924
0.904005022472196
0.94729015847842
0.908137146234058
0.947389781323255
0.860167668097226
1.00790704810431
0.909049542863308
1.06239577543545
0.984529164406147
0.961590756787172
0.88035613665477
0.974424769977372
0.90224881708631
1.12341734639438
1.00015110189617
1.10808091668152
1.01069397161751
0.996519929132569
0.978272149213554
1.14592972602617
0.908563233423012
1.06349070557396
1.05920446113256
1.07001070857622
1.00723004605117
1.0299553314012
1.01972850103768
1.08154841657149
1.0982101967294
1.28270545742217
1.06392794988728
1.30485440549492
1.15460722703788
1.25604738138587
1.07386177547794
1.0747457466156
1.23177782109888
1.07936194784867
1.19376162683673
1.61648311401421
1.16876819811619
1.28838469990712
1.24138809068689
1.1333317539786
1.07359878585784
1.61480056909706
1.03490304414118
1.45130941478755
0.990918377256656
1.07036119995055
1.09258645671443
1.08131811901462
1.16671151243265
1.27677019025398
1.04985908073749
0.99813806474388
1.03156335724544
1.52489717854984
1.19049389295699
1.3278511294118
1.17504299187179
1.09428345354305
1.20672690127259
1.2790286603304
1.3125565782771
1.83287785368684
0.983421341539203
1.11573914843322
1.15153773228615
1.41856000423334
1.01272225838508
1.26761182803013
2.09901528746684
5
1.12482685870218
1.29916859091245
0.687957134111026
1.11168991723273
0.908407291489625
1.91993166671447
0.971008744945565
1.24192320100142
5
5
0.945521987455109
5
0.838313695037502
0.722023783735525
0.657671027742255
0.858828236665677
1.59129015462701
1.56340047608316
0.863147343390385
5
1.11221127162196
5
5
5
0.961419420722241
