3596
4000,36533379555
650,420452594757
1
2
2
0,0117337573234471
0,0268563373712684
0,0185896464450939
0,0217115079590773
0,021219485833425
0,0282657074723061
0,0154580428951491
0,0296989725084385
0,0135288633682076
0,0228090637414127
0,0207626893095778
0,0270974423239546
0,0174224495430883
0,0265889307295986
0,0174820762895985
0,0145374399379177
0,0123043792989416
0,0223308581899141
0,0195852085477698
0,0222103473743452
0,0155784194887149
0,0285831275807101
0,0206526956001187
0,0256264597347499
0,0134380467257809
0,0265777792304155
0,0152751259192223
0,0141017827694902
0,0119325070377825
0,0243602511056969
0,0220972610111995
0,0233286252789361
0,0127391577526726
0,0325691296295432
0,0187741847774795
0,0242927958391182
0,0179054673103645
0,0296173957166085
0,0201210372181249
0,0336984925970445
0,0230888381487744
0,0150373048476129
0,0162358416657252
0,0269604929420063
0,0119547835550338
0,0131985625014911
0,0163205603084176
0,0265356840665659
0,010023368260891
0,00931947318912978
0,0146948956717354
0,0219205619115062
0,0256299637388349
0,0243837647717592
0,0140715963330513
0,0318944955495847
0,0221471854528346
0,0241871894832352
0,0184896286723238
0,0224707761998917
0,0135005520919199
0,0246191738263604
0,0130912163641349
0,0294729905410381
0,0133113757698533
0,0232500894618902
0,0125830246254727
0,0298602097878086
0,0106079193400731
0,0327566354505368
0,0165976121286509
0,0320622058060778
0,0146568153488514
0,0259916285630695
0,0229466068787936
0,0260334483791614
0,0128398844527648
0,0261681437852351
0,0194309660685282
0,0317772436248184
0,0102406541668762
0,0243568309046431
0,023351932949703
0,0329653628699788
0,0180134161292836
0,0305367177323254
0,0165827828535389
0,0289919732654987
0,0246335640579216
0,0257066328656628
0,0141636123884391
0,0222835936557497
0,0151102768920118
0,0277706148454281
0,0154832790157897
0,0271714863425906
0,0212571773585012
0,0255383404672518
0,0177320703211263
0,0255257831057963
0,0247790303379836
0,0105124279368238
0,0285867083411406
0,00951473234037691
0,035715583340791
0,0223311977321319
0,0107851479303272
0,0354597644290788
0,00674688569006262
0,0322967331351554
0,0115538859724288
0,0291036038745665
0,0122781002809961
0,0336461759992368
0,00895326399572982
0,0290707858134932
0,0210975142414479
0,0243407189625959
0,0175716027857519
0,0245518214978045
0,0100929558058197
0,0239033424242072
0,0381120536864372
0,0178970933812094
0,0210038368473391
0,0290556673149916
0,0164049953955733
0,0263890351877189
0,0214562116837821
0,0188773592152655
0,0237967849010392
0,0280734958922147
0,030051740256105
0,0192018642714758
0,0204219590760193
0,0178662512744063
0,0222976345809126
0,025316135336617
0,0108411117198741
0,0341691820899045
0,0114934766534389
0,0190770294333836
0,0173098339326611
0,0236339152210883
0,0247281134434966
0,0317946781988834
0,0144413900434569
0,0212059885614317
0,017877980378542
0,0206119830051154
0,0190792283624399
0,0273574674783506
0,0224010084439346
0,024800143281476
0,0170757482158073
0,0211132770376971
0,0371896150576183
0,00910929079057454
0,0601720499722684
0,0156081776808208
0,0316668114644298
0,0162868873865215
0,0187929264708116
0,0237206121821075
0,0207025885011202
0,0239929910535144
0,015499955949895
0,0258194074932156
0,0160863869212655
0,0329112923326556
0,0100996129408658
0,0310794141599242
0,00852895857824063
0,0291031053364079
0,0202844299000276
0,0201983568159108
0,0260388109367992
0,0267450268811983
0,0235100843353578
0,0208583772507727
0,0229120894403842
0,0197742712825593
0,0249482000498706
0,0241406820246632
0,0286378297846841
0,0222831204871542
0,0261519245876455
0,0259631078873573
0,0276750913733625
0,0181920019869637
0,0282252466796798
0,0257614338550173
0,02378966883136
0,0185593061674332
0,0310268042219032
0,0230190158237704
0,0224883191120256
0,0185288512013509
0,0171760726625697
0,0275129305219478
0,0171010209912683
0,0263615999866317
0,0230870266356621
0,0269182473243623
0,0352661741624478
0,017891245486699
0,0369387946623185
0,023588081284883
0,020368938029524
0,0212238176543392
0,0204777818073577
0,0270618448234034
0,0251338523514513
0,027532200812878
0,00828086682240447
0,0336265892918855
0,013897094193628
0,0206074654779502
0,0328440860333326
0,022575708189129
0,0208685685665959
0,0278448970187921
0,0229131867396049
0,0244443081618236
0,0285955461540174
0,0303891167246772
0,020212143339738
0,026601564409447
0,027821525043746
0,0318523265826095
0,0245204966275222
0,0260324407329002
0,0228047193500784
0,0286446169972838
0,0250262007724958
0,0290166257736528
0,0313467395941341
0,0254686568987817
0,0347956121898489
0,0278470723888754
0,0291813267721808
0,0264812932130281
0,0307055961263993
0,0243645722401099
0,0389884289555356
0,0275413762558197
0,0381816954782153
0,0231340887969081
0,0330415778498473
0,0337327248443823
0,0293562794011741
0,0289638212887124
0,0247009160944783
0,0289510498519049
0,0180699455987567
0,0320689862228423
0,0237877293806106
0,0377403028611634
0,0292709910438124
0,0398461445594525
0,0334983794683258
0,0412372619958184
0,0216953373665876
0,0419080357875051
0,0100481840428757
0,0401976745047829
0,0290242575726019
0,0319347326136685
0,0380578363445038
0,0288448398351771
0,0260228375169991
0,0452697018933597
0,0380988834183116
0,0637480525189908
0,0170232238818096
0,0424908807056166
0,0355416686581483
0,0438057345886117
0,0270775240972607
0,041404560896114
0,0420585371022215
0,0316183661483817
0,0439949472699989
0,0404907383797963
0,0630523536190946
0,0384787225593538
0,0370435598223524
0,0468554841066339
0,0304080346706592
0,0457633393823491
0,0359423564376565
0,0452333583974808
0,0375223714477558
0,0559493993284809
0,0317959459538416
0,0509694013473888
0,0344630015326209
0,0588982483429174
0,0358972371223368
0,043511424944314
0,034674957884176
0,0580061732772824
0,0402823636259224
0,0541665792733807
0,0478549573685186
0,0564658846538899
0,0446984155847278
0,0448951608500661
0,051799905800232
0,0636572518657244
0,0480543846010053
0,0696684177062182
0,0432005855085803
0,0524843974913159
0,0439863856059263
0,0589892566555473
0,0521598361980701
0,0713414359025907
0,0517095862658587
0,0612784451136662
0,0549363604504667
0,0662950760373902
0,0671673551592236
0,0769176136744021
0,0713532609744009
0,0719712032057787
0,0741661659025879
0,0801880240481262
0,0745463151210439
0,0820332749675529
0,0750647579283006
0,096547950401463
0,0782067113162739
0,0938601941820116
0,0838673253424547
0,0820655412215925
0,0864970988276869
0,0867704755902452
0,0955228302491588
0,0954778610159227
0,106131900396854
0,109761825627242
0,11208973423391
0,113736476980198
0,110786252675768
0,11301489703794
0,128865064675147
0,138513252900448
0,132376545541059
0,119025370063452
0,117051976301304
0,136609400345267
0,130240010980997
0,163274427574197
0,132377781828958
0,163316774913976
0,138530786286642
0,156193872711018
0,148693164224313
0,163862003834107
0,158851315529733
0,175377952829375
0,164285488874566
0,174705939879779
0,175804143555559
0,177646540277553
0,185511142789578
0,19636469593708
0,19547623867253
0,196286597476126
0,195874383801218
0,207641549529027
0,212091525696176
0,220741415604108
0,229478350549981
0,226289456919512
0,238983856669439
0,223265805966201
0,245454986078918
0,230459937160121
0,240175337628983
0,241167236302619
0,245844396292281
0,253308187874559
0,25394823470225
0,251889504329619
0,255628382970145
0,26455306927648
0,266528332261432
0,263442042392576
0,266813525962676
0,276787833406286
0,280493789954456
0,278394590977997
0,275469168698542
0,306593216588867
0,295564965476241
0,297754597536072
0,296387860416417
0,312496331212128
0,301269360314724
0,309270049424321
0,29565200542402
0,326340589625179
0,305279894631912
0,327686330947804
0,326422884950464
0,338922928963881
0,34071465375478
0,335844840017304
0,334386858534375
0,341579205986975
0,348792846154668
0,358717973131115
0,348950543961609
0,365812333206647
0,330727884607556
0,356531803673707
0,361755409303312
0,380461395156725
0,362533145687524
0,388791682690404
0,348811991270765
0,36873895914496
0,369523431173049
0,383491793042313
0,401007694175487
0,390530923177617
0,389119282371528
0,394165149557381
0,394033445570728
0,401959235350269
0,396660895043696
0,413930154353021
0,418796421589953
0,423618839198748
0,413039252407727
0,42895859018841
0,416268192711218
0,429432051220181
0,422141186713344
0,450699785024665
0,421022056678157
0,434541311458659
0,420960827566904
0,44459648916918
0,447048217166655
0,452290301665367
0,457323241974716
0,480007636555213
0,46690593700977
0,472144947618628
0,469095650271509
0,491864510242945
0,478562753745793
0,46646246282135
0,462476173585078
0,471803669072042
0,486634656290348
0,494911977945707
0,488750601436677
0,512104835672302
0,519436176680259
0,541657886901512
0,505147902759553
0,503598278603347
0,491875158938389
0,513333969456228
0,512825464799763
0,506614873414724
0,52807002074427
0,54127030375605
0,528011075991891
0,544471780260279
0,553063682267285
0,548946216696381
0,543873040244351
0,558126886982861
0,558475103885795
0,555075293681949
0,558874394556629
0,567964991976972
0,561232696493261
0,568506408439591
0,581631859449452
0,584974221210959
0,569466452794772
0,601070000345796
0,590251761833808
0,596207118640713
0,597080795247279
0,583038209116137
0,60323471740085
0,59665865987722
0,612161249488878
0,617092755507454
0,595113581044227
0,635323161975808
0,65357634099415
0,653218708439955
0,659395832681683
0,642255622935511
0,655127030536645
0,664566056049958
0,653493242586175
0,638512711859206
0,619091054921859
0,676106235339294
0,654039386679119
0,667734951646155
0,67640659959541
0,682729198539399
0,701044226242132
0,666145523505965
0,678681262345684
0,719461823673947
0,728392518400952
0,718528371801112
0,688571894303952
0,715780013850716
0,712317314658508
0,685482347525163
0,735456920200556
0,701339264151452
0,723294299705082
0,747464467476803
0,717673490642376
0,733011582962311
0,766567893431591
0,754667283048202
0,742535539747563
0,753974198941004
0,760255032427642
0,753992587697284
0,769174514206635
0,760121953125843
0,793240244798101
0,782453965602191
0,758501586640684
0,774847689214249
0,830602482858607
0,796915973431108
0,783495411437317
0,786256998038563
0,791536912308879
0,841416741168753
0,813959670638121
0,82974915930808
0,844573148208306
0,849088884435763
0,852691824934149
0,829284705592744
0,838105195648096
0,862163616322331
0,884716069201547
0,858749812740801
0,791539120888789
0,818847025149065
0,877696027145059
0,917894796628404
0,893436080552255
0,867161163592493
0,890276955697078
0,884433446677941
0,883235804541941
0,819087981475999
0,833289273710623
0,847643036266345
0,879352418723783
0,890607509112748
0,860594495466587
0,914249656834028
0,928821005670581
0,932550549175257
0,970098068574726
0,915262861955208
0,922553620338027
0,907555957263685
0,955500973734608
0,932081235406948
0,926429619249553
0,9825648854125
0,966870471190039
0,993259218032618
0,987982862350238
0,936637788966572
0,962806896912703
0,940041024935001
0,977991244887475
0,995615172164529
0,978410914751321
1,0031891396255
1,02427105044376
0,973379163616278
0,955794863703993
0,984940685007775
1,03704766276005
0,987404621846486
1,01118494036698
1,01282448529376
1,00765578574852
1,02859127782548
1,08411729273664
1,03428004733722
1,034946409266
0,967221741045682
1,02095745395533
1,05891808535539
1,06999007903693
1,05464705131991
1,07683153386754
1,07236474452568
1,10197525742915
1,09664329830074
1,12881976432859
1,14403610963407
1,10144244383843
1,14537957662782
1,07867379802646
1,04740282465902
1,15634137786762
1,10233979350698
1,11712868463133
1,09355192869631
1,07880904641702
1,07489471995744
1,0868053751431
1,13139195238733
1,1279797989132
1,15000203916846
1,13237580160492
1,07875037884505
1,13442495069462
1,09969543036766
1,14511099500943
1,19819273873099
1,21498456840915
1,1219327434693
1,1157603548144
1,18734240411605
1,18019582390323
1,14700457138317
1,34600338785237
1,21607612997948
1,25146130941145
1,19304094282633
1,21942943608832
1,23149797349453
1,20795370245314
1,15539874118151
1,19110857573263
1,17917335468859
1,20962031094939
1,17978457719762
1,29855658069126
1,18077438644191
1,19336109077326
1,27031806766184
1,22663595810324
1,23406479591526
1,27597890268476
1,17628522623442
1,25079363795354
1,21074593656058
1,20894164375912
1,23431829060832
1,3508920025819
1,22332420362347
1,29174408064298
1,21453900620562
1,20702661636189
1,1738805910776
1,24442119290918
1,16185764382152
1,15562040726786
1,20706544122234
1,27188173802615
1,25893641681687
1,32436073093114
1,23726031437864
1,32271642820979
1,3010471776175
1,22908681304795
1,24352635933781
1,31562640578196
1,25689985962544
1,30003474783551
1,32975492505883
1,30155099111953
1,2953148265563
1,34202357926357
1,27788868192719
1,39605070242242
1,20462399566706
1,24692690277827
1,18410095211195
1,2813326794218
1,30145408234239
1,22712980648468
1,21468907093056
1,27416345879849
1,29044578246137
1,33812334600365
1,2835360897518
1,20835953957583
1,19514875922547
1,32711645134377
1,30959705945642
1,24410502835048
1,2147015215603
1,23616325535225
1,32759561369785
1,33495927509493
1,24345812225243
1,24516151528022
1,25394383897315
1,24772441533178
1,24165134631876
1,31598457076527
1,18280309072564
1,29515862040124
1,24188639999481
1,32148447389607
1,3006049137798
1,32506367726476
1,26246115989388
1,37088220671535
1,26047291452626
1,20618559597338
1,30498306287682
1,23184626276755
1,23367294387907
1,22601386009685
1,23234400634227
1,26219551300457
1,23134648779521
1,27165232353921
1,22644313679103
1,25742965199598
1,2068118253362
1,28694711859709
1,30686142628627
1,30610830859041
1,24290314769303
1,37679117958363
1,22709841594742
1,26041318596919
1,26796079031564
1,23561385397608
1,29075748472932
1,42694871392166
1,34310698372469
1,28278610329368
1,21293342581115
1,31528460189074
1,26885682781559
1,2322066634738
1,24499059455323
1,21737385956262
1,22850055986283
1,34259401646228
1,24976651335259
1,32488475190143
1,24703614864789
1,28917646819361
1,27633948723826
1,26592539991443
1,2042245540368
1,20313926627619
1,19571891908794
1,28979408173784
1,2597823375403
1,30578059659388
1,2460055432531
1,29893677821787
1,2608141338952
1,27470604002398
1,21791525433295
1,33034754237662
1,23788120729633
1,2470294795127
1,25312845192316
1,31918308972863
1,2447594273098
1,21645441962726
1,27684877057188
1,33497588570045
1,25330426526284
1,23772813879064
1,29432731433098
1,33999923025911
1,24816706577103
1,28541280189639
1,24790116956666
1,23000179427925
1,24724429485919
1,26054899599755
1,24582427568938
1,2868875707797
1,24943104599137
1,21339580523611
1,22936508626528
1,25614207016747
1,19796604280873
1,27707298729073
1,20394018950788
1,19357597674013
1,23184328511046
1,36038810531006
1,22884963994302
1,22760262939385
1,27466107842635
1,25025131175269
1,22092461434153
1,27990332566903
1,19923820383252
1,33372530079964
1,21433960310542
1,26649630314186
1,22677956905988
1,23469857472692
1,19835463965102
1,23170582081668
1,21554477140364
1,30075673220724
1,21695263832419
1,20919030297299
1,21797533608427
1,2499334885984
1,15867930914985
1,22107018241906
1,18052759171371
1,27803276089806
1,20936293200584
1,21427076090195
1,25791691769302
1,27689008325269
1,15371841245614
1,19656769481619
1,18838048159949
1,22995372352998
1,19702270423495
1,16880714445328
1,17722320080327
1,21604755836499
1,20418599723537
1,19233823914596
1,13843109346903
1,17883360751154
1,17014108109994
1,18713017913992
1,16023798585193
1,24198979587584
1,13895525530108
1,16979115844042
1,13789814096237
1,14490106657823
1,14598299479719
1,15989319140425
1,10843669527978
1,14710142369214
1,12071619965836
1,13832490353941
1,10760841095017
1,12002869207759
1,09309463358226
1,12197178108773
1,10160719556899
1,10458635546066
1,04182796222481
1,07777227342358
1,04773475341509
1,09534189507862
1,08290680694342
1,06466905018839
1,06386676393703
1,07123048579893
1,01591840122044
1,10520007829914
1,05358835130417
1,0667692261668
1,02866122828039
1,04539476771067
1,02999764407199
1,01265677815631
1,00655970861132
1,05217835587758
0,996687937398172
1,02989832340942
1,00904976771886
1,01401300628614
0,985843048449872
1,007351546045
0,973987525959684
1,00236070171802
0,953085461480614
0,992544632552163
0,959339577510614
0,971304644444798
0,949173379659318
0,964938265246262
0,943193780063717
0,953545663384969
0,971334692365671
0,927956175018101
0,907153258824592
0,902890027190708
0,911193591608134
0,916178334262413
0,899909415219247
0,90938004446028
0,87983766483802
0,89976690192485
0,891763115265241
0,888674281300698
0,858943210922223
0,895309564621292
0,853893070466568
0,848670035328632
0,859899587513842
0,84250906449991
0,817072005056027
0,848385916207972
0,830921732676683
0,845517288288868
0,808798972330349
0,82637847463262
0,796696823527815
0,813905207669773
0,796524181561303
0,816556608365687
0,79140059687466
0,822011977749376
0,787885816532981
0,784666531305143
0,769951519499895
0,795805433685492
0,773553844929702
0,779114531021058
0,751855587697563
0,753883282922207
0,740888418137341
0,735211188383442
0,731845523402944
0,729035494460226
0,738847857381744
0,728086257120812
0,706027648644033
0,716755474529595
0,715889526980662
0,718264818994194
0,685614281276427
0,699972898441544
0,687808078069902
0,698321144091107
0,694435293452878
0,682311578127682
0,676981174840375
0,694128658442531
0,670484703672375
0,669198868246874
0,649265811953501
0,650894299121798
0,653901899703563
0,653755863455453
0,643294192583017
0,655549190614199
0,625307791668664
0,631856420507078
0,619409052475785
0,624743003880377
0,623041828192775
0,606530592932911
0,601742839108836
0,591241540598408
0,597510277930596
0,607757165531194
0,587312486680408
0,594259569382207
0,592180728436735
0,590486425206833
0,574510063354059
0,576676322355725
0,568185991584816
0,574733646899496
0,564407790352069
0,562922986229663
0,548677047848689
0,553370753725364
0,544236682186847
0,541416728667257
0,535515955789973
0,534247716373798
0,53091150970704
0,536482806535794
0,528091156639426
0,530458214883821
0,51273193400819
0,523831164489884
0,50228097727011
0,504590516302634
0,502336115788791
0,508245824621645
0,487407282050775
0,492380675407518
0,488814524498049
0,496586977462996
0,479252098719583
0,480886549891789
0,481851068273272
0,470637497465859
0,46817478284969
0,466037726036555
0,462879635082811
0,4592967605469
0,457832942772079
0,458704740604226
0,438744194747926
0,451492573968466
0,443600671061734
0,446541546669174
0,432888031636209
0,437161840240337
0,427437442726726
0,434515254189463
0,424219317073515
0,4203314542361
0,424687913197066
0,421501066139962
0,41786988991641
0,41011774051258
0,407851579876512
0,402483880992653
0,400606538023416
0,397234935313689
0,404094413333126
0,394625987635141
0,383189941682305
0,387168523997482
0,390014085185423
0,388456011027615
0,373983543895727
0,380451119034053
0,370051120126886
0,378182031035095
0,368494286549509
0,367893264445677
0,365303211817484
0,361911539982653
0,35754417324293
0,363528939590173
0,348476718325284
0,35146445868874
0,351728423857299
0,350400964801106
0,339983070765232
0,345149615905687
0,330679810635693
0,338114915699523
0,336251070143861
0,334007504697889
0,325657378706632
0,323956525582183
0,317413014301674
0,326279647449222
0,32408261656532
0,320681222299091
0,314379820046157
0,319878803925409
0,314043273436065
0,313984402737387
0,306992834190234
0,312793525456028
0,302040325558391
0,302283133815291
0,2995196390724
0,302945682267614
0,291365177762842
0,296265736213682
0,290498725184921
0,289209021706417
0,288338353802608
0,287594794293946
0,290752896524782
0,278142176716784
0,278007079510526
0,278835155128669
0,278290222098266
0,280611958055154
0,270356260576158
0,277492395630858
0,269524436150723
0,269414756382771
0,268454821208366
0,270820648872145
0,269131782362958
0,268266806404922
0,260671862860378
0,259211382777328
0,261982545396621
0,257479042250557
0,251506919400741
0,253422623192422
0,249662475026364
0,246978333920214
0,248568183472511
0,244990761508934
0,246977100500302
0,245088385998027
0,24573271290566
0,243045074745593
0,238868490547394
0,243127770430512
0,238235998856609
0,235343936744782
0,234893053789926
0,235037580885571
0,232766866397933
0,232474786321413
0,230502054358836
0,234346221753825
0,229922712885064
0,220101534912559
0,223980972625106
0,229907226164175
0,219094922133279
0,224736850213843
0,222555003275335
0,22185737865611
0,212332468882891
0,215793218549005
0,220703883879981
0,217906549365247
0,217449662817225
0,208758153724968
0,204322309160143
0,211456153411474
0,209707583587756
0,215086337063973
0,201055783743752
0,206158670894031
0,206560064501081
0,203711892895764
0,199672414437337
0,204069368020353
0,201201836096898
0,20511999797557
0,201836763933239
0,200199422940718
0,195659296247554
0,200800041679136
0,188853109650131
0,19928884844254
0,191848287915597
0,192669316005515
0,190383473831718
0,195985825256394
0,189446665123608
0,188283771667095
0,182844697258733
0,185222392802723
0,185094800068076
0,185448125173423
0,175163374068553
0,178718509119112
0,176236879894306
0,178991772753232
0,1720990943823
0,179631441428954
0,177181760429806
0,170129490742374
0,172463843496675
0,172690858617464
0,172188167155878
0,175304222862787
0,163076462355908
0,17109997986096
0,165618058710519
0,168745684807659
0,161766065680007
0,167008620645348
0,161807894436192
0,162235476944469
0,160975389847791
0,165748217721403
0,161265409410492
0,159315235985668
0,159133124148764
0,159338561155407
0,154728171358292
0,152918414619096
0,156703497567731
0,156270103036643
0,152210017425813
0,155714198802963
0,154583377835012
0,153239192671763
0,150953891238296
0,145932761761559
0,142183131100978
0,145484260411525
0,146571829774002
0,145679299566256
0,149931000216858
0,14186840333639
0,144084616492498
0,146206083449985
0,14026157007889
0,140421333083263
0,139709473817525
0,139181011216438
0,141246817276638
0,139772107288694
0,139754183855306
0,140325389688742
0,132531397808807
0,137074690993701
0,132092066652276
0,136003797134954
0,129600561757391
0,132832701470575
0,129030489740628
0,132674302836745
0,124539755565619
0,1291699203096
0,124731048071687
0,128242436772813
0,129480050850839
0,129180128684574
0,125884863174582
0,124842902584518
0,124476891155411
0,128300693352389
0,12073141535937
0,120377670851455
0,118823639182764
0,118910515369632
0,119717154451391
0,123049257644659
0,118277936808195
0,113835436287897
0,113399713268595
0,11707726436776
0,112201358506169
0,119822989796423
0,113776898407123
0,114660497515437
0,11138407543334
0,111305238568804
0,110104237743468
0,11280305890049
0,10968854839512
0,109753720030836
0,107330576766445
0,111047985131164
0,107074114906864
0,10457172823009
0,108836220165227
0,109685090946227
0,106765877751014
0,10416280827085
0,106266576476949
0,0996454253178975
0,10051082954323
0,100884900473945
0,104019991080616
0,100317882205372
0,101253781538839
0,0996827410612305
0,101054304354859
0,100027185451378
0,0977834257359315
0,102081119205886
0,0999665896471906
0,0957193921859018
0,0980780607233789
0,0969229857228709
0,0925347479548646
0,100090276763901
0,0958571356042345
0,0936162239206223
0,0945326198646878
0,0963327304071333
0,0924323254310303
0,093302988224731
0,0931865814832147
0,0928792171790067
0,088745346270477
0,0948005694929875
0,0923680463504902
0,0891334841685841
0,090566336600413
0,0877892524248289
0,0924590819559598
0,0906799254792552
0,087332789061828
0,0915775068854022
0,0904377117016572
0,0903834491268131
0,0886831068584939
0,0895238208944352
0,0852776708288402
0,0858910869975695
0,0870980676349747
0,0878169744396819
0,0868171453513138
0,084661226557242
0,0836047522092626
0,0855950326628847
0,0817390237168753
0,0878550065402144
0,0851854156399941
0,0828537278143133
0,0827046954936315
0,0814643398344945
0,0815666663351007
0,0830776649267256
0,0821651120914149
0,0841492197640855
0,0826474685679887
0,0867215441999071
0,0846852136856882
0,0802065985544879
0,0823973613137942
0,0834294656790042
0,0809101502937919
0,0820493956627025
0,0775897111029079
0,0796138993458172
0,080533531858972
0,0830652692558903
0,0766961408337707
0,0798609557832184
0,0792671509515151
0,078054501467967
0,0761219541070181
0,079939064275062
0,0771198358302636
0,0784989837361604
0,0763207871650248
0,075052246971427
0,0784952720766348
0,0774855245734264
0,0762029643111348
0,0771775005660467
0,0715109884731247
0,0749542593654977
0,0750977884167128
0,0758269433410507
0,0782885128265776
0,0776722717882644
0,0719752676085789
0,0726152795490577
0,0725229940327834
0,0756266900306925
0,072129632956004
0,066372907821752
0,0727362446079792
0,0729970702792733
0,0687480409178217
0,073835211512847
0,0728458606766212
0,0718925002541282
0,0729988651453146
0,0734595459780771
0,0696912083161051
0,0719844725293312
0,072091317040079
0,0708770940928194
0,068182103495141
0,0721043624202114
0,0704289094003933
0,071649187830912
0,0685061365039884
0,0693112823654224
0,0720305526915735
0,0714078175834439
0,0727391982107228
0,0690537319111408
0,0659675892766986
0,0671252337165665
0,0674064201300026
0,0672315792047424
0,0667205257163568
0,0676272053403805
0,066739062949518
0,0694472475542924
0,0680807239978404
0,071359635397442
0,0654546064518861
0,066660518727409
0,0694589969920827
0,0679976296003607
0,0693748090166239
0,0677637994525948
0,0641888915210746
0,0688898560104161
0,0657536871703803
0,0666449321080468
0,0644765176127105
0,0675368738615952
0,0658020352760126
0,0696066962992428
0,0649831524128598
0,0655365123998361
0,0654424229003555
0,0665496140281494
0,0640836545444125
0,0672578970997957
0,0636118472698248
0,06375141529165
0,0663221217666144
0,0641847093761608
0,0656996511243418
0,0642122966220711
0,0635525499361496
0,0644934232001815
0,0599330547564501
0,0655271562023754
0,0646132805301506
0,0645877816951622
0,0628815523254672
0,0658163906225252
0,0629478297592206
0,0660201997633373
0,0619404253864463
0,0625305827984812
0,0630654816976268
0,0617493943625854
0,0621062622231458
0,0653039177256096
0,0640904993344174
0,0636583832034762
0,0605254411858642
0,0623047828585438
0,060143498385239
0,0582320184189294
0,0625017212550809
0,0675929880932337
0,0624900142945147
0,0615234777943572
0,0619288422647004
0,0602854881811732
0,0617252233713134
0,0629653213852287
0,0583966768607525
0,0650833133393492
0,0612214112185983
0,0643483441662375
0,0629289288409305
0,0610382425211325
0,0576498320081771
0,0606745914578401
0,0577201072661121
0,0642407266268173
0,0589311274754632
0,0622444893247715
0,0642039100996321
0,0590821261553167
0,0602983957868845
0,0610189907632687
0,0613176458783983
0,0608476896454656
0,0616200903405012
0,0574015456709661
0,0576811918776679
0,0625584164067015
0,0608708416095137
0,0568596662135883
0,0571919830410757
0,0565363112643143
0,0598712599674194
0,0629349813461101
0,0585470868537392
0,060346135705523
0,0601485532715822
0,0614049474522801
0,0589156930339387
0,0599254642493586
0,0559191638168405
0,0591799087468644
0,0591052985930138
0,0604431265299835
0,0580353906509457
0,0613328438103551
0,0612530027008274
0,0582884320515307
0,0583142913246363
0,0593418820892377
0,0589687364136105
0,0566704252371176
0,059376140208214
0,057763375255157
0,0580043675017771
0,0591766010232199
0,0586874229232856
0,0591520135482098
0,0596528373617887
0,0576264820918843
0,0582254133775146
0,061203865988102
0,0596875940477739
0,0570116640442451
0,0590187806549354
0,0573035788753352
0,056386547147593
0,0579992156962521
0,0566559735803
0,0564744712260586
0,0567143444745388
0,0566550712658574
0,0576724220046724
0,0567370409908277
0,0577574189759716
0,0594915259166098
0,0564016013702842
0,0604644084782142
0,0577649443226765
0,0605472514871001
0,0577451272023826
0,0570898612006591
0,0538627709688776
0,0582288342312916
0,057849863248492
0,0590422577672512
0,0557550318734149
0,0581507109880078
0,0577740257736844
0,055565591269305
0,0578984241176658
0,0583690150187683
0,0568542179614451
0,0594692103452503
0,0533658136454023
0,0588792167576048
0,0539700257484361
0,0574329751474276
0,0584215935521867
0,0598597840545619
0,0586722097941331
0,0561614035228674
0,0572736776654673
0,0580194353652422
0,0602877688474915
0,0580394294413989
0,0569641051015847
0,0575571017789621
0,060059049642485
0,0598496568713181
0,0578079490118831
0,0574948943280453
0,0578653238737003
0,0602692380343757
0,0570771268332687
0,0584762221818537
0,0580700308115838
0,0592068562928167
0,0564944628196038
0,0572201760467568
0,0584925178166041
0,0611765587731149
0,0584931562019805
0,0581918461959356
0,0600149245993583
0,05969794645728
0,0594351188523686
0,0572487537834657
0,0571625788108208
0,0586060862420804
0,0570249931364126
0,0593013286451384
0,0574970573472494
0,0598442561924979
0,0587925168223887
0,0569702371673076
0,0584660272521568
0,060747574488647
0,0566707764856446
0,0596512543132696
0,0601754989303934
0,0587459258084764
0,0558725403098598
0,0601359026620638
0,0606164382891721
0,0592874381662125
0,0592922561694167
0,0613827832693107
0,0598241845390927
0,0610620081885733
0,0600318282330538
0,0612339900231346
0,0591909530339063
0,0607503738918867
0,0601510196317781
0,0595004749121584
0,0578544934674797
0,062036922704987
0,0628746693431396
0,0599865933297921
0,0581629671173141
0,0623902708732789
0,06214869143469
0,0597510159311285
0,0585594800064624
0,0599803242989922
0,0616211789434649
0,0624439431222564
0,0601654963820123
0,0603362810795496
0,0604317920066225
0,059636289491093
0,0596450895123995
0,0599957278772799
0,0566060049547353
0,059765373991457
0,0615381468148567
0,061573544557464
0,0613234502157327
0,0601764107135572
0,0602181288588324
0,0614026649974559
0,0603607402886023
0,0597167855922025
0,0620987483700922
0,0626728416334567
0,0614344545231054
0,0607930801965271
0,0626707674316157
0,0623430706865214
0,0623939183364371
0,0610023119535352
0,0629844615732298
0,0622828392141232
0,0619290717839454
0,0599217833000366
0,059307123984741
0,0622349598543961
0,0634086826564104
0,0635620781361408
0,0616348900465182
0,0621742023120845
0,063826924043208
0,0593171720677025
0,0607701705796726
0,0632012340159292
0,0625254195183016
0,0611541324490224
0,0615581474691312
0,0616573619419503
0,0619612134695431
0,0614165966306201
0,0640635274640664
0,0653509578519705
0,0632529266134743
0,0627244026665604
0,0635912021037684
0,0641341018312552
0,0651175081665302
0,0652959761772336
0,0637735793968651
0,0641722799756764
0,0634325594632583
0,0626420892724854
0,0644985398368305
0,0651438443392695
0,0647425411752964
0,0633728261700155
0,0619709399823255
0,0659627533040266
0,0659114081743967
0,063436986689448
0,0642358046103495
0,0650226869950039
0,0631362384051796
0,0639445011179238
0,0646792223160459
0,06316550880042
0,0644781364149204
0,0661587198608791
0,0643373486687545
0,0642509607626186
0,0657080876360238
0,0635092841949805
0,0647003171765476
0,0665024428780621
0,0671488391478548
0,0668388145403103
0,0683099073524605
0,0675075435375841
0,064501056644756
0,0622747452899395
0,0672309135572595
0,0666938491990341
0,0646120207234599
0,0668289754113382
0,0652758031511487
0,0673128112763442
0,067474455995027
0,0663760922444914
0,0674602367553179
0,0678236795197178
0,0670920844664973
0,0642073822926789
0,0661977131252923
0,0684511635836546
0,0667034018312224
0,065720864223844
0,0669662189703588
0,0676304752928864
0,0676445992015009
0,0667873185706364
0,068108532166638
0,067700802540208
0,0692105773922442
0,067676916096371
0,0666955918527909
0,0666213281777417
0,0656503133249624
0,0662840487491381
0,0700931888681771
0,0669506317636749
0,0669933497734341
0,06834901812405
0,0686054674260059
0,0691061411014956
0,0701263392449196
0,0688837610530369
0,0696705921350511
0,0704835509410654
0,0707368981986253
0,0693663556517805
0,0707697605677626
0,0727193167255734
0,0727335161534774
0,0722008054419955
0,0715493464183193
0,0703146937842013
0,07374137600559
0,0738792246162979
0,0767113806234751
0,0762752746198628
0,0775319047676235
0,0782426427878462
0,0786885886769485
0,0773516558357091
0,0816175555728923
0,0801103062515037
0,0797313715180912
0,0808124890300221
0,084547744469454
0,0764188560870659
0,0846164590994209
0,0825826590154607
0,0838757997715472
0,0858891600274466
0,0851334029889377
0,0814118389700071
0,0894716556142102
0,085369184754438
0,087220068664242
0,0798179921064209
0,0860667207578099
0,0876254734073676
0,0881548674575641
0,0831548956636354
0,085575502100018
0,0826038437783912
0,0879224392356982
0,0806265907298935
0,0885258864112108
0,0786464383726237
0,0824612796491836
0,0777133855634391
0,0882049214235296
0,0769624458431768
0,0888124441410074
0,0768133757027868
0,0876817143883103
0,0823199226664256
0,0917223471683354
0,0819202757466717
0,0964075717137713
0,07991046198482
0,0949504557573486
0,0826621644876356
0,0878362638148119
0,0789874885727263
0,0911513133182654
0,0787563910956397
0,0916177871930837
0,0819989828245509
0,0954540846701872
0,0818940625355752
0,0878780649195017
0,0823461306094329
0,086856294305065
0,0865957667663693
0,0838347604475891
0,086173373311132
0,0824018653719325
0,0951668573909314
0,0784988565675543
0,0964606893327801
0,0728562520141137
0,101867081727549
0,0701828775515768
0,0994110251233293
0,0684811089211859
0,10110344223396
0,0702228728625566
0,0997785040152585
0,0750854111095466
0,0949884390853553
0,0788547297848553
0,0883255641032254
0,0811043290076745
0,0845936843495282
0,0831108582971203
0,0844686717314914
0,0832538771713221
0,0860414063963443
0,0822928701195191
0,0880144669141998
0,0802830362844186
0,0882420941823949
0,0839882434703988
0,0895002288479392
0,0808080709951203
0,0865006187544771
0,0817796872253653
0,0868779424637792
0,0826580311652445
0,0867940534949033
0,0840405857619605
0,0855243169386807
0,0843898743965925
0,0898948005731195
0,084526988309185
0,088266345822458
0,0849429484695426
0,0869511693228626
0,0840754383692126
0,0873648052410568
0,0836584120256827
0,0875281795071141
0,0847890396981028
0,0883838268675139
0,0845380562873026
0,089300734058462
0,0842241173957583
0,0874207155555104
0,0871511429684347
0,0885066669779876
0,0876059137596096
0,0922789510762858
0,0858748065770395
0,088921553605365
0,0887524482831199
0,0913520116307455
0,0881754168062358
0,0911615893820335
0,0870693034953288
0,0900261101885487
0,0897476645597979
0,0916615969621955
0,088919983332475
0,0931041346250635
0,0906121353585942
0,0914653447877084
0,0880241983946646
0,0922557704231645
0,089514359798054
0,09314660358867
0,0917344567948473
0,092934307970108
0,0910167329048232
0,0960003822595264
0,0933305880297951
0,0941239070031368
0,0926932548592632
0,0939617590729996
0,0917717322475353
0,0950505666992196
0,0924830596836643
0,0948530213957265
0,09405145968011
0,0949023235475512
0,0950728128611962
0,0967968380789273
0,0947700706885537
0,0978300931377596
0,0948818678094235
0,0967360634176717
0,0970991005761664
0,096143645766406
0,0948429326293513
0,0985921394325453
0,0952711161617286
0,0971587554748612
0,0978884933156512
0,0997865708885149
0,0984461456178496
0,102491595648022
0,0964692994539021
0,100756337113064
0,0987188599822125
0,0992155278285222
0,0987770883943347
0,099446203729973
0,100007734837459
0,101182554179921
0,100180344149997
0,100049443288276
0,0980634521357026
0,101818872888415
0,10101330126484
0,100856774892693
0,0990005330249217
0,100021503670045
0,101033232037813
0,102115036143016
0,101203868372702
0,106102906878008
0,102580369568565
0,101957253424626
0,101911206417582
0,10435398957143
0,102648288660808
0,105372260929428
0,104121106624
0,104365574320026
0,104013563780962
0,105732584481335
0,104401904352909
0,107135734075197
0,103787711604652
0,104473339535935
0,10530876174575
0,106626663163603
0,107149640165078
0,106729692823836
0,105621015335969
0,10812968391155
0,107926651280941
0,109365094842249
0,106815465804155
0,108961178287719
0,106779496890222
0,109306442965462
0,109700537385004
0,108349799624018
0,106217367359663
0,109179252577773
0,109627607171279
0,111331627715686
0,11135594432102
0,112793777142447
0,108709633829026
0,110538359232912
0,112787140664626
0,112627207581807
0,109400322285771
0,111705011556151
0,112359101078575
0,112146628305175
0,110756020829185
0,112606144936637
0,11214495039178
0,112902566566206
0,111550256658613
0,112532808664341
0,111290529449884
0,114130531821246
0,113863894819369
0,113137210174042
0,112578859661346
0,113992644029184
0,113581616604192
0,114699078243883
0,111138624559717
0,113235511359834
0,11435814253929
0,114418247711676
0,114699931510913
0,11549561478929
0,115460404581771
0,116016116504465
0,114432877877571
0,114373865975658
0,113593636987012
0,113906632436696
0,115324583055323
0,114979652634819
0,113753164887723
0,11832541069364
0,115382298889516
0,115616345131296
0,116551877907988
0,117877531089248
0,117011723375694
0,116197214518472
0,115823411406478
0,116019175439795
0,114358103479934
0,115632913612839
0,114673489442068
0,118579255372049
0,117185586049311
0,114416974592949
0,115328321445209
0,11710492769082
0,117590229480406
0,117340728964626
0,114861976230519
0,117077680534318
0,115331860350793
0,117348068484706
0,114977979238515
0,11643101149054
0,115696893205215
0,116581142356588
0,116724699074287
0,116431552587642
0,117150272120282
0,116477963437481
0,1144724986704
0,11641919922223
0,115903438972881
0,115086280346061
0,114906657207061
0,115013731682074
0,115098082853158
0,116387097868787
0,115822033577264
0,117189592060905
0,115683690389588
0,116392851968834
0,116469122903753
0,118023147498509
0,117573946732623
0,115531084719477
0,115303715485967
0,116715255968892
0,115060032718904
0,118976983482466
0,116496404455192
0,115069735242484
0,116825749364624
0,116391222848007
0,112647431907575
0,114240086159872
0,112338870471252
0,11203412956559
0,113592673292856
0,115597177397674
0,113848367631598
0,113402660023558
0,113330306106851
0,11248365242335
0,113456164840501
0,114323770020407
0,111601784268573
0,11221015782972
0,111940371051852
0,111118437193708
0,113386584429252
0,113538188868977
0,113596696483354
0,110635468611604
0,110774286120774
0,113395856002291
0,112654751762542
0,112239004182014
0,112527332364468
0,11552199156344
0,111492937328419
0,112409723577533
0,110069254946501
0,109679645196168
0,109633115149782
0,111444371723877
0,11111583667755
0,11128675864813
0,111030355032554
0,111153723366413
0,109611753573036
0,110626951572571
0,109861284917984
0,110216623330938
0,107704695547438
0,107740343448351
0,107806267826121
0,106073837205694
0,106714565985002
0,10809532646184
0,107527896380799
0,108049149164281
0,10842243586382
0,108034415365161
0,104591332543866
0,105363504863404
0,106818598967716
0,106660907436074
0,106510983759604
0,104534323089106
0,103987813691988
0,107171709746338
0,103845731285969
0,103614287215162
0,103755103333236
0,107652232924122
0,103872506203745
0,103506458780523
0,103976220394018
0,105127838209784
0,102971318699831
0,104514491526003
0,101570994232743
0,100308933893651
0,101796498738687
0,103468080356017
0,101776598886636
0,101954239255412
0,1010382634379
0,100107857253114
0,0992496629426183
0,102163296616755
0,100735107028473
0,0996051121742367
0,100918226185118
0,0989031323777131
0,0999576931488182
0,0971715248123434
0,0977953869441145
0,0996678359518912
0,098583832400388
0,0979535062036986
0,0967362548095531
0,0950547166414567
0,0962335576937632
0,0978670861764336
0,0978167715001001
0,0951667481417446
0,0945683388074893
0,0961168928853258
0,093507697364629
0,0947108578441627
0,0965424758149551
0,0927255225191743
0,0948282629741209
0,0958410720604097
0,0947309296868461
0,0932305507125787
0,0947444054166312
0,0938025660367989
0,0945337990069172
0,0933830115403782
0,0943305033290291
0,0933326099554892
0,0905053936006571
0,0936506117815379
0,0897008438101284
0,0913735224510608
0,0899790988958061
0,0895516045546505
0,0906488782995464
0,0894059211603937
0,0882910114350291
0,0915225022283939
0,0910219380173353
0,0891818124783657
0,0882590398386954
0,0881884407933085
0,0881889636430502
0,0904268870626613
0,0893835953309976
0,0896759089584617
0,0883874800081674
0,0880427327454012
0,0845077767098255
0,0865730619384335
0,0884980331062981
0,0878278744972628
0,0860425343558268
0,0856388095045313
0,0860074543936712
0,0871015426868712
0,0837843211291515
0,0855127810137569
0,0863186741283959
0,0850093745327165
0,0843177473688443
0,0863482471012971
0,0854351953988454
0,0848155214876251
0,0819442554482484
0,0852985767026461
0,0822905570509429
0,0833052087927527
0,0822034591619155
0,0827113733785524
0,0814881587702573
0,0822430779548075
0,0810692790887743
0,0851153568127054
0,0782081267237109
0,0817906419208888
0,082500225477664
0,083061285232126
0,0825947349004447
0,081012379467828
0,0832022522493737
0,0792128170272337
0,0824237601347801
0,0804509970506692
0,0810220333467124
0,0799612195203302
0,0796666547752536
0,0779748233383466
0,0787339161972308
0,0787541439544106
0,0801646387814931
0,0786324175161473
0,0794757788422174
0,0798320092006656
0,0783909616462877
0,0783945607321329
0,0788675720617307
0,078331274859726
0,0789094209717285
0,0784409464432691
0,0794310425733094
0,0755433120256345
0,0841268447866316
0,0769311677721096
0,0807354866728075
0,0738008811267602
0,0771639967724655
0,0758536547518514
0,0785367926038944
0,0750832821443553
0,0779046381508301
0,0769295831044349
0,0763655861594377
0,0796802766299044
0,0753245198792292
0,0766860946029398
0,0761781966957267
0,0764469756664133
0,0765039266974935
0,0757552507784118
0,0759907200781556
0,0764809521476382
0,0776189106196816
0,0749797530767723
0,0773819605637835
0,0747499831847728
0,0753372449181964
0,0759254250931027
0,0746225463190443
0,0726177798849302
0,0761063718497858
0,0741946697989703
0,0735344903453171
0,0769600016589884
0,0738969705579427
0,0770419850144652
0,073166517179702
0,0762020419369307
0,0736742389929806
0,0771587279608706
0,0729931797141816
0,0750230501994426
0,0739042516270397
0,0751287801269819
0,0743388902604533
0,0756115746762357
0,0721994261398626
0,0744503462884566
0,0731701184881921
0,072974573503243
0,0733093940537299
0,0730759627638973
0,074920044538117
0,0736466696030383
0,0759965969492712
0,0737212001897349
0,0757054091934408
0,0745465806395349
0,073350422062503
0,0753256418046657
0,0734765814486586
0,0743098523125656
0,0712087141510721
0,0740393903463962
0,0753737492142069
0,0760979999318603
0,0749184692532632
0,0735054552033307
0,0716396395179884
0,0766207314356913
0,0721658200097032
0,0751670666338307
0,0726049033884965
0,0748422308270838
0,0710963786135337
0,0783350444658373
0,0735157546232234
0,0784570946626658
0,0700098922271622
0,0757736374000674
0,0678377713275525
0,0822623606964505
0,0746327922172139
0,0799715181382943
0,0774077797791847
0,0762968640635244
0,0773226123846169
0,0722588816506037
0,0756190848007047
0,0748677866083831
0,0741263499027742
0,0754231526868104
0,0730330236864442
0,0756111664032641
0,0754504908463243
0,0738362374653426
0,0774515309727987
0,0801795919794761
0,0785767085970428
0,0794535496252513
0,0749147576241445
0,0771438048445206
0,0797998775358977
0,075415290230788
0,0783808254261152
0,0754467861780046
0,0795005835277404
0,0789535780033968
0,0795204659861176
0,0748098332267047
0,0766521863099924
0,0776296984376023
0,0796886946619999
0,0791343118532611
0,0749469986211238
0,078569240270982
0,0788495602422255
0,0787479998708863
0,0800300303403125
0,0775100215056929
0,0821896060636698
0,0806453212597171
0,0795383799096212
0,0790688578318514
0,082494758013948
0,0791598160607756
0,0800376983797925
0,0805573710262662
0,0813315045203673
0,083556937594694
0,0825432931965523
0,0829888807498976
0,0845408440681802
0,0835955224160962
0,090477115550911
0,0816046549859846
0,0848836525972866
0,0877657241373097
0,083130737132403
0,0931385407421473
0,0795114805557029
0,0892974624621789
0,0813959836490039
0,0909155778223338
0,0790926420290013
0,0971430189381379
0,0861424914762948
0,0936792371048387
0,0829469855018595
0,0948250633786904
0,0898303606415739
0,091268799583099
0,0904694158673658
0,0935370849134052
0,0901389681994428
0,0936510454554254
0,0960776571622373
0,0924456009138437
0,0959041781071434
0,0952553591139416
0,101241450623086
0,0938181399614369
0,0950361138498682
0,107357945478948
0,0922557221218319
0,103500999268203
0,097645080896086
0,101602009546411
0,100137816775333
0,100838950515816
0,108582528607157
0,103956808002453
0,105719241911387
0,105476543738763
0,105713997995104
0,113255732879787
0,108450690278759
0,110556251949482
0,108790509702591
0,117573311121979
0,110026382449833
0,122023292166263
0,116140391081739
0,125492440077254
0,12466942821811
0,122653113233101
0,12758179592905
0,125609195493267
0,128807356655973
0,128390649028564
0,134637607421506
0,132015315825546
0,131681497054168
0,131697198330788
0,14078352690303
0,132001229593764
0,141540066525126
0,129778463374626
0,140703448822379
0,140896640440389
0,155645225774101
0,145900664864189
0,148596441668287
0,144076396812123
0,154561835226193
0,148532177837969
0,15715742686354
0,153583622942071
0,156702961722642
0,158648902079658
0,158638390871023
0,164978127529628
0,161111987413956
0,166934108892984
0,16926069875921
0,169403573433587
0,180409665201087
0,18398718774546
0,195583866354463
0,177638585214128
0,192452285239116
0,175092029663151
0,197699053691461
0,197511334535214
0,200262006377091
0,200113026351268
0,205948911129762
0,209549850268917
0,209868575977738
0,217749775000155
0,222231362673972
0,225922856946556
0,238868181951565
0,232001880424904
0,241190427007802
0,235078397076279
0,273094820659296
0,237900395958215
0,272259911834678
0,252185222219141
0,273355978706421
0,2788528977167
0,292554958801405
0,281535552672853
0,284564264845447
0,287790154668909
0,295694227632849
0,301490972850435
0,311680889289208
0,310614213743377
0,319074902995433
0,321417406460544
0,33519383965369
0,34112267183335
0,359210400703696
0,357114801569608
0,351440737356816
0,359868854523966
0,366271967980733
0,370549118110406
0,38023765481015
0,384382622586553
0,388549454795843
0,405307798380071
0,413349160628651
0,418633141730345
0,409836156538073
0,428509235822065
0,430127808678859
0,449204464127988
0,445465437636879
0,457487498594192
0,457988518383479
0,459105003297892
0,472591839357384
0,475314348176172
0,487623297041564
0,486828512198277
0,507218289452919
0,505631466338641
0,518555933854836
0,512705368409191
0,527170079904891
0,528451764023188
0,533331526776426
0,541728687085457
0,55667764419163
0,614582870949294
0,601492165310585
0,563294434934444
0,567923421143797
0,563774098438389
0,578933261022063
0,587868513520787
0,614367048163883
0,59108757266727
0,599566776930646
0,600665888845766
0,601151474386667
0,608652324472105
0,605332156866282
0,611674356062072
0,616699270216231
0,622212730504729
0,620147427536245
0,611902370749283
0,649401557868571
0,621927045273071
0,636403059801851
0,620333988229776
0,624447139402734
0,607995169328046
0,618769153569732
0,595872012066898
0,61438596434799
0,599557871353168
0,603180760814757
0,582805992267067
0,596072480175508
0,567653020948053
0,595303043238989
0,56780073665391
0,575394105364603
0,563185438125883
0,552345935641544
0,538683135796378
0,558988795822794
0,549396047276504
0,533745246583953
0,518267857789548
0,517661536020973
0,510161906157656
0,501525569799837
0,494350777567706
0,487911672952331
0,469325207504254
0,472832700750846
0,459816551748512
0,461630191191639
0,443837082924693
0,451096333828817
0,442225318892003
0,431320506557511
0,424829649619664
0,417859186952265
0,405815915510107
0,40817289876623
0,39604206748237
0,400667020987609
0,390836034631038
0,398839789173065
0,382968649259676
0,378677941406693
0,372083539580862
0,368433022095293
0,358949627884415
0,361682961430291
0,358540545436292
0,35265576893913
0,346766403891143
0,348120686053548
0,346075027913451
0,338209097864473
0,33257235142668
0,32795251814286
0,330313927946852
0,321901156936684
0,318220248419125
0,315237097395372
0,322999361230981
0,329452707402646
0,309871927338268
0,311467325646527
0,302044579987846
0,310878241215898
0,296073082783182
0,308779219574131
0,295724082501337
0,29948619736275
0,292041352002783
0,29347810897516
0,288653876139528
0,296255832977628
0,286938503151705
0,286142868244316
0,277725704004186
0,287083369068658
0,290985945965444
0,283192406104571
0,324394012093479
0,288381126435747
0,27399632442183
0,265860212928055
0,283874041692944
0,268705985328146
0,270328477191432
0,260828435369152
0,266350971905371
0,264392490590501
0,260709602202226
0,2630198347806
0,256293801481332
0,260866056185607
0,270563586434121
0,263692666879973
0,257181785031145
0,25822052658255
0,249651945905577
0,26611185320121
0,259332518522146
0,281171141058687
0,250646859465922
0,248218007383179
0,249073587947326
0,242768537273717
0,254255881663391
0,243599748085422
0,243806410615757
0,238320162801088
0,233882367961696
0,238711548984667
0,235502835370562
0,241019924034898
0,228066479210174
0,248049264967108
0,229674735126739
0,235829346519209
0,232309747856176
0,238892655256945
0,242784337214112
0,241060243525113
0,228454689137743
0,222593717698684
0,237455282394737
0,226717561108072
0,232192567579629
0,226551687870485
0,218216172383498
0,23401522331452
0,216457412845335
0,223675394640486
0,223342120308886
0,225220731445997
0,227297885788373
0,220494668496085
0,235230492956068
0,21715341232473
0,215273354690099
0,216929262785355
0,212707281277647
0,218453177448337
0,211756998917565
0,215935331696524
0,230057637968086
0,206376928268223
0,223175936704005
0,20548212204687
0,215183864464357
0,208036568040023
0,209752073456419
0,209884912564238
0,212215951321707
0,210659140820928
0,220920364497572
0,204910824582583
0,222435865189689
0,207054352093575
0,210245107543774
0,205435415025918
0,210538417405157
0,204124196179624
0,211326989905001
0,206502145671705
0,208795805865799
0,209269688757852
0,209093751648439
0,204660992728466
0,225887217646631
0,202972698083541
0,213770687162556
0,210144997471262
0,211705190036585
0,220907840542203
0,213050424883893
0,212279227892242
0,2092297655036
0,213954224951568
0,21537159828751
0,208864156437696
0,220770255130924
0,215070925934448
0,214582494445285
0,212083931943972
0,215482319358503
0,21091518794572
0,218968801906442
0,217895664207326
0,215431497273713
0,242430351332716
0,20798063694234
0,227968915357984
0,211820143119076
0,214401629301104
0,212878860603095
0,213139484569225
0,216579864836093
0,207113496420998
0,218280675527271
0,216179242977238
0,211601367983133
0,215389887373678
0,210857364636542
0,216592909635141
0,213058263440751
0,212836692296061
0,215475317075387
0,21627988020644
0,213615660335626
0,20766191892509
0,221972398146118
0,221327374678112
0,208761164883983
0,218183465544165
0,211660416597619
0,214869879749405
0,212576469495532
0,21873890511559
0,221244234718083
0,217556585704762
0,216779285513047
0,213137125416347
0,212749227750974
0,211925911118069
0,217026072359584
0,213695294045778
0,213514130424979
0,219427801671017
0,208256711795319
0,244759254973208
0,208214956615095
0,218257214597348
0,214403465888094
0,216069141878309
0,212549091318507
0,219739065759747
0,212283820051201
0,217011515003945
0,214694925274288
0,213474335672283
0,210798057417087
0,213385384405717
0,214549442710429
0,213826213995273
0,217073857701743
0,216085829619862
0,212571749889276
0,212435369693798
0,215478513344025
0,211161923430524
0,207497991753211
0,221934450153012
0,214054489643269
0,219036518177336
0,210334728250361
0,219347922671708
0,21498290991325
0,210968200240567
0,210677405889905
0,215876451491727
0,205931260088985
0,217861742358162
0,206986272564232
0,224311959898628
0,213875762015124
0,216284820689479
0,211188765877886
0,212479735511942
0,206642880736513
0,211457411294138
0,21176738203039
0,213363300459067
0,209383199989501
0,217106428754644
0,21107113137876
0,212140915104146
0,213833847159931
0,215534432574369
0,218135357799524
0,214666752643784
0,212473480421984
0,214936793189459
0,210169549160238
0,217771873615982
0,207741169803388
0,209936173319994
0,205083760586014
0,215779220912564
0,204284591585983
0,216458039401284
0,212567129017431
0,208727761930929
0,212270717688177
0,204802060747884
0,213205376419132
0,205637679497411
0,208053932157096
0,205243123978686
0,212273390842647
0,20954059619058
0,208472374960373
0,209808170609177
0,206779955307967
0,20514536816379
0,205470070031711
0,20733908619835
0,205262834490606
0,20616107407295
0,205634996814339
0,207708728028515
0,205197720960019
0,206739214386183
0,20467747236633
0,205209343509545
0,208416294842752
0,202027652070155
0,208907039801438
0,204698508247414
0,206220364434252
0,204343355696629
0,207588189678869
0,203219470383576
0,204520651028702
0,207595899688008
0,202561128835995
0,20446218890458
0,201930841535424
0,204553936970218
0,203397101541948
0,203699928223641
0,20275314050694
0,205051790414738
0,201390277525199
0,203114314043339
0,204958558559202
0,203548842597507
0,202581849143311
0,20556711363865
0,200751244585842
0,206136962541704
0,203440753829287
0,201367315812518
0,204641759471849
0,204543953989
0,20467484614904
0,204928464625595
0,203340229640862
0,203661452325175
0,203359747504089
0,200909690270797
0,202292906901989
0,204291559182712
0,20083284170898
0,204566015337833
0,202372808858481
0,201194546299698
0,202861415949984
0,198455094640505
0,202137808307312
0,19873811753203
0,199633260738885
0,201658941598093
0,199973066898442
0,198077745662548
0,199357873220137
0,199609447454678
0,197281871990689
0,197743885485434
0,197285520511047
0,199742963263961
0,199809291744275
0,199649484249457
0,198294771912789
0,19925649358963
0,200588815452351
0,199029554821562
0,19997865241765
0,199231398723546
0,196556021446543
0,199472826398321
0,199919769601716
0,19916995316154
0,200305991513898
0,200504500221795
0,194935754633831
0,19997591771344
0,198183989551622
0,199957641717139
0,199681422113995
0,200021831898233
0,200954259857822
0,199161346835223
0,197368937223168
0,19745664442829
0,200050191541626
0,199043462115574
0,20275882851469
0,200676872621708
0,199216215350357
0,202442500497807
0,200807037445502
0,199661517225114
0,201160721210433
0,201023806265804
0,201556182260797
0,200282837593052
0,200814636069768
0,201092055142022
0,199237559025279
0,202033043081427
0,201030484352676
0,198907952398232
0,19763963826329
0,200195707161383
0,200889829429157
0,199194371981153
0,199177580295033
0,199525350990668
0,199228202143848
0,201531236996552
0,200388916795582
0,197886722892651
0,200335892241695
0,198524566759868
0,198973332668999
0,199221801542617
0,195610897798807
0,198511931690724
0,197272642219453
0,197590724533201
0,198718550336012
0,1983494400136
0,199666193207685
0,197262767984135
0,198044245928342
0,196691373677615
0,196636793229346
0,196671571419075
0,197694036265972
0,197117106388512
0,194441450301976
0,195838600671768
0,195603801863017
0,194217092789092
0,195897076903278
0,195331115962575
0,195860650960479
0,197019576867543
0,197028848079161
0,194403560802218
0,193320667188188
0,194674252809903
0,196196435652878
0,193699513608966
0,192829486490525
0,193456168327437
0,191635823248573
0,193453026819185
0,190591027260187
0,193019152011674
0,193694315405588
0,191589470848186
0,191464169808089
0,191120584375314
0,190169489984792
0,191796170564526
0,19122230729567
0,19035644742921
0,190432128006947
0,191459082111591
0,19159279919198
0,190240508215446
0,191374978284059
0,190927950347016
0,18874578121366
0,191117525776243
0,189207019253794
0,190392870443568
0,189449612165062
0,189854278946271
0,188092848692454
0,19087083225429
0,191158365300729
0,191265292746573
0,191987604303362
0,191974549018749
0,190801305205218
0,193249219201172
0,192704649565374
0,194732881514153
0,19624004865819
0,195983898042942
0,196676438045689
0,200028704779198
0,201469469958453
0,202031104062884
0,202852308085195
0,203972511432638
0,206627087195629
0,208900329965767
0,208634212036304
0,209431451182105
0,210142237334317
0,215983769862848
0,213839947054331
0,216267910254359
0,217322239946516
0,219660845088072
0,218456798492588
0,220145910374882
0,220774942904866
0,222266319075721
0,221455177615006
0,221363471178896
0,223027203066312
0,220440981078636
0,222566555724907
0,223356078167568
0,220321792022291
0,220698161398713
0,220001144846288
0,221827508567882
0,218937835803056
0,219637763690309
0,22025658034217
0,219421014412861
0,21761915251765
0,217301933857576
0,21817978561429
0,219524204929588
0,216301969794353
0,220574060991467
0,219300620127227
0,220384411625193
0,221441543666812
0,221864824920668
0,220737806347657
0,219872368605764
0,222157940263866
0,224595882761085
0,223091914078762
0,224942714253075
0,22579330611689
0,229720162285114
0,229148157410989
0,231225500293031
0,231912561856564
0,233188709403863
0,233514435854568
0,236213840872656
0,237150754097074
0,237972896219156
0,238949210817519
0,237306892080675
0,238123539303578
0,23969399611756
0,236712730371853
0,237524889163175
0,237594421275548
0,237069253815194
0,235213166856812
0,236080555989021
0,233165256625996
0,2336564406179
0,234384160510656
0,233609513013458
0,234943161821072
0,237634489476528
0,237172630188485
0,239200397328559
0,242742248529895
0,242604011773583
0,243545599665733
0,248447480556133
0,245933982457983
0,248422543671391
0,24883393277948
0,253410149958987
0,255818295299244
0,255815670255859
0,257933855453733
0,259858623696283
0,259970972814368
0,262260594694542
0,262195989841854
0,265102995138299
0,263787929411796
0,267999770529536
0,272081104816864
0,272658128326721
0,275601352991508
0,277571283404499
0,28004810419419
0,279908129411348
0,284029264170586
0,283672791919797
0,283481737158914
0,285021120774147
0,287142374638825
0,28756698049096
0,285850574735804
0,286931110058914
0,290117372689483
0,289855419402584
0,287757916939327
0,286096003254716
0,284466230347903
0,283816835105019
0,279154281323735
0,283181092132981
0,277436245442875
0,275160376579385
0,275199642989979
0,273637861520261
0,273309649795352
0,2737769360568
0,273222237731142
0,276029220236761
0,275728893125655
0,274119262910865
0,273583631251993
0,277762377340664
0,277947690590376
0,277901880342313
0,281033440143425
0,27956736682582
0,280431397102518
0,281214096680498
0,283847694626312
0,284397121982126
0,281304306598888
0,282951306754865
0,287260529735897
0,28627478636106
0,288286486811474
0,28724961336378
0,286776161325143
0,288565894976769
0,288178303722293
0,285361596112351
0,285903958013992
0,287851256757563
0,283904894675464
0,285283996425927
0,285529375670708
0,28187086181358
0,282784852834833
0,282523587754934
0,283923563031862
0,281605073956793
0,279501351089831
0,281642851707453
0,278864816082165
0,278226289975338
0,276226291665885
0,276782405770512
0,276322058717293
0,275189033262532
0,272514430719504
0,272349673694243
0,268747867745633
0,267674358459471
0,266024681908887
0,262512716221886
0,257378980825327
0,257499938094083
0,250398662754083
0,249520462858121
0,246366587937078
0,243743504399873
0,244909585764916
0,242422573429347
0,240952713754964
0,2395558750035
0,241203022723389
0,241281734731284
0,237637348660932
0,238998535514035
0,243356108857887
0,240315984081896
0,241525355988276
0,244149031946503
0,244413263404561
0,244575725575758
0,242372983255438
0,240115211824088
0,243303268940187
0,241458718512498
0,240416136026979
0,243812996788656
0,241194316901297
0,241206291573201
0,240676869943018
0,240352780121978
0,241602907519469
0,239066961473952
0,236573918771933
0,235993817303215
0,237791945642821
0,237637919211107
0,235010306417249
0,233581556643747
0,235244405595555
0,234229803519782
0,232823078688875
0,234171349248408
0,237395395644835
0,234396244656716
0,233353663693535
0,234554511421925
0,233976760137525
0,235420255464231
0,236263271697303
0,238290376766567
0,232833137984221
0,234585525941737
0,236303255571835
0,236779813242962
0,237422968653876
0,238225636357646
0,240377131945316
0,24058456071691
0,241861111560267
0,245295586394916
0,240598973744686
0,242017822889553
0,244992461477799
0,24442538041543
0,246903404566959
0,247221123804064
0,246562835294629
0,246345031904167
0,248085204059976
0,249832378251892
0,251945624678731
0,250006611186619
0,250951223837955
0,253768976480373
0,256434050497069
0,257885407867837
0,258799741031729
0,2609969369615
0,259629181729026
0,262940518497191
0,264930355199519
0,265490814393777
0,267095543622612
0,267367405064833
0,269170972669178
0,269758609327878
0,274216953552207
0,275775279683206
0,277037208620549
0,277858000490506
0,277456660525703
0,280142146239258
0,280331908698014
0,283834566105974
0,283600633071893
0,28431596354576
0,283923648364525
0,286284008180327
0,29429475490451
0,2924819791436
0,296577284062641
0,297492505032438
0,293741723681926
0,29512359149668
0,299020937568415
0,303800672547878
0,306281855770705
0,304892267344678
0,310549685985424
0,308584134891412
0,312954806597196
0,316274890812181
0,32037301619628
0,317549385900503
0,319858796668557
0,322389329979155
0,329356819702247
0,328233754300092
0,330203453641669
0,327944222654992
0,337706039757034
0,340573048294153
0,336172030948928
0,346363183736368
0,347464512416146
0,346753581837754
0,353771250037449
0,352718182922167
0,359154976526564
0,35614880239547
0,357132289893411
0,363032730797339
0,368962349022219
0,365475417058236
0,371662702296089
0,373907040437802
0,371419952905367
0,37704203206585
0,380580018683294
0,376409410940795
0,383066501499877
0,389908730534041
0,383877713755264
0,386496049519553
0,389703985715034
0,397447247843638
0,408431200640821
0,404811346322329
0,404779385125847
0,403573297449821
0,411602826855707
0,411653312565219
0,414299409974189
0,4080266661848
0,416427551535331
0,416825442033498
0,421996852114902
0,429686801202246
0,433939102316428
0,432819768025151
0,438673223547557
0,43686244749784
0,438747635589964
0,444419981086472
0,446052979056947
0,44479005576293
0,45130916544715
0,453435556508632
0,456812296217988
0,453915043866184
0,461622397038195
0,469941825768363
0,470643699140838
0,480677023076234
0,486365538495618
0,478877719807368
0,482286079601932
0,476485568557456
0,484874569029997
0,50159119332915
0,493589984854615
0,485127095002359
0,504879850846705
0,512378481867628
0,49948991056633
0,505622141507585
0,526162323918382
0,511978598176553
0,522217089264169
0,52680669864248
0,524644383754667
0,537498054147598
0,546059455237712
0,532275142591858
0,53141921282242
0,552558503339541
0,537149417597649
0,542906934737414
0,560450867895493
0,55875303860456
0,553954375176715
0,555787875399887
0,566387172510308
0,566710855805404
0,58251388763417
0,581221558869681
0,580546678052292
0,580544447882911
0,595233671422916
0,58207151520162
0,595595893209442
0,585269294783759
0,598181089615729
0,619632546392804
0,600370323479538
0,597240320579982
0,627353037167073
0,623497510943015
0,622345310217553
0,617915485067838
0,620200187980652
0,620629120453714
0,632600170444747
0,631694167994066
0,634117932104599
0,623698128014594
0,629853067904776
0,654602592391888
0,646356263457717
0,646679599414593
0,658028813919796
0,660188223550969
0,686770460031584
0,67049831634923
0,664462377698348
0,668805819576276
0,676928052417169
0,685423732828012
0,686403520975643
0,676293906678245
0,680064203244824
0,702211001250555
0,727147959497878
0,698845109565087
0,703505741782386
0,725911919370574
0,731511699562765
0,705941832409025
0,724041916947682
0,728171050647317
0,745529241954325
0,724166379761209
0,735326902539131
0,768944817413344
0,760594882512506
0,736728403341871
0,772518900674354
0,764939852071754
0,761289936064582
0,746760768809357
0,762427448701592
0,780903516603588
0,791002018011496
0,791302333576901
0,751309573626726
0,77684890244954
0,837761990862586
0,783779641483154
0,753820514279327
0,818752076841405
0,814734380784268
0,755216047450685
0,771515980279105
0,810650281024427
0,818720857185558
0,791141624661321
0,829348409075649
0,874612970608113
0,850795891645491
0,814461768209436
0,776677363867565
0,806506883709474
0,875480785557394
0,854148359657549
0,837917677543215
0,853349360144686
0,847369387820256
0,880592827636706
0,915002491012084
0,896569503193004
0,816314743542575
0,809534215323211
0,862393659443952
0,85847014411927
0,979890386639293
0,947386328649433
0,868598235302123
0,861747298980781
0,935098607157908
1,007297309736
0,896360631154095
0,939493225693283
0,881880368853128
0,832128260069338
0,916266935532893
0,911810995011067
0,928268721315143
0,906674440161536
0,921701124848344
0,925920881936138
0,919468058147225
0,94503465485183
0,868190799464336
0,947707380157961
0,931844039006995
0,97826678002635
1,04828134907583
0,90232810219958
0,944154333169548
0,884912581599495
0,991857274855477
1,10447146269897
0,971591675889579
1,01282090516836
1,01700689489641
0,984737509415469
1,0362639335228
1,0331793801818
1,00210645477217
1,00510089914876
1,04952262404878
1,08557304161296
1,06584660889927
1,15928738045807
1,21088188621801
1,01333944010453
1,21179667786342
1,16666653109296
1,02619564159605
1,10743151203785
0,968687794201257
0,986550460606186
0,997677926870466
0,929864575609194
1,08840715959635
1,22481282863128
1,01790403667609
1,15631680307697
1,14672317370911
1,1906925378635
1,11778219733052
0,857358939207496
0,898522484883159
1,11679454189801
1,15502454109468
0,967438185853297
1,17037258485634
1,20978484982
0,992794025204328
1,25141136235973
0,958898568055314
1,03198065363525
1,03122502070545
0,908303203614307
1,11838125230724
1,66956101135458
1,54415204336126
1,79855811395239
1,24718309214177
1,23679389636808
1,16423938876182
1,19267688476578
1,15949620618914
1,39260345519734
1,09525134107559
1,04394922733745
1,21342042808592
5
1,49212472568657
1,24015160794855
1,24288566462435
0,739508514408999
0,878186705020686
3,10497388850079
5
0,871269487716427
0,835707429805505
1,11875869892828
0,907288693047593
2,19165487201712
0,88969820405114
1,51518310399963
