3596
4000,36533379555
650,420452594757
1
2
2
0,0200318689212514
0,0330677708590299
0,0311858112603635
0,0296404606132342
0,0283042135199953
0,0368120296164627
0,0184010173047069
0,0380331026867363
0,0269159665115326
0,0316241305195164
0,0323496770888
0,0339319440443049
0,0223511112600387
0,0287737303844062
0,0244817847832201
0,0375543041914939
0,0207180386274851
0,0329886849163621
0,0263209187323427
0,0369921609952886
0,026864977283533
0,0333545783551995
0,0241845394359813
0,0388991993450605
0,0216927197834893
0,0284556110924585
0,0191980589242695
0,0316658007425962
0,0211375078233636
0,0356526328172104
0,0259118568814474
0,0305267455284015
0,0271878390091934
0,0344051821636962
0,0286058400741135
0,0363383814386992
0,0173390695823195
0,0404544343282495
0,0302775386701968
0,0414554649966686
0,0274300138532492
0,0328522726027861
0,0310736861369108
0,0444545283791146
0,0211070829858771
0,0254803228371538
0,0211884263592712
0,0348764601508209
0,0209465216415014
0,0273346726529286
0,0266691151841243
0,0364425502526505
0,0298768593741383
0,0364845932672362
0,0282408524326385
0,0418816026564847
0,024527427220354
0,0330694289207308
0,0348414028670166
0,0396806687992152
0,0330737293526628
0,0331525468545797
0,0269120360403256
0,0391438878556861
0,0301488996965149
0,0339109805842094
0,0229856710834598
0,0382630134833559
0,0220073011002439
0,0427713811908185
0,0252748458883042
0,0555832961956151
0,0180859090019211
0,0463310734252787
0,0298324848817779
0,0331362805962838
0,0190605859734046
0,0328931532647697
0,0226959875218994
0,047923727390304
0,0143296656264357
0,0359149805719167
0,0258918964124956
0,034406101011536
0,0353557134643743
0,0357103717665071
0,0138414962054157
0,0577051791981615
0,0252796560339983
0,0338027296908363
0,0211010339778875
0,0427599420900845
0,0196671277738118
0,0433488488206981
0,0220401917090988
0,0382378185910173
0,0183027478946743
0,0447677707248905
0,0200916727647219
0,0507754458393398
0,0312443414378772
0,0589246430697207
0,0277352845960794
0,0189153625398921
0,060811482361587
0,0254245131525356
0,0381258634998727
0,0435244012732751
0,0231424216644479
0,0446075320765928
0,0192110032877859
0,0459698414573213
0,0195849931844563
0,047185881826055
0,0114944822901424
0,0558125505757203
0,0167918864761085
0,0392345664368165
0,0247279863182945
0,0371175213993413
0,0172889343647808
0,0615907288730227
0,0190623982643942
0,0447571773152122
0,0227027731580919
0,0372694397369833
0,0275452829284787
0,0567519960670481
0,0133054193305378
0,0333092809011658
0,023206362232522
0,044548165584016
0,0285975373513598
0,0418754021283754
0,0268394410387754
0,0324589293611173
0,027219248289866
0,0364644762670996
0,0408802207211535
0,0487864311651067
0,0228303501244727
0,0365408914711301
0,0196271187138455
0,0459955579384096
0,0224499857113572
0,037731600020694
0,0242049382682416
0,045689474464288
0,0186993286294032
0,0376692416015781
0,0286501499298998
0,043577256135888
0,0278365276292925
0,0400719165331916
0,0158569942743738
0,0994842710193294
0,0135291499428021
0,0526375788305115
0,0362961508090779
0,0287841565287993
0,037214274462988
0,0255562737130607
0,0348876102067591
0,0310172915327168
0,0364058377699572
0,0304906855959045
0,0332084070992735
0,0354777753966135
0,0222387914219326
0,0483359601022754
0,0306333292812976
0,0312172948087584
0,0205056253618117
0,0503773992668114
0,0217041861986424
0,0445810802904511
0,0283908500346238
0,0372578830582298
0,0199772895107426
0,0451709747152615
0,0382746093762575
0,0358664416829012
0,0260932688987004
0,0322719985326113
0,0330827926774739
0,0420383415870857
0,026923603890338
0,0424964845658831
0,0339470351250145
0,0379095713176342
0,0395390868726167
0,0496470894675827
0,0282348208271589
0,0336284703065199
0,0412296400508648
0,0332649389230026
0,050168777675619
0,0319069024804047
0,0275647839230027
0,0408274219955115
0,0305373698403984
0,0412588322486734
0,0229385122696782
0,0380184311065961
0,033004694004616
0,0394105429025344
0,0524370228505547
0,0329913951196645
0,0285058329007091
0,0271719475294694
0,0443393699363546
0,0406689489845729
0,0511542717384364
0,0357715087084644
0,0318364911857922
0,0428233985608622
0,0310664551770779
0,0396934764439658
0,0335777029311908
0,0361439884641995
0,0267265511820686
0,0360618791305766
0,0300046732162452
0,0306479817074595
0,039693484650233
0,0430116369548218
0,0349863212829285
0,0439704224732725
0,0316942240961443
0,0396400441661671
0,037914045331512
0,0379525099748753
0,0339026160741274
0,0414879218812554
0,0246683919497087
0,0468803186052323
0,0408237634836118
0,0413357605016045
0,0379496879043474
0,0386222252268853
0,0298576488789665
0,039135473988699
0,035565076434102
0,0438940173347343
0,0435427763693073
0,0431851679015418
0,0532976905250827
0,0304746456282841
0,0471342045277711
0,0324700971551761
0,0622709436928357
0,0330606767093191
0,0446938896908123
0,0357647514760189
0,0369315033427537
0,0368783218003735
0,041984422800691
0,0515817172375389
0,0302898905365971
0,0481428461939659
0,053362486193948
0,0448289257048469
0,0380410487137439
0,0586213371662019
0,0301252280155568
0,0774245849434737
0,0386670943827842
0,0407691287765232
0,0438332215815388
0,0293402453542063
0,0453399848315459
0,0552515280613247
0,0628879313198569
0,129728948245942
0,0329017770148798
0,0472042530757948
0,0432530730927352
0,0619434628449869
0,0322565262249103
0,0646452296922317
0,0398179938009128
0,0621950049463963
0,0440919527315816
0,0593537730233043
0,0809969739655969
0,0359809584944704
0,0638929473218268
0,0509570667547375
0,0506844757700032
0,0484878328544351
0,0528955459907623
0,0550243303203384
0,065855726701639
0,0632001467842951
0,0519889682295534
0,0672992999875591
0,0492645969643098
0,0682131726634159
0,0514409366725154
0,0631453183461246
0,0452788235405873
0,0689719667191672
0,0516539567937489
0,0757801441562949
0,0577512602398243
0,0800043905475634
0,0549136111904469
0,0750536121123239
0,0701788689953106
0,0698085793981922
0,0624626584963962
0,0912546851584712
0,0602600393572834
0,0695071525600491
0,0587622637166689
0,0776965692146743
0,0600469213438805
0,0895998291177516
0,0571133500280216
0,0895850754046194
0,0694903790466885
0,090585360445489
0,0752860078992448
0,090900783602143
0,0813441326953582
0,0920108651381702
0,0823450324920684
0,0924294450483061
0,0962019159962492
0,097812970900435
0,0977887891236849
0,116617090032637
0,0850067201795683
0,137743638723162
0,0898421297077312
0,110028577347213
0,106247697528846
0,108849685495018
0,114075078951667
0,118527064157999
0,121999184454793
0,125512141416744
0,122368372308797
0,136434315871505
0,135254037784945
0,144888386001907
0,154632004071549
0,167284432271922
0,158586388893805
0,144326129739993
0,15287799387673
0,158165684945214
0,17702813436883
0,176311870967679
0,167188919084758
0,189768267331533
0,154760461877386
0,18690507778965
0,160915095544681
0,194126873893735
0,176684074449747
0,208527594162036
0,187075379967737
0,201506317308409
0,195430453787599
0,215545957751601
0,206102248280522
0,237104813944544
0,234427247538703
0,234109793853566
0,227892790634707
0,243914599705005
0,230696576057987
0,291307846026252
0,245073851170635
0,289384910015732
0,265956268263565
0,283719589431791
0,271286803724623
0,263742626681112
0,275862982969564
0,272820087026839
0,276903537224441
0,281158505830611
0,285862437454297
0,289880784001401
0,281556307744959
0,312252276326249
0,300158613741517
0,3083727792296
0,319274746950575
0,319045005278376
0,327824520468267
0,316098552171758
0,312883566730287
0,340975052501158
0,36328152628816
0,366569569556662
0,329570224325115
0,346101504306256
0,339999222810199
0,34840957594056
0,332929400858595
0,364527160421337
0,346168155299429
0,374385103877885
0,375788010765991
0,433493777329875
0,382471874034482
0,391792697982728
0,370757959562478
0,395140865682596
0,392587441909512
0,400638834874823
0,38848380341375
0,417486320532735
0,379641443993946
0,405628353479334
0,419672749784782
0,439832120324129
0,387380563773525
0,428212862674957
0,394094941875812
0,436666944067792
0,398111350443066
0,427915620973982
0,424297651026016
0,441057211662593
0,421066363570332
0,452109415827837
0,44711580374877
0,447655871710925
0,421136084795948
0,471914793999124
0,460647623267574
0,470323592669405
0,454485791703991
0,468412143811983
0,472772701132112
0,501884757324303
0,471531744400648
0,50248936481758
0,459411737760577
0,47879600439721
0,465329214529063
0,507922844384172
0,481784410788357
0,500586816756459
0,496089378923791
0,524313705460249
0,480242538242237
0,524994208667485
0,511925317790612
0,526677651562395
0,516260107631234
0,534681438347686
0,527635132626807
0,533573312267964
0,536855645308548
0,557607943645011
0,534508570661686
0,558697733014745
0,567118709131165
0,624237008934967
0,559333787031248
0,59931645115599
0,532544311604374
0,608100739862573
0,568129134847857
0,586936545221183
0,545804109233079
0,602367226068321
0,572352997014898
0,57591623332973
0,571881907646379
0,616287478569278
0,596899318417338
0,628483951231854
0,623828780703138
0,654983454432274
0,604013420890375
0,659472510954767
0,601453260543152
0,66034245063941
0,61810792829518
0,683022874000506
0,601234307446944
0,664791300678512
0,66313929609946
0,702378799628362
0,636340284435295
0,688301186085301
0,68951649838248
0,672571729709078
0,625399765664152
0,711705518642807
0,629785612229474
0,667519782474331
0,673994619743353
0,731758508217892
0,667228494958628
0,682640753789433
0,69339517588969
0,758058223168255
0,692480093979921
0,729780374824268
0,742970315155032
0,757358404693686
0,709628381486831
0,796842697440937
0,740171451385377
0,791079557230267
0,697736552008906
0,807537372204894
0,74847532241292
0,772467268872003
0,733144472204679
0,770726331732127
0,738535312618278
0,815215669364093
0,729445268062628
0,818453460882083
0,778470918237114
0,801192352951872
0,77318527951288
0,840961713864272
0,76838013889755
0,809979112380464
0,80095627432429
0,828916661974641
0,810828560410052
0,818375102697894
0,777112629376274
0,870640621389279
0,818674107747957
0,828983760856338
0,8134128832217
0,88548393338797
0,839871854972469
0,875105743052153
0,807263396937016
0,871086198142988
0,874778648366322
0,890951547997452
0,84448040030549
0,944200902477156
0,887598483951046
0,93060826401963
0,868487820555089
0,880861210140434
0,853857525726674
0,931618923384434
0,860052717423863
0,947074283899607
0,90374771148973
1,00138260493599
0,92363993168991
0,935605495739639
0,914285611562485
0,979220608206617
0,920276205843607
0,969887059020613
0,90529649004882
1,01595417586655
0,956885461284624
1,00202340086772
0,87877434464684
0,961604525839774
0,906115079269677
0,960637051274821
0,930045594468555
1,03037815574506
0,993028248679806
1,11211974240949
0,965260105010964
0,989239148732426
0,965652560243069
1,04950159266938
0,996825951882486
1,06200195206357
0,989922986446819
1,07883433789316
1,03011658228561
1,05533479515358
0,936649761115024
1,07430317510299
1,03361537127837
1,0558254115081
1,09339762033846
1,11745196861668
1,02447832965006
1,11525073870095
1,02352092196988
1,09997463884235
1,05256438617949
1,18995081397591
1,04844408053541
1,15834040568942
1,06417455588221
1,12421008391849
1,05738109813882
1,10086672657368
1,04668582832296
1,18246510723717
1,07598324919677
1,05880814647796
1,10129877610819
1,17627433495885
1,14351199195514
1,23144592226445
1,11258445466855
1,1692504975331
1,15606750343009
1,32477751969924
1,17796091486086
1,19947067275384
1,20799743311945
1,17250021305466
1,13015761442058
1,20912557633034
1,13348968701076
1,26694387373502
1,1601100858376
1,25667083512069
1,18598376779712
1,17821301180032
1,13979106489467
1,22538839147323
1,17359113788041
1,25648282338184
1,27917121883381
1,24473451802544
1,15238358671968
1,25230359345608
1,20438744014628
1,26086554441548
1,27326370936985
1,24185727668686
1,21159422246008
1,28593339795148
1,16238932585183
1,19185971874567
1,27945231546348
1,30337664638512
1,22473573587292
1,31188395091602
1,2609241648748
1,27578738920544
1,28662250112351
1,39893949093126
1,283368452015
1,26891305002679
1,2418337306352
1,34241399220728
1,32345967819468
1,37710652784181
1,30174101768515
1,41676764403813
1,34191783611952
1,34332226788317
1,28268319125537
1,38151630200096
1,34106305396234
1,32506921521914
1,34637757371458
1,45668172009123
1,23220338936335
1,46940172133619
1,30260023039467
1,41659531373086
1,33919131547635
1,32276062623005
1,25815250793378
1,34426245735348
1,35853882777895
1,35297137288638
1,28457245265287
1,32840356707819
1,30494721894714
1,42793228566323
1,37883648389532
1,37418806266159
1,28734633981804
1,36036632257106
1,27655646506913
1,37007751480512
1,35387142918571
1,46778399465836
1,4020975476876
1,48067136698998
1,41914594464652
1,42542632716835
1,35390020709463
1,35473208564585
1,32021225560575
1,33172745800793
1,25259165483677
1,31087674083539
1,27828148134427
1,39453789541331
1,33769295052892
1,3956944938828
1,29130307999894
1,29255708791196
1,29317743097481
1,39610432927279
1,32425117342179
1,37009303306296
1,30221600710407
1,31349155664663
1,30014193207617
1,42224096808087
1,39502739279607
1,40464714822387
1,31242131566415
1,39467031031702
1,29681087980303
1,36305174321359
1,44903349859574
1,45294770759685
1,28422884857475
1,32275204320627
1,32205122250216
1,48449340875671
1,36209091518716
1,40396863723561
1,34753229912183
1,39153579056226
1,30629842170698
1,43914498912971
1,45695484440549
1,46729876543853
1,37133172280086
1,4156051343185
1,33382002542556
1,37590904012602
1,34482685222861
1,34208392250134
1,40349814720259
1,42561070876571
1,29481474944998
1,33229621929602
1,36611669565427
1,38289136826368
1,35509806300952
1,40288199940396
1,43594440513927
1,39662759973112
1,27339648090625
1,35070307074442
1,36362669387379
1,39452536245863
1,36075165032193
1,34290334689023
1,34090010904633
1,40085913217628
1,36912537387701
1,3085772513221
1,25801006004125
1,32870541885747
1,32024594073891
1,33426793577697
1,36909711466467
1,39975516157016
1,30778315455274
1,47696941113315
1,34071828357741
1,34680396245011
1,43536712375879
1,34164367951853
1,29049801308346
1,37453070909824
1,30316449443377
1,32216965536167
1,32129350883135
1,35478137289874
1,32594653243031
1,32351678353245
1,31399772741692
1,3403565836013
1,38976387615495
1,39464418303231
1,32729555756876
1,32970183712641
1,36653462233019
1,41886199200395
1,31127268278178
1,35193981228915
1,31203022738904
1,2933646866209
1,31685774053116
1,35069712494093
1,37104266959235
1,37869828540252
1,36502477100188
1,32051427615611
1,30451699398149
1,34956343682622
1,39300405353136
1,44312359339886
1,34750970517295
1,41073830905526
1,38463556565926
1,32718820462848
1,33530785810547
1,34913432291623
1,32239649733196
1,33822041456142
1,38684615064954
1,34346899761073
1,32858992732698
1,36418882583297
1,29139141583554
1,26543179226316
1,31127841215592
1,39378422870964
1,32281820905884
1,32122235189196
1,37181303093428
1,46877728603513
1,33108480716814
1,24460980837667
1,32502918530812
1,36109902017703
1,27563689654425
1,29854137629221
1,35991484474809
1,3719860244507
1,32659846431023
1,34076308267483
1,35889450519834
1,35760990588112
1,30397593151406
1,31144391130556
1,29388583680442
1,27691206075594
1,29278013355237
1,32100448177533
1,27941607611487
1,28203131904676
1,27183674369342
1,27364918082691
1,23988265491895
1,25006696250946
1,25354706462964
1,23324189211944
1,2740937899779
1,3018910154147
1,23472463923093
1,21465209668679
1,19459745340684
1,22475188921693
1,25558143239343
1,25501324594175
1,21955169440458
1,22836066240398
1,25843442566107
1,26214229318547
1,22187056298048
1,22306179303701
1,24338506876854
1,23691927317129
1,22113446731038
1,16936799601595
1,17530140459774
1,18517878285317
1,20740170166885
1,19425146962182
1,16991638274568
1,17012370831909
1,15624966408554
1,12461101345517
1,12773530383324
1,21014720648367
1,15562618762443
1,12811393315861
1,12897354632388
1,1478989194794
1,13218560971582
1,1019599493
1,11651826849384
1,10504392156329
1,1039750504194
1,11201086073347
1,10388664259949
1,09407768398488
1,10703609568084
1,09378695613305
1,07518731713879
1,09041353921805
1,10667933231046
1,05959864383456
1,02316745495749
1,0559301267822
1,06636037892961
1,06606794179826
1,03937533204614
1,01707355275382
1,01796107932081
1,02134392986072
1,03069877097845
0,994429122522864
0,972310915183984
1,00086105721001
1,00440594370429
0,986286302859585
0,988516715757416
0,972479364983059
0,961400131407332
0,990518889974484
0,991466660946727
0,953190987354138
0,962522838101266
0,959872835647113
0,932519971345561
0,953156350692222
0,939492532492953
0,940111294404345
0,942872117472853
0,901108407114625
0,932017710752795
0,911231747682749
0,890472184872037
0,887354113529557
0,860880558557872
0,887106007270429
0,90704356965817
0,880751374949355
0,870409167296927
0,85109588746502
0,861335697651712
0,853718070652751
0,830483282237064
0,841396206318254
0,828570625748533
0,853021678875132
0,856275107214968
0,829262286141792
0,833791367998311
0,812453624904521
0,808746368282564
0,799889748427517
0,790001505520925
0,790808951573812
0,777642942734741
0,771141681849021
0,772962864131938
0,771672176956273
0,774591460261836
0,772543907208767
0,747592140484369
0,760223364548827
0,748373409433843
0,74520390897065
0,733152641995938
0,710380262391124
0,726089852385216
0,719567496992233
0,727938469122796
0,708501014489592
0,709553620264273
0,712274097985638
0,700878371027815
0,69960832918998
0,696246109304571
0,689783560451402
0,697816060690528
0,684751372926683
0,675370939745875
0,664434898850785
0,673113052204885
0,667746886817778
0,65005892677049
0,648359359212612
0,637878982731916
0,640470795281151
0,637623145172145
0,634401785840052
0,626285895298992
0,622506464507903
0,625797586334511
0,613651832424973
0,606431674250303
0,606654434107952
0,600227238947237
0,600007689728452
0,597063190679373
0,593362745612645
0,595810270370711
0,587313594394848
0,588061490921133
0,590855011130227
0,575792021855846
0,563869833888629
0,56760797481458
0,566411310599733
0,561716922114032
0,54128400363093
0,539820286757931
0,540901496711801
0,545833703009338
0,548696571504962
0,540006887040147
0,535313211096348
0,531932021424691
0,531058546896821
0,522698477415255
0,510738298352898
0,508330642789863
0,509432831585099
0,508048335480478
0,500886785113214
0,49454942801891
0,505262795616447
0,493118317867436
0,485342229523051
0,485415793806411
0,47384423057867
0,487919410146906
0,471398570651328
0,475638605475701
0,476930080991329
0,467726536375423
0,463244764274519
0,45745262615511
0,452733266729483
0,447902697726149
0,450434064837669
0,448084533671137
0,439727110257215
0,432338106727419
0,438048216444392
0,434458155896149
0,434958283478813
0,439110288841238
0,429137018666695
0,424858458505827
0,417394808689426
0,415944189572228
0,420579101474677
0,42020445695254
0,408340372187679
0,411400110115159
0,406675230372474
0,400984665154405
0,39722261009765
0,393317299656707
0,390587799724193
0,390297373826047
0,378679370665745
0,382753790814138
0,383749679281417
0,3776338097516
0,377660519703516
0,371401677899942
0,366972010275841
0,369189490691545
0,367651712530167
0,362712833191515
0,356825030813345
0,354761591989613
0,36002779249763
0,353856515854555
0,346618046675602
0,34743941981035
0,348400223018301
0,346227037649255
0,343802111214531
0,340576729475436
0,339824439369453
0,337061577476156
0,328473881631155
0,335728091520744
0,324710709316791
0,325101318429284
0,321643871129758
0,312758182128326
0,312614441101417
0,324237419582957
0,313246648558504
0,306999538760994
0,313608708606066
0,31532508753375
0,305873113061749
0,303565463303319
0,306667692461321
0,297595417812233
0,300755452707881
0,295573029097651
0,293683344537839
0,288071116550778
0,293396582752661
0,291497331579481
0,28523425518408
0,288488174547378
0,282197786126016
0,285187053129556
0,279213862800658
0,279155116904992
0,278799792160997
0,274559588790598
0,271777271970822
0,270144302778394
0,271543833574769
0,271427296442766
0,272334098367685
0,264990351664914
0,267017190129817
0,264020633736344
0,261659873134197
0,261240419189704
0,263972465613677
0,2587253424533
0,253044714665637
0,255632163617261
0,253774893161399
0,252187373593684
0,251046806680098
0,247944705636607
0,247905340799639
0,248117828290166
0,245703498473658
0,241721907521288
0,241793217264469
0,247582852231022
0,242191747380692
0,231615331952868
0,237063294891104
0,233127200149988
0,233398927009932
0,234866345581254
0,235975678327225
0,233016654202668
0,228908251046363
0,230896865226884
0,225994841287843
0,229685521658878
0,229233435457167
0,227543734840998
0,224057615256045
0,231592642520762
0,223458005254858
0,223918274582328
0,223090163457684
0,222169750514399
0,220935211832527
0,219941301810326
0,223542871286127
0,222301367137648
0,215692422189542
0,210852995508233
0,209088001450297
0,214378717518903
0,211267983427714
0,212065102634961
0,207738022459122
0,213140990124882
0,209941057326723
0,204627800165119
0,201876633000806
0,206099393741694
0,200917822979923
0,195770333385139
0,196133694237375
0,193877586014103
0,195893804805874
0,190849683860211
0,190671332826752
0,191916638102637
0,187540633982289
0,184844357311788
0,183003404448362
0,187335530607293
0,188346879648436
0,186196584719063
0,18787317137904
0,187137886411011
0,182511772050346
0,180952868355401
0,179865545064756
0,176633762617588
0,174545555505746
0,173228810904574
0,174776534588517
0,172843572550683
0,168773169425527
0,172096409508628
0,174270515630337
0,171096301667915
0,167282422070794
0,168268706535951
0,168140509554947
0,165339718073681
0,161895640659862
0,163216135032397
0,15857725855961
0,159353422546748
0,161181840107336
0,158745786063591
0,154435684013924
0,15654258627844
0,155819606788484
0,154645090824378
0,154324577808348
0,153200256765357
0,155894793180733
0,155663239334937
0,151446572699423
0,153848211146334
0,150583180044528
0,146894737487269
0,146978179968374
0,144963416981125
0,144170716478312
0,150393329907834
0,141695977800468
0,145779787687171
0,1442359516059
0,148812891130213
0,146739933358777
0,140960509801336
0,142714949296481
0,147103745034117
0,138366118754896
0,141618327888535
0,138004487868869
0,143568153582615
0,144187004327659
0,140355008356366
0,141432773894254
0,141650655826866
0,139556913372327
0,13452642699735
0,132613669665203
0,132621925926849
0,130246124777403
0,132287975724428
0,132462569403266
0,129580056418523
0,12901587740669
0,126420394223717
0,125718771900297
0,125027767086873
0,123560814341754
0,124677959211764
0,122560765041798
0,120195006568186
0,121176211151417
0,121486476564708
0,117087007799012
0,121354371064022
0,11882682364159
0,117328314732712
0,119528438558456
0,119063248144103
0,114571052935961
0,114369450159059
0,112301907302729
0,115819422033129
0,115792340210079
0,113970109435575
0,115911281126573
0,110352357229968
0,110576656300567
0,108180066419384
0,107994400981114
0,106300010633882
0,108692613778355
0,110059821232299
0,110295983417879
0,108069221395863
0,107865787790238
0,105104533141436
0,107093098541824
0,104138773896604
0,104904777285194
0,106245807344801
0,102691235265025
0,103275412120575
0,101395807900563
0,102169638362906
0,10158704718494
0,104061536388369
0,0992884464079864
0,100880566895582
0,101596760106586
0,0976147627305616
0,0950882584842478
0,102809568727536
0,0999206534416352
0,0988462906223777
0,0961672313327881
0,09729213704234
0,0955818250957805
0,0988544198164947
0,0961948773428302
0,0977100994239052
0,0877354074344488
0,0955631506457549
0,0946907792177746
0,0960747663038362
0,0924482294163601
0,0954676434221773
0,0939090389691303
0,0957637599838701
0,0922456072027591
0,0884372097631616
0,0901381726529608
0,091716197383584
0,0930175587742068
0,0899592833330445
0,089895180635709
0,0892146151239023
0,0884069948543021
0,0855928864927289
0,0851328799826289
0,0889154423972464
0,0882789549386912
0,0904782907876907
0,0877524710606518
0,0910582667604369
0,0905615760463964
0,0841387251091884
0,0860016110112513
0,087829810054883
0,0857288458946035
0,0843084856634085
0,0807271557465482
0,0838802626569053
0,0857560056400191
0,0853108171718294
0,0825697121670799
0,0879551239236921
0,0862291539667761
0,0827341334508605
0,0806709784191871
0,0836567867948772
0,0829209865775687
0,0827739256617949
0,0804549577333683
0,0854757594926582
0,0804787515868413
0,0837474784861759
0,0837971743341788
0,079860786812735
0,0792972275795438
0,0831341117216145
0,0804855009709329
0,0796765260352869
0,0805372561406255
0,0822892545483973
0,0801707466614248
0,0783649818940768
0,0787645909141633
0,0816446698716675
0,0764102283814649
0,0767677082850345
0,0786376642909617
0,0810973932173405
0,0748784089497899
0,0785166510785579
0,0784367188940611
0,0778904346970182
0,0786957162639325
0,077204070776893
0,0739274174133379
0,0763178537004901
0,0730225264946845
0,0775411491011637
0,0769878814161849
0,0766264117842744
0,0759560267052736
0,0762287814860017
0,0757063794989496
0,0731994751996215
0,0761747507064419
0,0776210157004971
0,0750201794427726
0,0725068412960532
0,0740438764077358
0,0721235548818904
0,0729432166984394
0,074316098273106
0,0717081786641291
0,0737221136099668
0,0693875520954878
0,0731478839085453
0,0745187925946648
0,0742271569797872
0,0715365674965577
0,0753983330960623
0,0713862251083636
0,0688826425614681
0,0733734779187762
0,0687015584962457
0,0681572708621747
0,0731184805490727
0,0700716580450043
0,0739163941511839
0,0697867908631149
0,0719193366637736
0,0702923151864645
0,073419649007993
0,0699276577106982
0,0714510633635315
0,0707201070085402
0,0705488148363674
0,0686142536801973
0,0694416527550953
0,0661351751331686
0,072178549047632
0,0709765521114605
0,068827125992199
0,0663748718077685
0,0680772652190094
0,0690945257537772
0,0709839977533712
0,0687946951695499
0,0711041875683042
0,068886974831557
0,069709794885049
0,0670472671953541
0,0688312454527346
0,0688947462950936
0,0694726669269427
0,0642601781541506
0,067702148622914
0,0680578119174898
0,0678602252077228
0,0653265546980754
0,0670961316405912
0,0670382613448714
0,0692378953760609
0,0654102532444958
0,0677780337580943
0,0630949788697282
0,0641092157525634
0,0664746199819321
0,0678871949272741
0,0659256732574531
0,0667906812248137
0,0673204215185751
0,066613015738794
0,0661842907383398
0,0653307788657003
0,0681670704432777
0,0694348759421154
0,0670339001695669
0,0665652136064359
0,0659841966316033
0,0644654888156576
0,0630635468938814
0,0615065103460026
0,06613663658256
0,0677039098570879
0,0643009500270839
0,0642150089412748
0,0661227120892837
0,067982553579085
0,0668513945226869
0,0665758500614405
0,0634251659185136
0,062452999980828
0,0635885744187958
0,0643943505157879
0,0659462117310725
0,0661956442323409
0,062625886379438
0,0627565886361136
0,0626894799828167
0,0621529060401449
0,0625417510043869
0,0668399040748039
0,0616122852065436
0,0643226321548971
0,0647674870048245
0,0658027805044806
0,0650609630571255
0,0648989922761384
0,0600114641895593
0,0613496520148796
0,0626880334014738
0,0642913921956815
0,0620552432163271
0,0663302228872572
0,063811774508221
0,0630142896796537
0,0620829897528446
0,0626555595564044
0,0621400199971914
0,0652012058176755
0,0613408482764206
0,0658529492195947
0,0625783428074164
0,0672370062419235
0,0622939758360064
0,0621592567542581
0,0626755288460659
0,0643676045558959
0,0647717360398456
0,0659215488572719
0,0639773864654654
0,0606090645235104
0,0613359497357172
0,0618771037493831
0,0636930419375782
0,0627055649486394
0,0593460782395051
0,0647136652003993
0,0631461050358873
0,06362951338721
0,0626604154818511
0,0623557864098077
0,0619725942472491
0,0643878751709773
0,0615495423728157
0,0640148154204054
0,0607508479283511
0,0634553462062202
0,0635152766290503
0,0605771704867684
0,0579228502704695
0,0624543570581656
0,0638323015283713
0,059675450078386
0,0641974685191076
0,062019081646081
0,0620379407255227
0,0622425051630938
0,0640698010206314
0,0622396175015392
0,0615523103424067
0,0636771947585717
0,0619926529043456
0,061721785586544
0,0613649901342785
0,0605153462032752
0,0653494926783062
0,0639635867847616
0,0621038756632072
0,0647624047770432
0,0607895685603626
0,0615997831541881
0,0653459063390887
0,0635157237891921
0,0635291155736962
0,0619529002134268
0,0629361139418132
0,0628443511246767
0,0627865362030443
0,0612445409546982
0,062922228221682
0,0653732660190703
0,0629651048390617
0,0659513179855973
0,0631483242863409
0,0641638182169077
0,0653778334871966
0,0629180330076918
0,063047613218063
0,0654574204804166
0,0642945935167698
0,0619183361630567
0,0641870255226794
0,0643326734211676
0,064967458303176
0,0609874680257235
0,0615082965134032
0,0634234301987469
0,0616858551362324
0,0680329253668034
0,0650584234866344
0,0633624379848119
0,0631981878687162
0,0647087138996723
0,0667718220508907
0,0691819932714838
0,0657492849453301
0,0659145390401271
0,0633881565365159
0,0646214994995924
0,0606571037677171
0,0642021480492338
0,0627291331887888
0,0657787535174713
0,0673874048723759
0,0677721753168439
0,0629361578243618
0,0652545805012644
0,0651619831199197
0,0637028712832738
0,0656236821650999
0,0657673087476692
0,0626917500733754
0,0666963945090397
0,0650499909571266
0,0675785272367602
0,0656179281284293
0,0648358240749706
0,067023313718956
0,0675176922184555
0,0672995003549434
0,0635654786078817
0,0629552003814871
0,066996340867157
0,0675974278075708
0,0655809472267504
0,0662218440065342
0,0675497837324099
0,0662559371843297
0,0653153587607216
0,0674213869047586
0,0655798822712453
0,064349021154662
0,0662343679972899
0,0658582500542216
0,0655180089477159
0,0689486643708342
0,0646162069605679
0,0679566186555913
0,0661593116345009
0,0662596640275014
0,0653941541240225
0,0656265884761993
0,0703888750251943
0,0672097995480662
0,0653732404570559
0,0676603044451806
0,0692354911371054
0,0677997327728736
0,0673972457651545
0,067510902824749
0,0684735799465607
0,0659600881264963
0,0666937389930418
0,0650711988762206
0,0682897904545331
0,0662739033887556
0,0664908748342356
0,0675812071845209
0,067584628514366
0,069053372736196
0,0686846570705298
0,0675405272671204
0,0683929439033022
0,0671994948251357
0,0664232098937197
0,068124172282974
0,0691737964503884
0,0686741456216361
0,0693865855330462
0,0685514951945571
0,0717671550559567
0,0692611363300143
0,069614434098036
0,0703229893268435
0,0673876398056943
0,0691175699966389
0,0700194835311559
0,0682353208961909
0,0717507522120006
0,0692113041837051
0,0691789837195804
0,0705411789360267
0,0686794673185171
0,0717992947342678
0,0725004187159601
0,0686111924514201
0,0694731092644118
0,072302315766766
0,0715752191624599
0,0711090844341879
0,069712153233262
0,0710280137618355
0,0710353495582725
0,0731893666455267
0,0694103743385266
0,0690769779331502
0,0709416263574813
0,0707409802003328
0,0722362242690802
0,0718269046091403
0,0718917143901525
0,0713556672468927
0,0743316351085348
0,0736023301632207
0,0714878726101036
0,0715671956597922
0,0703911670471996
0,0721868625087636
0,0712259181429674
0,0723419913376217
0,0712428855482277
0,0689504270621458
0,0728579554226434
0,0731811240396359
0,0723134078112955
0,0763492091005856
0,0725608631385255
0,0733588209591679
0,0726740980655853
0,0726051097715336
0,0733364282682594
0,0736278670235791
0,0750378665094911
0,0753654028964632
0,0721143305741803
0,072748696889865
0,0731108068804736
0,0742304926506131
0,0727839475192232
0,0747072062388191
0,0744180948504191
0,0741142269106746
0,0735108024583763
0,0757447741908379
0,0735041789402798
0,0744329130039633
0,0727738371151131
0,0771310351151904
0,0748042620262462
0,073578689754155
0,073196777493435
0,0761732622645495
0,0755971470583759
0,0773402148210063
0,0764277734957272
0,0774802172169009
0,0762989350071799
0,0784709384546449
0,0748142833067124
0,0768561645843326
0,0773335916650349
0,0779676719785477
0,0788090280981335
0,0807977922182593
0,0788174331905392
0,0821602329421376
0,0790077422184227
0,084068683599304
0,0840638311851789
0,0881979120587251
0,0885495813890611
0,0894826687668217
0,0893269260492702
0,0948828256478519
0,0922687509039301
0,0952686588568961
0,0930597395901798
0,0959660712407509
0,0835601305559574
0,0894702370618695
0,0908229006466257
0,097062976835377
0,0965537115466039
0,0969662531956225
0,0915260871031898
0,101875995092706
0,0927295389842643
0,106411032989638
0,0954868213913963
0,0996192695127534
0,0981364643814047
0,0935450212340317
0,0879607246305745
0,100668246168564
0,0888133408489423
0,101377441428512
0,0894415967026038
0,0987124965037427
0,0859969107351184
0,0959905793790961
0,0814284608347859
0,105926768475117
0,0864178420255372
0,1012007503364
0,0842487699835991
0,104992874878711
0,0847384129289831
0,108268999453806
0,0859814344431215
0,111421903991297
0,0779492954957692
0,112159537097045
0,0819510457449
0,113232312243457
0,0791697462465962
0,109578597702509
0,0766984749015742
0,110338859454546
0,0774785438410322
0,123346801246326
0,0818910627401393
0,117463089511586
0,0753586259882905
0,115071821344199
0,0840562080263784
0,119565172163696
0,0808756372031051
0,105517535016259
0,0903788812570162
0,106651713432773
0,0926725179048328
0,0895437237148949
0,107656829882666
0,0838534065790798
0,111540239462724
0,0751442462699134
0,122962869054703
0,0689301237820724
0,121325439779607
0,0729696677389991
0,117689470874195
0,0792124509081917
0,109955401262651
0,0821866357133553
0,09855433994027
0,0902187887571643
0,0951231698389402
0,0921037097334613
0,0951838010804609
0,0929695354235325
0,096411208389538
0,0888302953661324
0,0993096736046157
0,0875622533123013
0,099572475618302
0,0883690748456686
0,0999033715385305
0,0878435173293716
0,0979599655460106
0,0890007211139128
0,0981207110389152
0,0924228516936543
0,0963653523075131
0,090974976023406
0,0974517771853487
0,0911407838857707
0,100672356375834
0,093166692597896
0,0976892546900706
0,0917705396747825
0,097772102224042
0,0915681666433227
0,0976915581168127
0,0929639592084076
0,0994233141933629
0,0931840714028557
0,0990659751719974
0,093567468649611
0,0997408095955316
0,0935467992325962
0,0998665840264736
0,0945278048485002
0,101080446934092
0,093569240439504
0,100406026309549
0,0943645643180406
0,100849864419905
0,0960003824430391
0,101849165275517
0,0954518040152265
0,101515947496692
0,0972620464657576
0,102533990584286
0,0957365579135678
0,104008136224572
0,0988855824699871
0,102738308615495
0,0971254716512201
0,104021009241318
0,0991124118989334
0,104067517785966
0,0995687761020733
0,105173812510681
0,0984225629522355
0,105456827055821
0,100667855193786
0,104561067241944
0,0975953566486851
0,102383775124452
0,100149974212284
0,104575166074144
0,100356404008081
0,103722822722852
0,101344945284592
0,106255741045331
0,102728150771412
0,107504611240649
0,102893175824018
0,106748461185235
0,101763195551306
0,107620000180208
0,105587206797187
0,106501374233904
0,103334774659166
0,108679429072382
0,106308828591302
0,107625752901894
0,105616002189868
0,108871770567398
0,105903782795692
0,112357283643915
0,10725650602913
0,111033949448248
0,10662959980371
0,110937309587113
0,106917740069254
0,111153647950884
0,109134746326007
0,110708412643265
0,106338914824095
0,111784209143398
0,108600454911979
0,111882133562585
0,10764863869226
0,113139640115097
0,110907679591936
0,111302760605609
0,109748331296827
0,113096429465754
0,111284298848981
0,117032788623801
0,110584790771748
0,113410681884735
0,112407359462154
0,114117448211172
0,112200884107648
0,11416049528851
0,112889735838424
0,115098440816568
0,113412622181357
0,116146768346423
0,112951746222871
0,116180640287672
0,114792711885173
0,118698394180072
0,113595572197286
0,117621975327166
0,11703783037394
0,118358223507781
0,113598267303651
0,120212496206887
0,117037995567079
0,119358157535714
0,11647457335015
0,119308252898137
0,117045194022357
0,121025172009668
0,118416127178835
0,12221386448074
0,117799227148383
0,120172055184457
0,119921003625956
0,123267196070019
0,118467832493711
0,120764223043274
0,117138330830005
0,122231578464592
0,122958161180556
0,124142513357308
0,119505097713356
0,125153837897469
0,120283841230182
0,123052078871009
0,119459102843557
0,122366278901786
0,120879134396869
0,124921204170508
0,123338978181316
0,123521054394435
0,119144729123885
0,124249721715516
0,123720142396452
0,124426707803289
0,123775933806753
0,126301573519704
0,123685316054823
0,125042661666463
0,121896117376712
0,124673792495749
0,125460327941427
0,124379618164164
0,122473095508251
0,126309758234885
0,123366968136041
0,125491067050664
0,125023885747076
0,127828270606003
0,124604890589099
0,125914298009292
0,125217896042527
0,125057450275133
0,12202641283932
0,13039414093213
0,126620080408081
0,128427728082637
0,126803851295668
0,128382624020991
0,125721704388317
0,129664392162183
0,125412215306852
0,126348067689699
0,125112107557542
0,130019061310654
0,127342901111399
0,128386803268129
0,12664332910884
0,129933836345438
0,125334222037435
0,129787047412321
0,12723287895324
0,128187046268262
0,126433944697468
0,129560227781108
0,125868886792281
0,127060076084113
0,124038079107821
0,12720216537428
0,125731608026293
0,127970101711488
0,127507686021973
0,129884030627481
0,126399684186477
0,130178299664156
0,128984623850586
0,131225961050127
0,127107528524579
0,127544807620265
0,128296725597209
0,129214866574093
0,125693129229106
0,126247995566556
0,126711901404372
0,126941141956637
0,125159696943194
0,128825616622497
0,125986008414836
0,127739380262592
0,12583861958411
0,12850368056439
0,125478491906463
0,127507416518524
0,128010455351634
0,12954574743528
0,127376620015571
0,129779887542128
0,126577648316219
0,128629072187322
0,125462231087499
0,1277766249591
0,12459293834512
0,124603507951774
0,126453528234042
0,127685179644225
0,123346392596038
0,128402403524392
0,124155999178147
0,124388805783359
0,1236652701278
0,125737699526224
0,12446020717673
0,126237955494944
0,121766272715324
0,124849873296818
0,123700510320225
0,126074719711669
0,125428493771711
0,121268751034166
0,121051137256066
0,12509900846242
0,121706018366834
0,125740549318473
0,122429409465513
0,125862631933221
0,122588363446231
0,123438804610498
0,121962945522912
0,122944781531014
0,118935990595426
0,122052658690442
0,121754783970094
0,123687837839799
0,119488794195576
0,121191484518774
0,120794511549906
0,119400611567969
0,119788493574024
0,12308523413083
0,119226154723647
0,120355607763716
0,119944950587766
0,119675858853903
0,117907529191683
0,122093205973207
0,117990170811497
0,119445037744605
0,119164042544008
0,115858345426753
0,113553551362254
0,116606592513041
0,11615284265119
0,119657786048986
0,115350560140815
0,115961075675751
0,114615239631581
0,118466545563095
0,114265196107027
0,116455685593881
0,113120086617687
0,116538567870647
0,113831029121045
0,116465217697076
0,114873597057611
0,116381837991606
0,11178657058993
0,113223998082766
0,111672414353513
0,114154161289537
0,112040308149907
0,11119556454609
0,109194181259304
0,114196363849779
0,109401782428284
0,112390230477679
0,108203087880303
0,111269290170778
0,11050605781141
0,112358068877325
0,109449764705643
0,109729176849461
0,110215291305929
0,109223638166018
0,109442106019594
0,109100479517511
0,10722463533561
0,109921406073131
0,107280257977895
0,105397911755182
0,104682962976301
0,109134237867292
0,107192571975377
0,105553786584114
0,107854551405917
0,10642463199263
0,1038881362721
0,105551665548788
0,105958307072453
0,104438518331492
0,103750477562699
0,103146217704518
0,102529220478745
0,101317297524552
0,103586798500364
0,104486423236644
0,109229117640439
0,101449681857452
0,100614336043963
0,102006646961297
0,103038725679588
0,10164993263756
0,100286982807515
0,103876176591669
0,0999058026091911
0,101172148380206
0,0985708689785346
0,101053182904876
0,0988142031911837
0,0998456549864795
0,100034722611142
0,0987592570213063
0,0988044489086467
0,100019238234087
0,0959068068667968
0,0995138179165997
0,0970362591135429
0,0984191871632145
0,0988483394768097
0,0977574826311557
0,0965342190061653
0,0963390998367269
0,0970369508264298
0,0995292008253874
0,0935819145098749
0,0959212626432734
0,0945667942152859
0,0966108973536174
0,0931114512760337
0,0962128205537636
0,0932359950252767
0,0950675820943742
0,0919108328479454
0,0948494394038351
0,091095881182229
0,0916346115083778
0,0902785880134516
0,093397146540071
0,0919673816606209
0,0923825403378815
0,0864865860104072
0,0924439696377338
0,0903283686160409
0,0936325144682463
0,089370525496104
0,0965789763479281
0,0864867581158102
0,0956611277904943
0,090979705583098
0,096003236038543
0,0917772111698909
0,0893052166451485
0,0900528134094421
0,0883104737630304
0,0887420864755173
0,0876609451729474
0,0884717453439073
0,0900073600811462
0,0886953465578856
0,088302367108623
0,0879163443032126
0,0879112844939134
0,0885130258284264
0,0879690116303252
0,0876103484914036
0,087278813351824
0,0871271175392247
0,0885191231548151
0,0878515338289829
0,0908075722182153
0,0899935818763593
0,08973296417264
0,0854756185369989
0,0855263440072405
0,0917671807718348
0,085471559850993
0,0935913341453839
0,0791677708250096
0,0882007405642766
0,0818929681542207
0,0893762891186735
0,0831603277591046
0,0879240179557457
0,0848950946836792
0,0886556067114228
0,0868082518113018
0,084073645644516
0,0853158326258418
0,0836214072072024
0,0863269453676177
0,0836741484830657
0,0836584966520179
0,0848859077616983
0,0845368897481434
0,0835074457380948
0,0834802336833454
0,0866507903700783
0,0834795716715052
0,083403917557125
0,0812323816827833
0,0859612055264024
0,0818189054352863
0,0844885257131105
0,080289352509047
0,0834894658635665
0,0867087707804321
0,0846519345252943
0,0838663652155259
0,0793313301023142
0,0862824699237034
0,0812044151129691
0,0850556435979498
0,0809591359595526
0,0851176177669734
0,0816030118315963
0,086027728081808
0,0801428284580696
0,0847640867873991
0,0795712047428403
0,0850445390144657
0,0809953853298615
0,0810462938103429
0,0815008702041105
0,0829518239930803
0,0821883758017465
0,0810562472171388
0,0863735574497778
0,0864205910847586
0,0890043579015171
0,0804434590548411
0,0819259878180408
0,081175336466272
0,0821881838973396
0,0822185570337145
0,0812785202244693
0,0838510676132053
0,0828854407695594
0,0832802867257229
0,081036171641258
0,0829656592000041
0,0830344618809667
0,0830945283040103
0,0802576132495375
0,0834721605542287
0,0810878536060135
0,0836416235829367
0,0783497384386018
0,0863711498690669
0,0807155902299997
0,0888190781377765
0,075016204659567
0,0878626525246945
0,0739355781866977
0,0995135725343772
0,0770472321269226
0,0938643748701309
0,0799352725696262
0,0858664336989608
0,0835929510916249
0,0818754187881033
0,0838841296586915
0,0846768269086037
0,0816804836659285
0,0845324221776772
0,0813617719541416
0,0849361222728117
0,0830137837304562
0,0838752055407165
0,087314128083507
0,0926732593191617
0,0907100380596531
0,0923420464283694
0,0789049163368602
0,0884815563585726
0,0881745538026648
0,0903300078059253
0,0889363998964392
0,0818099057022766
0,0882308057219306
0,0849493689009168
0,0878395914576867
0,0840346435853744
0,0891850844994206
0,0866655744969821
0,0872253653575222
0,0857419973918402
0,0836298709126447
0,086290675818825
0,086188075428713
0,0929792502109551
0,0874779064240325
0,0853576247756601
0,0917644740225455
0,0899331202437614
0,0930706012032216
0,0879712474927709
0,0909887666889499
0,0897144261342449
0,0948873416310566
0,0923017581858375
0,0928593175023735
0,0977074103207273
0,0933741241751636
0,0934697139203795
0,0943183979435006
0,0921413394542059
0,102528639790711
0,0862596563138894
0,099055335843703
0,0939931994542054
0,0997409387916235
0,104408413740559
0,0885681670251016
0,103060670789063
0,0910281375088779
0,104390713579959
0,0873519622992828
0,110970175349433
0,0884585308211193
0,112220841823722
0,0871690805134219
0,111091264273274
0,0923540072009085
0,108087643849828
0,0979193672939329
0,105650232944822
0,0977902923738837
0,110601440360275
0,101429282568956
0,106719759758464
0,108604017069124
0,112819803873065
0,11467232346123
0,102358870910797
0,10947277993751
0,120634656704213
0,100256455049903
0,11807847952803
0,102113428522065
0,119030675889982
0,106900911795043
0,11799718082038
0,123147952923235
0,121165626747398
0,119241676150285
0,117551603262367
0,118068892934682
0,133723673573598
0,124361791417694
0,13340775484307
0,120816309965737
0,133472160749468
0,122285149108199
0,151134720623002
0,12045511138677
0,157415240848892
0,138168780255487
0,152010525159802
0,148772976025876
0,147364803154718
0,146234745210111
0,150216074501602
0,153820925984074
0,152295286362863
0,151190974190529
0,154447110622532
0,155621650743958
0,155166779803783
0,163236485085479
0,148066153567897
0,163395900951309
0,161253252848657
0,177495691106227
0,176013387830822
0,166849972495518
0,161812599200533
0,173277013206422
0,164901700280379
0,178053375559493
0,169854901180584
0,175057614709243
0,176036884249892
0,174953336851648
0,184281156149359
0,17859613907949
0,190045047094171
0,184581205086872
0,18845377895114
0,197369172548254
0,214323309217407
0,220822285319227
0,196365490557365
0,220652463471474
0,194070149659527
0,225038893646382
0,213962084290973
0,221627413981044
0,218863088796114
0,224759820969535
0,231061153091441
0,230028730716001
0,247560649019608
0,240258283669047
0,251393948251401
0,260931175753045
0,256558500759989
0,266421146624036
0,256081296917287
0,323783097453241
0,23489749154753
0,31622997753653
0,265739940198771
0,303165477693025
0,300041486278088
0,31677656278298
0,310617450854293
0,306577910383031
0,314509331998354
0,325171770817903
0,326610677227782
0,342580755517392
0,345241087666366
0,357432940239491
0,351475555494815
0,363907815067208
0,375540365551085
0,437404941588212
0,391478923702857
0,388325510287526
0,395754025564939
0,407239691808424
0,40588630187723
0,41638865435885
0,412297678176483
0,42668529191394
0,444951175935096
0,444152763941746
0,460609553496426
0,441304828352647
0,477944032841554
0,451457353767764
0,501113409706152
0,466885771725828
0,511378837542658
0,489249499738113
0,496269014384923
0,513712774006616
0,508772572557902
0,53451798336463
0,535636934755341
0,554736355214313
0,542075607897326
0,559350346025728
0,56323923762752
0,557583751364794
0,566613665993596
0,570949961079675
0,593819229080776
0,591843309567556
0,661365610083642
0,636772054152729
0,628543851185562
0,612834229266809
0,608983177610612
0,632721537106209
0,628529995743751
0,663794141249885
0,652951619451562
0,661304369032098
0,649088815998922
0,659936242598893
0,671260612962313
0,655615991130106
0,660855762968224
0,652971138379526
0,684194619508714
0,660789018373951
0,681971797934504
0,699270790211443
0,695720848762509
0,689392599522962
0,650823475741659
0,658797422591236
0,660291976716504
0,66110086460657
0,660215169931579
0,677697339408571
0,651666514037308
0,658889616527721
0,6242865868245
0,630377622625592
0,628814868472127
0,640111384079512
0,620622387336
0,619268215892138
0,596188983801968
0,599534004737995
0,580919143514274
0,61715358002408
0,602374910759021
0,576133158927577
0,547519191585528
0,560168402862765
0,542135514731556
0,536539242810281
0,528315174926397
0,532444988802269
0,509448492941892
0,514336996709364
0,496469563672064
0,49391927375758
0,480973317390897
0,489567205150851
0,462825946963058
0,473208643753853
0,457250907614945
0,456245164694851
0,440053053600017
0,438335162873545
0,430816459815165
0,429439777936014
0,422371285675911
0,421988484859256
0,410744261905045
0,41008587190359
0,400476125408087
0,394803952548453
0,390300986530742
0,38871260150118
0,379869270480856
0,380730850532028
0,373883688467019
0,369712234403015
0,371017531436031
0,37091189235135
0,358116519346105
0,352936094292206
0,353755115025029
0,349570395610694
0,346045390787103
0,333408721932904
0,361422883745996
0,35349243878145
0,33297571636415
0,339004325430602
0,323073620804842
0,335746170280739
0,313615124757029
0,335739844085554
0,326477495202967
0,326021706437325
0,31719717268054
0,311884210790657
0,312605101716899
0,322692317404533
0,305832781398271
0,311860539669841
0,285530393966402
0,319758047728735
0,315377948470544
0,336222360970639
0,357750437382407
0,30705708536443
0,301337463963004
0,289975358361533
0,317312428692886
0,285393891419734
0,29955358884872
0,273428399323149
0,291832641977143
0,283318667256149
0,284584739858892
0,284049192082907
0,27306402555086
0,282160662155148
0,295107791548316
0,285314467790982
0,285719673578215
0,289518013594522
0,273221340244419
0,294800978688858
0,285047647257303
0,307295616158731
0,265100708259199
0,270907419780755
0,263078115236787
0,261182847734401
0,282479252861442
0,256240259636033
0,274738464481741
0,258549938108476
0,253144182450313
0,259162092221441
0,259219630273699
0,269213821844391
0,245915189931887
0,280287690992219
0,238219901899503
0,263909671894541
0,247040884066814
0,268488001747612
0,276415508673933
0,264247616724385
0,246077882770444
0,247909045336211
0,271257865669453
0,254920531538908
0,257596092542972
0,241387767295576
0,242350140748089
0,255428334904507
0,237444904655313
0,243220523122008
0,249171813424612
0,24545385310638
0,256726495613821
0,246970900127499
0,273092144629848
0,242307374715423
0,233581027341514
0,235198021239554
0,228432113203888
0,236860342095331
0,221811590509761
0,238313658958579
0,243948553366938
0,22363217951478
0,249169201672335
0,221139579693656
0,232722962298135
0,22631902272951
0,226987635356346
0,228073435155494
0,230646957595406
0,237738451874867
0,237655885254491
0,22178242195713
0,242809080410358
0,222884632881403
0,23272056930706
0,217838159167579
0,23186240178906
0,218794738263309
0,231630580936509
0,223619290954103
0,225495282105923
0,225160065265733
0,227664636955943
0,216698242247176
0,250802502263669
0,21048324720548
0,240216853916011
0,216295360431551
0,247709082202615
0,235271094574992
0,231948322339765
0,230052839695685
0,225558079935125
0,232826007385104
0,228935698916334
0,224071192375212
0,248634093375793
0,222476954557845
0,239192066268686
0,228534489610139
0,238092928907776
0,222095939274266
0,243686297895783
0,233452668587456
0,242439527565337
0,271620993270146
0,223533682913662
0,250728919816108
0,225349320139055
0,233550210614134
0,225009191958882
0,231025891314899
0,232426413542308
0,224252417139494
0,241863241120575
0,227828301840431
0,229823995866026
0,229345563845409
0,225658262246707
0,230773947466305
0,225177746505086
0,23002247509968
0,231093313152204
0,226871007593796
0,228655957725183
0,22043577927051
0,254820145474269
0,227733592190637
0,229068870377731
0,230921954607755
0,226262878095428
0,233112032815449
0,220651855328411
0,235292038211142
0,234298969418464
0,230422821288832
0,229223730259862
0,224230477085728
0,230096265287728
0,220361483683491
0,241646710480716
0,220292465191433
0,22991583905361
0,229306140906485
0,225825710858013
0,270629449691559
0,216461818619089
0,241775832671812
0,225019380967514
0,237281225000617
0,221034532683768
0,228537204802638
0,219596845996739
0,232971285101637
0,226259698231414
0,22933062359542
0,224638643772231
0,226130423872404
0,231158608885682
0,221239616220596
0,231872744555648
0,2317901440745
0,226702654063436
0,228718814756445
0,225453906483973
0,223355582618113
0,225916347948272
0,234571317736366
0,22600584770312
0,233114198274523
0,2210679584971
0,23741794391661
0,231833398699098
0,223852079817219
0,224555422094524
0,22717640180615
0,21975881063511
0,228963835208109
0,22081812721643
0,239735173800811
0,22210515232727
0,236515241893405
0,222286137694708
0,224432172597836
0,220069621878661
0,227359378742705
0,219979443599172
0,231674775464039
0,22181788825457
0,234028729419346
0,226545227024414
0,226077381478981
0,229306421047284
0,226359116578643
0,235833898512534
0,229727407039373
0,225708302974624
0,230513004468547
0,220987472233025
0,227147249954118
0,222264909241875
0,226923554168733
0,218782581840421
0,229175689051158
0,21542641390071
0,237854709815592
0,223290935045198
0,230485703509321
0,228784381468989
0,218177993748884
0,225602969642784
0,221204975773108
0,222244373455077
0,218960428942704
0,224249555988706
0,220303099687381
0,220860904504326
0,220894702832705
0,220318406284688
0,218531944608159
0,21948912463887
0,221652223423971
0,219374725489594
0,220552581505851
0,218158132503128
0,224583244186709
0,222051170178413
0,221445904024817
0,217851004016859
0,222749886878811
0,226278756336847
0,220423093946572
0,229289981678262
0,216530140930349
0,221937830697243
0,217639269103373
0,221775391244432
0,216335932936495
0,219543595433599
0,221092872823547
0,218240466353329
0,218923136786798
0,218540115999019
0,215130158564448
0,217811908874072
0,218305719356133
0,215051364548735
0,215389082606779
0,216728234433104
0,217740251186783
0,218692565951347
0,220016135266019
0,217332919790371
0,219758036290238
0,215567127633014
0,22277760528668
0,215826720015407
0,218509329357265
0,218496825532568
0,221374991331164
0,219446470786309
0,218044320522506
0,214543233855349
0,217015983413087
0,215505395829965
0,216545404724452
0,216680547374351
0,215535569861346
0,215585010847679
0,215983447982424
0,216461787449831
0,215837993825909
0,215838338217503
0,214592500105366
0,213759226602091
0,214973633671583
0,213277580654981
0,213605845831866
0,21440420937016
0,216832957766772
0,216376319691803
0,213677934768251
0,210835362047033
0,21355387267929
0,212379717589812
0,215157685440145
0,214197558428295
0,211332907544352
0,21472731785874
0,213816108294148
0,213189165267061
0,215425134983923
0,211923877912351
0,215208168625186
0,212168884886224
0,216533165485178
0,21388336572293
0,214979399682076
0,213213954763116
0,213834563125536
0,212763236862654
0,215334755496456
0,211082668337409
0,215095463022366
0,21500845829159
0,21367802822325
0,215484935532145
0,2145660929245
0,215021891814341
0,214040311399671
0,213920618899994
0,216177134450099
0,214625317322799
0,216796261484468
0,214686156945465
0,216306884794936
0,213025361187448
0,21597829569584
0,216114049828295
0,215642739058277
0,217356041423386
0,213358187884177
0,215298743107594
0,215706583662809
0,213256865390429
0,217714748992512
0,216007127483228
0,21277347046081
0,215614327835026
0,216702222342345
0,21582855347507
0,216210388647156
0,215376864992407
0,21700938951942
0,215877909192437
0,218283981764584
0,21537459612553
0,21505798682805
0,214698728204176
0,214817930222725
0,213353536705788
0,214319785481421
0,213844223329408
0,213579923513938
0,21126277654717
0,21362226353351
0,213212827282452
0,215795038505762
0,214048070813731
0,213586329790846
0,214457462989864
0,213297748238326
0,212584735013871
0,212461244470112
0,212462844842897
0,212993592863999
0,212242218609914
0,212548828178299
0,209935077347817
0,212177258229937
0,211132846105871
0,211654869031872
0,212231012315365
0,212678415600711
0,210919546266387
0,210753928193082
0,209081579248226
0,210201776148313
0,211154257127879
0,208919163803046
0,209370257014757
0,210374395821059
0,206794828338319
0,208345249524404
0,20768267171069
0,209778475544693
0,210710197349405
0,208385481062598
0,208734960985351
0,210161221057881
0,205905616612809
0,208365184620958
0,205941368032413
0,207789777474579
0,208369936701459
0,20604409045224
0,207972010268563
0,207422513414821
0,20769566557284
0,208127739757917
0,205336357326584
0,206495114466847
0,207528965609857
0,206963624324201
0,207357623740059
0,207434424296766
0,204514944198544
0,206940438203979
0,207989523599761
0,206865130573793
0,208444846404659
0,208885019697391
0,20833935154333
0,209508662736262
0,209806260642349
0,210617655225682
0,212600819853954
0,211720750110953
0,214091264891599
0,217355289570084
0,216818373576437
0,220109006356156
0,219158928837518
0,220330889756496
0,221515029754728
0,222795147551691
0,225349748341421
0,225911007622019
0,226113269920851
0,230171456587017
0,232731116539798
0,231250180200128
0,233279745892336
0,235442824639756
0,233045412109262
0,234264061653596
0,234967272557046
0,236258485233372
0,237088422066814
0,235976213697964
0,235658674586876
0,235286555491501
0,234724882932623
0,236969530852776
0,234167016763333
0,235670541800456
0,234741504988779
0,232751964829872
0,232978420333549
0,233252303763863
0,230454642351583
0,233604490019767
0,231616607096859
0,231764890345958
0,231835172702848
0,232969396884071
0,229355232334832
0,231478593920509
0,231015386419478
0,232074551515457
0,230295033713991
0,234069840862383
0,232646486075173
0,232270916945072
0,233297246331051
0,232091509114353
0,234599849151343
0,234717907262733
0,236560729183234
0,239400838762005
0,239239243106974
0,241168023144992
0,241699779633067
0,245898497897935
0,245064994495256
0,245631437302821
0,244288451151907
0,24729863565534
0,24599088458738
0,250187537557567
0,247738602163451
0,249699336816987
0,2458896829207
0,246467183324523
0,247223638485083
0,243728931726503
0,24444641787401
0,24671727424421
0,243071430514389
0,243737883207554
0,24281655113176
0,24458902644086
0,24622910024177
0,248756228563286
0,246874915002704
0,248897949320091
0,252807311479996
0,250488275930896
0,252452210547478
0,256601889942506
0,254144065900306
0,258133752559271
0,260072689431239
0,261346897592986
0,261486777630498
0,263974067848211
0,266529067342451
0,267037573955127
0,26797143031663
0,270523304358747
0,269056590413518
0,272447146668256
0,273915090263433
0,273775108594081
0,277160301112401
0,278124043696663
0,280336139824556
0,280305824980582
0,283783909254484
0,28462003613686
0,286961574614238
0,289991636449327
0,288302894286416
0,294166622936208
0,291214118585604
0,293435705917468
0,291921437586263
0,290241492325133
0,294226944773704
0,292989846600982
0,290927291979129
0,288661312417516
0,287309885894501
0,286929258945268
0,28482540706861
0,284339109115211
0,281129249003869
0,280429986597753
0,278566187166099
0,279324664404763
0,2778091563602
0,276816496351686
0,277400700113201
0,280350163122379
0,278785043096001
0,278959610103901
0,279229864710383
0,278902189781439
0,279964432768604
0,281357330675146
0,283660711405683
0,28273465594013
0,284527852028767
0,28657116871909
0,289013756395952
0,286740302031916
0,288515853110814
0,288851639541973
0,287344926625845
0,289479472939773
0,29088497419839
0,289769380475187
0,294959098494349
0,290479390293689
0,28875328405975
0,291730546355729
0,288787674553491
0,289824196212308
0,288792384408514
0,290955048249417
0,287990023120741
0,288494104539431
0,288668426099512
0,290025627091986
0,286809654422149
0,284703587754829
0,284634669224878
0,282471227179135
0,282971175214356
0,281489398087766
0,280397613402121
0,284340547041674
0,280521787975385
0,282010623685548
0,278344160131413
0,277550017473655
0,276887039797111
0,272985255620502
0,272730640516982
0,26795174001513
0,265789467120752
0,264989919071053
0,260978523568428
0,258972012453257
0,256032965576669
0,256020518278496
0,254045355795598
0,253535156873244
0,252105937567975
0,251491887970623
0,251499545273187
0,251873415437419
0,253703995876014
0,254800580866147
0,253521600772231
0,251947859603443
0,254025401615844
0,256902598158817
0,255055877720291
0,256525838964904
0,256724960195417
0,257080906072123
0,260694377784394
0,257515171877803
0,253805704575915
0,256760840663802
0,25715381836158
0,25635759770405
0,252930784272905
0,255721808232355
0,257388455330663
0,253993623320783
0,252857514178765
0,251609425281562
0,254433831093968
0,257429212780751
0,250980831083472
0,256022131585097
0,252637998223509
0,254370853912843
0,253983825888385
0,253394920528278
0,251441174434891
0,252166448189457
0,252958247006598
0,252943990665268
0,252399357239023
0,25074359329652
0,255291514092513
0,254347955253037
0,255484041916277
0,258795482243366
0,256371831588016
0,255575277932319
0,258018843104255
0,258513432127779
0,26387864784916
0,261258015799389
0,258777868528294
0,260350369736573
0,260988627903465
0,264930089215847
0,265910825998625
0,265321910829761
0,269525118157527
0,268791205297532
0,268075310535371
0,268601604699038
0,268009614127528
0,27640964155155
0,27695284139151
0,273051253008204
0,277655746731248
0,273581665850414
0,278938172557716
0,279273397194982
0,280764907838379
0,282385787261994
0,283246068367219
0,284788245499789
0,288203770722799
0,285692970146619
0,289601509289906
0,287777603797771
0,291899288193532
0,297549743347609
0,294047256748454
0,299783911877648
0,301268079583727
0,301099002622101
0,306053055342797
0,301914075131795
0,302923426222748
0,306112884899443
0,308342444192725
0,307558964454716
0,312030352858006
0,31739507089842
0,317936569290496
0,316185044636789
0,320227961228588
0,324243144469216
0,322111895987505
0,324430549611133
0,32764332118457
0,329535800326907
0,332217571265415
0,334776832823054
0,335428640260681
0,337336748557084
0,339442598932917
0,344546802303196
0,342258869838235
0,34745927260704
0,348966713230571
0,352048593507671
0,354212611616527
0,349414805649827
0,353626047283659
0,357720711862621
0,360246490105653
0,363844113327142
0,369736964341132
0,367657291953574
0,371757937916372
0,37615743349123
0,388213251394362
0,386043426982533
0,387466346041773
0,389789908035853
0,393513153861793
0,39806601108957
0,39483141950778
0,394384480337894
0,39627667456484
0,406006368311876
0,401109140296145
0,400464433732963
0,408125978327834
0,416789403378142
0,414764213711428
0,410335182930957
0,417442218889021
0,424591682130776
0,423301138470559
0,427259074475804
0,434393829464609
0,429403175727
0,434046269027636
0,437711278205019
0,442927925944798
0,445718760172731
0,446488041210523
0,447802954409168
0,451184810921493
0,453094558136612
0,459874728426997
0,460757505805629
0,477046901647428
0,472864003769637
0,47852223279202
0,48031001182576
0,471005075385094
0,483481143164511
0,480173354304713
0,471812736966453
0,496475967625559
0,490902428696577
0,498830060165436
0,497803078323551
0,506168076835031
0,506842475226423
0,508742503696659
0,5094529679978
0,517973756836275
0,515640364680765
0,525050555042322
0,52978268625662
0,519393076609289
0,535380628671465
0,541478737408633
0,530777974274218
0,543457742135862
0,547658944345013
0,549215588891103
0,55492877878584
0,543193609777705
0,55552261300845
0,570729787908427
0,57047187009735
0,554721623512573
0,574493400250849
0,587064251743657
0,593101005294718
0,590053772344658
0,592064473789459
0,595071693470292
0,588701874100814
0,621116511799808
0,609806890669667
0,596223100285741
0,602276471706093
0,609788749636658
0,606462627047686
0,626475965390635
0,605741868809627
0,614255072107505
0,631555455469733
0,637841396695291
0,646003732299202
0,641578966135637
0,650232568834286
0,645037798465624
0,652564081900834
0,676020500944397
0,651123704342549
0,673262234131706
0,673475647849367
0,662582552948538
0,688580969993743
0,695922547139542
0,669689271493161
0,683909142766974
0,689431973667895
0,688645294453406
0,686652288660333
0,706778269202501
0,688702798019567
0,694737635467947
0,722063118365443
0,726205823933805
0,721352792015061
0,727788361110496
0,718454653377595
0,721788753637794
0,718757755281794
0,742229774027517
0,745560263798605
0,771038091264157
0,757212656764523
0,758366820085326
0,754776040047982
0,750858245079251
0,746836323665436
0,77544399936594
0,745242383050094
0,774020646468796
0,808302136763776
0,798748438520854
0,794887626785723
0,810818425524892
0,805745897531996
0,79962925407995
0,777142304168836
0,786533119384008
0,82558749677835
0,796843040460257
0,792549457786632
0,869552921371631
0,824984195436602
0,822175577487554
0,856380644529168
0,841984817872766
0,835743122060781
0,854929191707295
0,855120918491244
0,863905736304226
0,825515638275371
0,881239150730206
0,869974090037663
0,879759309737498
0,839801519245723
0,885505017284311
0,906675379716986
0,869638194772572
0,899534024582428
0,910515932702043
0,916126357002578
0,937686716874901
0,870228500817592
0,989217281291372
0,942152745040044
0,893001945935734
1,0283559642954
1,02680341823538
0,944789478318258
0,977405617319747
0,919995226529714
0,99088031653743
1,0274428719336
0,890869374085227
0,902716957267063
1,02956186661647
0,94767024749539
0,951426166945731
0,95245408706219
0,972635145292516
0,944263154138026
0,973042165156973
0,885156695897629
0,950057621584747
1,06127658496392
1,02965932330629
1,03070000908081
1,13170940745733
1,0569063183981
1,00066916433759
0,99286252693538
1,04980282635938
1,03235741028787
1,07013148625257
1,10578372127898
0,944621959063054
0,955251897151973
1,06320509999349
1,12427403593381
1,13991569296182
0,975366454547872
1,06376475728642
1,00209041182056
0,920586616235961
1,01890475315448
1,24643945141736
1,18653952384017
1,14965183784024
1,009528463094
1,08671943385311
1,15597266378475
1,0893482821623
1,2009588803048
1,23342373716678
1,02387818198709
1,30536828328459
1,19338353656192
1,07898206577582
1,18428563220209
1,24287129061555
1,30497825963232
1,15752682025253
1,16013128428568
1,14954438182646
1,04700326286158
1,18244858116874
1,1782869621246
1,42444977021472
1,06290165647243
1,18281565053453
1,06278474974404
0,958706574525712
1,0865053294937
1,11162073369853
1,21473755121144
1,32471831872641
0,918178467988941
0,970082045703579
1,2374405073787
1,30085184427347
1,3730511515614
0,979046987395035
0,908781969884177
1,13402098931006
1,81286173381994
1,29313438862313
1,05031683770354
1,88644778539514
1,44804283755883
1,75046362419271
1,45842967501721
1,25140159052424
0,973137920696028
1,18445754152126
5
5
1,2894803163384
5
1,20035871402906
1,38415284011269
5
1,82667378998263
1,89914867239614
5
1,02355542561766
0,902650702207721
3,54731331402423
1,17673635150057
1,14618435131455
1,34523544420427
0,69976854551737
0,77312260273155
3,03233573734064
1,34214365210618
0,633967729649143
