3596
4000,36533379555
650,420452594757
1
2
2
0,0180026611575362
0,0342906201026772
0,0212413049626543
0,0201671941380329
0,0215366354420195
0,0256278482569013
0,0207024461139148
0,0370187551411577
0,00913437968607663
0,0340608175760682
0,0217304912033116
0,0259522195156035
0,0186230566366357
0,0303466079631128
0,0174021744579021
0,0291456669057272
0,0172448195189369
0,0245032433455796
0,0164860641849618
0,0272238011420097
0,0119471830693241
0,0272331381142228
0,017251171143118
0,0296166747362061
0,0174714412544698
0,0248299735520668
0,0173341327608142
0,0193553287765913
0,016784963684914
0,0339987522364583
0,0185903349528312
0,031673954621161
0,0246748442970661
0,0334045661484311
0,0283542491124832
0,0257147762923068
0,0166623481128676
0,0327038500418914
0,0188683548431486
0,0386664725397058
0,0238965932268159
0,0286226764838597
0,0291991245931677
0,0286992688281495
0,0172244380521843
0,0225360880792744
0,0200818868054205
0,0311472144480481
0,0186193511452325
0,0237358749987097
0,0168747736374258
0,0257576585533083
0,0268029443905493
0,0295874831598477
0,014372005964794
0,0395774942685101
0,0161902606683488
0,0299546584129727
0,0184451202340448
0,0281904876501487
0,0311336077619961
0,0279581137644639
0,0174182640021194
0,0275857458772645
0,0134611799813959
0,0275385509389674
0,0139742160381398
0,0336183932632372
0,013483843757454
0,0339283587410905
0,0189507816986341
0,0487290605154855
0,0204674222314673
0,0359994651664587
0,0197004832942568
0,0312521347739156
0,013083164006118
0,0278407620349309
0,0194502764843852
0,0430593663675417
0,0100518481854084
0,0279962676030427
0,0191970838600777
0,0278839950266215
0,0190351508321027
0,0341422022514965
0,0117855718631411
0,042251131544436
0,0234071839870467
0,0283092132578325
0,0137189089762613
0,0279731503462334
0,0104223400527183
0,0339775968113489
0,0135202806887388
0,0362374122006612
0,0131557877728468
0,0363108184842083
0,01432840603525
0,0410641839548429
0,0287493597955174
0,0264289560864687
0,0332011848377593
0,00527619584519266
0,0484001245214311
0,0181263264711215
0,0298490410475294
0,0390399145319984
0,0119030120478049
0,0371304230229883
0,0113803949255708
0,0380989449339956
0,00966814671601261
0,0433783948843815
0,00856798753763979
0,0492866755316405
0,014933596860422
0,0341059281730957
0,0134889351287987
0,0348135451994373
0,0141092311729306
0,0528631509192335
0,0276351085775752
0,0307375959242368
0,0167829813964676
0,0357811931465262
0,0189430647414759
0,0407203302995737
0,0126348062186813
0,0240357106206608
0,0189333323868045
0,0300586741771848
0,0246016662795974
0,0167958764081079
0,0255307394331621
0,0272747333634306
0,0257719203279769
0,0241276167565112
0,0231933927364209
0,0427778360666524
0,0135753009067535
0,0321381284719491
0,0175402877897688
0,0245608157479732
0,0278983641891339
0,0296747161845499
0,0250566724557323
0,0378622367441482
0,0229756120994211
0,0322810639496797
0,0261276386094953
0,0277292571712274
0,0132305399416267
0,0309720984181628
0,0149308804977357
0,0619215549874209
0,0196634583756378
0,0274113416823557
0,0570998728436824
0,0146395870620243
0,040623653706901
0,0233615646839057
0,0249260341673733
0,0215940031177893
0,0264293880514889
0,0235538820035872
0,0179816276735426
0,0303623704392601
0,0150315949007511
0,0307256037568455
0,022113405189125
0,0300453584869136
0,00580614297119109
0,0424268612569589
0,0201916049330113
0,0363752904535847
0,0182917358031409
0,0311294753604996
0,0188925304478333
0,0318729824115617
0,0297340454913341
0,0223237371705251
0,0292599597113591
0,0304874701734759
0,0233747739468585
0,0383182285459686
0,0191365590666351
0,0320838226901448
0,0272368867673653
0,0216807377743144
0,0386724158986355
0,0295392859803843
0,0265978398317278
0,0263665567281322
0,0358464796990705
0,0268492740911245
0,044731498790325
0,0164902578094202
0,016965252534481
0,0323236862206174
0,0242470774660778
0,0335625921587782
0,023728100910692
0,0300756228042385
0,0300737732581284
0,0181985107644422
0,0472258559085104
0,0187423339716607
0,0265881730466238
0,021144755592694
0,0324280424219551
0,0258216066245689
0,0418541762698646
0,0329076969695826
0,0234863996453457
0,0352023815119318
0,0198055307588748
0,030226424771925
0,0268371899358891
0,0272402223157933
0,0241916180104249
0,0335879086159245
0,0193334667998414
0,0219632634010802
0,0252901261407386
0,0295758511353019
0,0254205965739632
0,0360072451717803
0,0268961522966678
0,0379904822969346
0,0314880067034973
0,0261659061226829
0,0225506887321439
0,032450004978935
0,0221830629026845
0,0389525626804045
0,0375059693761352
0,027925794932265
0,0409885430127272
0,027024084461016
0,0258743194534252
0,0327246484238369
0,0284928662639943
0,0271963022080709
0,0400321627846376
0,0262361374913749
0,0565557439061267
0,0208172529224423
0,040871508567301
0,0192215125198441
0,0435679708064168
0,0301153683974906
0,0303360307168699
0,0265158138480329
0,0284501675155995
0,0345065271588115
0,0273377909893232
0,0466465911182754
0,028148064596775
0,037599219516997
0,033399500979465
0,0435783524833734
0,0278447237129081
0,0514427154348554
0,000711947277230912
0,0625441072227652
0,0314035114944479
0,0333443292190873
0,0545585559083315
0,0279831200238661
0,0329479124194834
0,0479298442742742
0,0333874018533322
0,0944037992744254
0,0208650283277235
0,0451450765119287
0,028633590390044
0,0498651536723291
0,0323125932744227
0,051156602997129
0,0357830971784799
0,0380982630905774
0,0438923865961644
0,0291998786051843
0,0806751029262414
0,028274083019892
0,0466072750740278
0,0461159512801035
0,0368449252450028
0,0489827282794707
0,0387485964802886
0,0419695000045413
0,0506035381821134
0,0497571146392216
0,0385321458052774
0,0556520041084133
0,0281245002231784
0,0639633657018537
0,0340120669115684
0,0528702324486978
0,0364287751365977
0,0648804299001197
0,042630071686904
0,0573629034891726
0,0356150545742237
0,0626542228288879
0,0382501978696131
0,0459547499039522
0,0508216927662256
0,059694381370393
0,0427484838936598
0,0737928423204287
0,0472287125338002
0,0616772668962111
0,0465716479866221
0,0648631398836627
0,0502324121166626
0,0736798090153564
0,0476917332448392
0,0719774424621464
0,058677497306664
0,0736919424206492
0,0615923978849448
0,0735252184135306
0,0614248014107873
0,0702966599207712
0,0621786390836804
0,07382775217724
0,0752815138107338
0,082703793312443
0,0737903171331669
0,104657473835559
0,0649375083758052
0,108895673101831
0,0835515627369022
0,0818301112512852
0,085325394789204
0,0889123970771191
0,0882082519840038
0,0918365160346017
0,100782575632525
0,10189474356481
0,0986852142353401
0,108667815908117
0,112098108190001
0,113486850416975
0,121048317363304
0,128968088105266
0,130677559396694
0,116876510846465
0,120327462580078
0,127725558200527
0,134961337239886
0,160192830897632
0,126192143910964
0,156884632638743
0,115384918464767
0,154892073338831
0,133892569304082
0,162672138688341
0,141323351124129
0,176049899491039
0,153964827131746
0,167770685585992
0,154699602983014
0,177189964793541
0,175363530031379
0,193731609645778
0,19277273679218
0,189415904641854
0,176128747055873
0,208082734632101
0,191621091510344
0,215901090155428
0,218110130164279
0,227517404607748
0,214524713796772
0,221283626752435
0,220402827011538
0,208092094774092
0,236015984120634
0,223886973571278
0,226772336760613
0,226083120156093
0,229646931218521
0,243664972266042
0,232937501448419
0,244597527283065
0,256351611952604
0,250867941906753
0,257978686133465
0,258834473220518
0,268671989356389
0,260126652404754
0,268456790145968
0,287909823729815
0,289957724662854
0,301035913183712
0,286932677873571
0,292766209223748
0,277060263513153
0,313225221383036
0,280418633582407
0,299842400701778
0,282978402082925
0,322315270055906
0,303795021798478
0,332741990500653
0,318393587842623
0,323167864162184
0,316607549084001
0,320231371443722
0,338865076222585
0,340958187753735
0,324362172334834
0,355126729796812
0,323055250025024
0,349365175758967
0,353807470554957
0,369791866468721
0,337645800746177
0,379261489457769
0,341485151304519
0,362091730630606
0,344794847821737
0,376047369654796
0,362664156255001
0,38568141036535
0,362183841747892
0,378234842740148
0,369933892100446
0,383580449117014
0,383222462141598
0,408148194374703
0,371588522267244
0,399222731236039
0,392721183917621
0,394044573061361
0,408600571657493
0,411579251722891
0,409061918954546
0,466458547696267
0,387391688488315
0,428409708322195
0,396523074348585
0,424208670951275
0,401138739815267
0,425417829585815
0,427870381934149
0,444413495760922
0,422884934632
0,436299614966171
0,427641379113878
0,461962634284447
0,448823992336964
0,449903328223833
0,45873273212661
0,48160476341415
0,456544032899069
0,468846983347386
0,469924527693188
0,487551034675773
0,493187851934011
0,516222294130031
0,467589319135054
0,510056689381421
0,457399980231955
0,473365623960269
0,476226859709951
0,494771761729044
0,493525505828624
0,510816310134353
0,506116133690399
0,524522721208557
0,500994475727753
0,53036402878817
0,511872577341151
0,548352926951615
0,537540027589125
0,558289715648396
0,514665254996825
0,54043986187558
0,509492403359038
0,550676812337269
0,522103954839286
0,55832922859151
0,527287033908795
0,56078416632354
0,560267783863251
0,569457240306152
0,550023332612704
0,576718765011688
0,581061924965521
0,602766492949801
0,572082351744358
0,568057456497641
0,569480582608369
0,609854143257289
0,600264486155738
0,620436504897404
0,578886306442976
0,592225477027331
0,59074830886628
0,636386872498211
0,618251368728782
0,655897641926808
0,61027859013733
0,655902840887106
0,632422127572811
0,643116145899298
0,619303572197266
0,647472224397397
0,640883057500522
0,662891367411295
0,643128803729726
0,680668340002441
0,669423914671546
0,664361783005715
0,664245695115512
0,680556573218673
0,647039518889978
0,656982936731303
0,670223719008435
0,687685346215887
0,686955429458405
0,719699271996077
0,689369734469766
0,699036425358965
0,686826279205495
0,694496858200232
0,691244916811554
0,748971612945358
0,683673947600572
0,740644362077918
0,75800712255349
0,74942162100108
0,720824733147505
0,756172854044433
0,71544233992266
0,781009105765429
0,759586800221678
0,742363780014307
0,772578407921628
0,733205033429222
0,71372478579282
0,805306969567186
0,75557191819392
0,761719738489874
0,766366463869405
0,809861756876751
0,7782490818204
0,813268572455719
0,788459902957196
0,821508992409597
0,783486212624043
0,804920404152369
0,770872213188566
0,788473416999539
0,772425468080808
0,824486256954717
0,810861993875133
0,853917282992371
0,821266042315661
0,883512266630177
0,844388676176367
0,86005575717321
0,857443433471579
0,820471116485821
0,795965558254903
0,866648666233453
0,835676622239115
0,894474081080334
0,901381163337514
0,877411362777483
0,819430271059637
0,898834410454662
0,888438747440884
0,887043003164632
0,879205723239202
0,918199152894518
0,945862419633857
0,946856735744507
0,877463868618587
0,913522914562518
0,9470975689198
0,880312461226314
0,872714722235851
0,938256104254837
0,941021276206774
0,964588851385298
0,931788956264334
0,964348027460571
0,925262045806057
0,918971203607
0,897016794461434
0,960277191168626
0,927126421475249
0,951562960001175
0,937770225174132
1,00355852193491
0,978976745805752
1,03616330795746
0,980101726956233
0,945934021134943
0,952245790005352
0,9723027253309
0,975872397770131
0,995931831764373
1,00447002854726
1,01974997204898
0,960629219866607
1,00990703697491
1,00148125990847
1,055663810509
1,02216499319383
1,04026492754283
1,06016026739196
1,06480617968396
1,02626425945358
1,02155660006069
1,0187367281161
1,07630776857397
1,12358669164375
1,06874534358257
1,02685935882272
1,0989647439236
1,04732634914979
1,04448236865342
1,0171524615533
1,08335610402669
1,09173894484404
1,1014700692293
1,10003052953648
1,09761084191477
1,08470832227012
1,09499572764044
1,05108996812614
1,09446441761401
1,10619120174029
1,12476657095077
1,11324441224023
1,11719064018761
1,05458164423956
1,09264098668724
1,15384052431905
1,14399080815416
1,10580023375609
1,12468583981333
1,11717098483373
1,13225262780996
1,06864982123428
1,1634053767487
1,2637219451408
1,17875614760947
1,15361193736894
1,16957240591923
1,15325128666719
1,17946177773601
1,13830936641195
1,17924023551364
1,15228572501546
1,1637906147147
1,16130961188687
1,18746872672445
1,20979384088012
1,14922739947361
1,15841842226282
1,15365910017107
1,13834036859427
1,29561908359686
1,20738906517806
1,20649272596978
1,22481804099558
1,15354088360344
1,10528402422383
1,19597849068878
1,19277545179583
1,25662837468827
1,21970425443
1,15807709858311
1,22133307904929
1,19518454646854
1,23985251093603
1,2556961365375
1,17265799931919
1,2324082111131
1,19673287984971
1,20325746622063
1,22614629066023
1,2375746452726
1,23740886766594
1,24127583992924
1,14681977348405
1,16587313820976
1,21027294124801
1,19850572297056
1,17854337747755
1,26721997677827
1,2646556927749
1,1994134187515
1,27869919440759
1,29895550490173
1,23082644601509
1,21711151726282
1,15966554437407
1,21180263665367
1,21582904228447
1,2171830499869
1,21283034948835
1,12864198758529
1,2040984778219
1,26123244259382
1,18744489065383
1,17296517950933
1,21834162950223
1,19997538279519
1,17427360542393
1,24729825000759
1,18089481857127
1,18231199041525
1,24785681184509
1,21334991871811
1,26618115621502
1,2319073196286
1,17249998966465
1,24998328617444
1,22444976067277
1,18596739792283
1,23066456860041
1,30253022621729
1,29601777828198
1,21528726442698
1,26420910746886
1,27074157221978
1,27351521113567
1,25595673723325
1,22013326627732
1,15969013819723
1,18783716221887
1,24030778179935
1,16017481593561
1,16937266973938
1,19391464985658
1,19218828278254
1,21684171187563
1,18564816338668
1,1781984464651
1,16344405134785
1,25809304125229
1,23840291060665
1,21235421611544
1,1844074065212
1,21229333545804
1,22568774078059
1,16511408110771
1,22189211760288
1,23684204341772
1,2711901458335
1,23757824568707
1,20766408861567
1,23303556610176
1,21135264111732
1,23904793765923
1,22280530128942
1,20377314794483
1,15651080794274
1,19597662247073
1,19821039934017
1,23229366223165
1,24290983458483
1,18907015406584
1,22986327672951
1,21780976515391
1,2207514591116
1,25655450107138
1,21257975832321
1,21754964031752
1,2296639027005
1,2071104088619
1,20498875393142
1,22216304842137
1,18484185624625
1,19212289018945
1,19612334446867
1,20675514370073
1,19024111078318
1,16386830449975
1,17628004092968
1,19456886848734
1,23569578707013
1,20595085160435
1,13719137928584
1,20596464316525
1,22355680351191
1,2068083147508
1,19647642014573
1,21011888073602
1,16624759420731
1,1646631069379
1,24623961450001
1,22204187975565
1,16356623823636
1,20034694922426
1,18930246875327
1,24094796245379
1,25122221106367
1,19221521738184
1,12837978125872
1,18863791388825
1,19258096726753
1,18483454329566
1,19798899450803
1,18089767485488
1,20209401518813
1,18807489476227
1,17856019657368
1,19802891467559
1,17808338827072
1,18647567803138
1,17279722748342
1,17940431567148
1,13574225806917
1,18046313609259
1,14781776444062
1,19649921358001
1,17886148447651
1,15557320088995
1,1296007764
1,15134800500609
1,15946367988577
1,19542762039198
1,22111291310869
1,19429020437329
1,16786166857008
1,17891561554447
1,14708900630927
1,13892297623166
1,14131529330828
1,15699585652645
1,14875873281349
1,1246288518055
1,12056258175354
1,14590402691429
1,09770728038137
1,09993515383858
1,11143418202329
1,13674784600181
1,17920493773857
1,16977279569736
1,13949619633112
1,06627585619579
1,10492399632449
1,14008910806394
1,09384553371811
1,09437989592039
1,07403513501709
1,143792756076
1,06458925053404
1,09222778898762
1,07929403845749
1,11197340281547
1,07167595838743
1,05686523117807
1,08022823579921
1,05366042811412
1,02555059752507
1,03350644968523
1,04246353351322
1,08034199739122
1,03641756117453
1,02229505985
1,05837201646542
1,02227389489586
1,02663361178311
1,04173643638596
1,04163256049005
1,01998477279205
0,982370164028198
1,00386481713657
0,993771984175898
1,02876992772189
1,00186824076727
0,975917058698848
0,951278958824772
0,996386032686924
0,971312907160776
0,98486290807618
1,00650874173296
0,956946466468401
0,951358857585173
0,945839062089759
0,950800903440508
0,963690977290487
0,963374272822555
0,967684668658174
0,913263439034215
0,932869299058842
0,920607659741762
0,931145580000062
0,934340536034886
0,924549429514001
0,913010271656738
0,900178825762246
0,897511344386036
0,899657223837884
0,864636166205001
0,887171695973367
0,87115126881155
0,881045590725829
0,862903295767064
0,852481927482455
0,858286457640746
0,846405440754813
0,826203914148782
0,853324543795591
0,835256019293458
0,832497829727593
0,816397916862069
0,833300419968663
0,805534100570003
0,833520870366908
0,798907229917905
0,798547179042453
0,809058141997686
0,811140599719254
0,789582361818823
0,808505998541133
0,775449107031853
0,792985400575817
0,774312244392285
0,767168497684975
0,768405051213847
0,769169181757594
0,759513540272163
0,753485726945069
0,731167784622778
0,740220477930335
0,735594512871745
0,74919677697855
0,732635309154626
0,725117595259457
0,7005760984637
0,70045882911152
0,716021153594484
0,706057398282709
0,691721011456218
0,691401613385326
0,688860411463489
0,684976305408068
0,682424910903342
0,670494530306197
0,679808433629959
0,676482107147854
0,672015101675399
0,658728407505031
0,644006188939594
0,636343670108957
0,643701161422493
0,656511081998056
0,635575188430526
0,64074288810237
0,632843817905576
0,640788773837502
0,617088762944438
0,609566817819662
0,614524815425597
0,604629932821281
0,605801920915649
0,606992731148419
0,600174269843867
0,60018451678539
0,587914366919965
0,587071270715587
0,582408997503273
0,572814014676771
0,576381394645497
0,563623339899063
0,569778331483365
0,570723487071876
0,555871754184619
0,55284159422197
0,544132878092023
0,545366534274377
0,55031177501978
0,546382748960265
0,539926664987241
0,537440822251415
0,520513407843853
0,529393782053427
0,523469087590711
0,528306845791872
0,51842501720964
0,517011609084925
0,522923516110375
0,506097462218164
0,500377385203953
0,504001118633928
0,49917998474134
0,490723877533324
0,487974532612058
0,49217106088718
0,476834214382197
0,478916958865922
0,473610333874082
0,473536493976311
0,476608155494852
0,473397872446215
0,451553272676039
0,457396263804314
0,449541862135029
0,441341469413629
0,438830418036268
0,440478263595129
0,446807291219123
0,448688005923106
0,4361159019556
0,431129455977436
0,422981130597513
0,433049186373073
0,434942081277449
0,431463445727725
0,414231563956753
0,413531507833385
0,413121506123073
0,416832848949645
0,410517762879628
0,408821835895438
0,398508618844529
0,397473678571793
0,393335278850651
0,401648984718938
0,390396838965797
0,390785414626977
0,383041095175186
0,380503016170633
0,383777552995572
0,38397738926803
0,376151810653192
0,37505725216203
0,377069410018937
0,368642422053132
0,360620406376264
0,356761806318241
0,355973943917622
0,360082248910114
0,351762290494069
0,350724160866463
0,34646389100585
0,355665263725339
0,334496235377056
0,341081582232592
0,341236694806796
0,336199146987784
0,336029206081469
0,334939782088226
0,326432242883715
0,324083296721941
0,3245859560788
0,323707008423904
0,320882049480786
0,323675891103104
0,32290538397764
0,32208686625823
0,315407662320631
0,312261469686366
0,307924358893157
0,302453349030754
0,302637827028425
0,304611013893582
0,302314174727601
0,298634201386582
0,295293820354448
0,298915593269043
0,291622419620599
0,285554558266102
0,285990594202681
0,280033936395217
0,278252514309769
0,288681100562706
0,27923769201019
0,276736600276693
0,282310844988136
0,277253918463198
0,278091360476796
0,271570960519
0,264332965825686
0,270139408046797
0,269096515453487
0,265659497602926
0,270451077265608
0,264381916767542
0,262663746790887
0,26006186663814
0,259129765822857
0,261548759808129
0,257085657888194
0,254656073834817
0,246847410970783
0,25118741793573
0,250196563670393
0,250710331186171
0,241520185038441
0,248146785261648
0,243361861913411
0,237348229707164
0,240818303894597
0,234894385587348
0,236166232594148
0,23882494277694
0,23460540575858
0,238840590923209
0,235554124443334
0,234670240683516
0,229974732337419
0,229739319136332
0,228795861262131
0,225576309199283
0,224702464563436
0,22180070940801
0,224108764648941
0,225655311059717
0,223303990485046
0,220620238919842
0,223185860190287
0,219505066190896
0,218891419850615
0,213972888454792
0,215536855482337
0,217628673513286
0,213949470396309
0,214853084521911
0,211229462884524
0,214184899380502
0,207947896507193
0,214140544707407
0,201558510685268
0,210500891500527
0,208246659803976
0,205879777323818
0,197635508532341
0,205831227104101
0,211265139103359
0,204253755888975
0,19995522638018
0,198280516524956
0,203806718489173
0,202758729790915
0,198130430962085
0,196704329806754
0,197077515974191
0,196193360477658
0,195395608104396
0,198481083507419
0,19494208791677
0,191318751234309
0,187332412757379
0,195446528219715
0,187599323236961
0,189221664553879
0,184902870530424
0,184301267130483
0,181566991825349
0,179539217467514
0,179381869602856
0,174101981100535
0,17669347758229
0,179468139032391
0,174050363612199
0,17917924413403
0,174069164909163
0,174270668948034
0,170998195051452
0,168900937340284
0,17183998286212
0,169107728353004
0,169470005853222
0,16784097567224
0,166076599436244
0,164286863755109
0,168344061616924
0,160548184792582
0,16331267292744
0,160862673882935
0,161270859878448
0,162190612055272
0,161798374883085
0,162652720287517
0,158808196807316
0,155135644380987
0,155363224083185
0,157229030683402
0,153189646333213
0,156454629130746
0,155972275510621
0,151085833661489
0,147846878960111
0,148018869514058
0,151431700545977
0,148752086254815
0,146149269884525
0,148337391437432
0,149670290081754
0,148215504730929
0,145077515453943
0,144124164720624
0,147074516633154
0,146904518013629
0,141201244376831
0,143039556146019
0,141593657368976
0,136132051719588
0,136553681994374
0,138741786699523
0,134547937011169
0,135752908762649
0,136136705875563
0,137756531817453
0,1351358794261
0,135241970647041
0,134915660453503
0,131881274574826
0,133018821741901
0,136900320082806
0,129362956453422
0,131442383870693
0,130365705073767
0,132897761532421
0,134602482568438
0,133546539775885
0,128188471713519
0,12679511931021
0,125189305141189
0,127210343989074
0,124393292874851
0,124287739928527
0,120907056550086
0,127151480938351
0,117900466113213
0,122286858964588
0,121314323228897
0,117887149204067
0,112033896854006
0,120254270941825
0,111285825247967
0,118316027242484
0,11085660943943
0,116322901416344
0,115763413567382
0,111029394691808
0,112472786542792
0,11169176677118
0,112532339551817
0,1061731994734
0,110202737824996
0,111016756029461
0,106736109382273
0,106903478965897
0,106537332786009
0,107454946236037
0,105667705290794
0,106963728334679
0,10467564997799
0,104877253993072
0,105846938557507
0,100537154677103
0,102064314532934
0,101494927367586
0,100155560378806
0,10259592716184
0,103523987727334
0,102283271248252
0,0990775639935942
0,100341906998709
0,10262911979831
0,100105699224391
0,100202808280445
0,100315788518963
0,0945280874097511
0,0978778461890884
0,0985316882454988
0,0963569143963151
0,0938630465300416
0,0979632522276211
0,0899408287666536
0,0935642067973571
0,0917659060465719
0,0949225544623896
0,091101350564183
0,0932466836045329
0,0913163639510961
0,0908053518133069
0,0909165279365301
0,0903019839716451
0,0915706775129159
0,0922661315843206
0,0862099794782285
0,0930558039550178
0,0878184479469436
0,0930258625584154
0,0881396168868817
0,0923556216107079
0,0869093313330644
0,0874709552314056
0,0890616138150494
0,0924799418990613
0,0852599445373313
0,0845752360681755
0,0880387082687087
0,0869296150960396
0,0876188553178079
0,0875089191629413
0,0869672287584823
0,0852239119139046
0,0823271755943595
0,0833106976914694
0,0834086541669527
0,0853119587620815
0,0842937890032164
0,0848653477899663
0,0812409427363025
0,0836420765169962
0,0852447709142114
0,0819341177432628
0,0866409074990339
0,0820734627568412
0,081054322978675
0,0827861383863037
0,0807112611610382
0,0843487011888666
0,0818324931887654
0,0824129981277653
0,0748745099111878
0,083691582496566
0,079804841147294
0,078995210116009
0,077217214234302
0,0797145829775049
0,0785948110871229
0,0780601755085381
0,075451310683735
0,0811098374219732
0,076470021778735
0,0819312177266163
0,0758220578191364
0,0747361201617823
0,0753866891048977
0,0758518075591149
0,0775219927102433
0,0779772558679505
0,0759160363982655
0,0750938169671744
0,0764329055657461
0,0736429660702422
0,0791270234772226
0,0758374386404227
0,0731030796547006
0,0747791496076945
0,074925954109701
0,0709969231731287
0,0719328581892312
0,0737105278966103
0,0749651080549445
0,0749080088251707
0,0732409503616401
0,074332400029805
0,0724640299001447
0,0722008790870026
0,0727569160764207
0,0726703388539424
0,0702554019705754
0,077035371259978
0,0716532007526785
0,0695875967294919
0,0683194416218924
0,0703568340010469
0,0694021605378081
0,0721245323020773
0,0756986823506247
0,0752089315157219
0,0680821684589962
0,071958743698297
0,067967296533011
0,0701827294705579
0,0725899025734187
0,0685973923576215
0,0686607744546927
0,0733527254113334
0,0695075437116068
0,071201577570655
0,066985055460433
0,0707111222122889
0,0692852365006103
0,0690264510873385
0,0684739998550843
0,0671285922172743
0,0649024885764586
0,0699760784359077
0,0673702017687341
0,0700869246267572
0,0673787135294458
0,0678613815422306
0,0656154550450641
0,0695006972006729
0,065116273565596
0,0652748260161337
0,0662727239381585
0,068101360672331
0,06576384916521
0,0665077033362538
0,064351845483342
0,0642421138056822
0,0671005402886329
0,0649113697912971
0,0645138760605274
0,067333949722193
0,0651888747479729
0,0691568080095329
0,0651086332900945
0,067820061669682
0,0666286491061496
0,0682324174849666
0,0632671180625756
0,0657062545642247
0,0631785266527935
0,0642855193443674
0,063046356619876
0,0639070795690986
0,0635847845457375
0,0653360160609266
0,0620818887624823
0,0655802552221912
0,0648431161402709
0,0635429022354901
0,0626819727657734
0,0610883324932693
0,0634234789944441
0,0633952704970614
0,0642795368221565
0,0624607746318567
0,0621707755929738
0,0643414764845536
0,0633428842751482
0,0618349595951512
0,0647862810273451
0,0657761937602678
0,0618934714585908
0,0652483234055751
0,0626754687385635
0,0651375047216716
0,0639905903435298
0,062813893841916
0,0574235411236705
0,0634231459323322
0,0625041772798727
0,0649376188744775
0,0602129980200401
0,0635287568459434
0,0648246241622561
0,0634379913816814
0,0658924105429829
0,0624915969649856
0,0625310297681234
0,0651930809459848
0,061448030472316
0,0606580408521113
0,0604671532436869
0,065530388272069
0,0605632324652226
0,0605708830240368
0,0608247541996084
0,059817517956311
0,059727956122427
0,0622264285103118
0,0578062944647514
0,058785837621365
0,0599686690969469
0,0599535069390678
0,0587573747044591
0,0620434120609607
0,0563747483824502
0,0591891838302762
0,0605659831036871
0,0606112983455948
0,0601506067072342
0,0619298728759171
0,0608430828966464
0,0567207696542977
0,0593146397838507
0,0609063107538388
0,0591196893341714
0,0579648269827801
0,0577761628687535
0,0589778527495536
0,0583710085099083
0,0605048594244833
0,0582845281671144
0,0600929869163465
0,0599404839993916
0,0595518930443504
0,0616073966733818
0,065199019019504
0,0608734157028176
0,0572655774107228
0,0590631789743308
0,0607100269151713
0,0583615372020163
0,0612263192250352
0,0609800300202434
0,0591566990817336
0,0588533772278025
0,0608762108192151
0,0593311109462386
0,0589388264437126
0,0581025176595591
0,0616696692468571
0,058071927489466
0,0620255905601665
0,05903272499636
0,0620879375544834
0,0597840380236858
0,0582975904188327
0,0563840028406491
0,0606315030382748
0,0574309446498511
0,0596611008927259
0,0569607613639103
0,0592040779568495
0,0560578002223605
0,0587629312557667
0,0586761916127561
0,0604443387616713
0,0563656378225917
0,059054755979094
0,0576756341033471
0,0578444284260582
0,0562160531417905
0,0581921872654177
0,0612651573465419
0,0602637368845489
0,0592188613173496
0,0574221909292331
0,0598415149627744
0,0572686171646128
0,06098876081076
0,0576287902776112
0,0562765708214952
0,0596109950965691
0,0591525766451557
0,0588971634230277
0,0583760987850287
0,0585626616189372
0,0607933557734621
0,0607932644346173
0,0595867422811977
0,0596519905018796
0,0587433409254913
0,061688643524314
0,0590152755183757
0,0601565707070757
0,0598640658688258
0,0594343143753747
0,0594702809377299
0,0605081026745357
0,0602198207327155
0,0598929705851738
0,0576745701082156
0,058854169216403
0,0589142222845892
0,059789146676701
0,057300794328467
0,0618938190155114
0,0594236218938204
0,0592468947283968
0,0597457710361503
0,0591009975593575
0,0594180284892774
0,0635074904218412
0,0593325874119995
0,0603500315916928
0,0578676193189487
0,0612357649483555
0,0603739395283082
0,0600049206789757
0,0561777400244211
0,0622719825766833
0,0614426396132514
0,0608705550471676
0,0579942655239291
0,0596516245071558
0,060552348545489
0,0611387937393695
0,0623005513116365
0,0614693158421449
0,0609543839848511
0,0617682671984006
0,0591929983325246
0,0621505358519269
0,0609528458071986
0,0604244317420085
0,0586707394446658
0,0582161749254436
0,0611707751647584
0,0586798730709499
0,0602490411169065
0,0629358154845636
0,059312430028221
0,0603425714638156
0,0618869845193357
0,0605539531182224
0,0609706252892016
0,0602567446476404
0,0602668338155809
0,0618319599334836
0,0586253454664839
0,0597328170674544
0,0610358857644972
0,0633198913522717
0,0620712560226132
0,0600194434088115
0,0589610664782046
0,0619009806308637
0,0613630710696908
0,0605844473564578
0,0619272162816975
0,0601732771191154
0,0647438280827988
0,0629285077932491
0,0612396742649191
0,0638860705490177
0,0633868688213333
0,060898251322791
0,0625276481031164
0,0590125624777659
0,0613319550221259
0,0625090470078594
0,0582880728068926
0,0604100542000884
0,0594087691596005
0,0612530835213079
0,0610785628259801
0,0607719578983738
0,0630480680383507
0,0600548711541321
0,0616289062976177
0,0621178486886658
0,0606163695719601
0,0631951598198029
0,0616396116274781
0,0628114260322993
0,0627497579642504
0,061263830911834
0,0625040070188275
0,0656331898362752
0,062881026495292
0,0633303810210759
0,0612000219794356
0,0614207165026467
0,0631182835303111
0,0632032753580368
0,0605886512494925
0,0644411602394348
0,0631881074996361
0,0616015990025496
0,0618317764067172
0,0642029135162629
0,0613782071565307
0,0669538879837444
0,0642031781306056
0,0648595239996502
0,0659567604196937
0,0654965664166295
0,0624277766392292
0,0631740194009959
0,0655974376273138
0,0639161158592401
0,0630889457178897
0,0644490109951728
0,0661171651184538
0,0631021732046071
0,0636873355515204
0,0629915662022764
0,0643303368919274
0,064389351836443
0,0667443387761421
0,067331974682381
0,0647219440043653
0,0642670573602519
0,0660374715168213
0,0649859882677198
0,0637184471230189
0,062987455590452
0,0638665256129261
0,0645920866623287
0,0648147988909689
0,0631365240665111
0,0650394401711285
0,0658815447157484
0,0672541107680849
0,0646632252956406
0,0662912886631926
0,0653312013874437
0,067761411837257
0,0655399029943118
0,0650606503906721
0,0658648195960535
0,065883143191014
0,0649940591307619
0,0653836275013033
0,0641842879272935
0,065983613771296
0,0652608265659923
0,0660885043507154
0,0679854176619652
0,0680785317031761
0,0666008633989153
0,0665534519844207
0,0657502102251761
0,0643649233638417
0,0644398723916905
0,0681923747169747
0,0672889923749134
0,0670515847857334
0,0674334865945565
0,0689812367572058
0,067341827351542
0,0678298739686661
0,0665455093747125
0,0698040850071084
0,0681026477170565
0,071325083544851
0,0683229375356988
0,0670282904252776
0,0682091262339282
0,0710402078731065
0,0692946844509865
0,0722188622338615
0,0688880354416179
0,0725973625223895
0,0720294897063963
0,0732660650750906
0,0739531084911878
0,0786050474777376
0,0759672731956975
0,0804135371849693
0,0763101529995874
0,0792491181554852
0,077402936227181
0,0802688756526257
0,0799910809499957
0,0825731944441127
0,0736302671736805
0,0814175153704759
0,078364019217913
0,086691702819557
0,0821531065641096
0,0822415908787354
0,0814601754981631
0,088604897602875
0,0822667279864394
0,0898227017138532
0,0810542860004655
0,0856380505510601
0,0816135356725737
0,0853379801619816
0,0792498687836108
0,0854423094160935
0,0780444571467357
0,0892350582926683
0,076383194816162
0,0858797720837746
0,0755630425319194
0,083693843760501
0,0730860093270022
0,0904689654335632
0,0721421785403384
0,0911940624266322
0,0719265945269397
0,0872625993322211
0,0757353999742614
0,0920180689617795
0,0726058335273071
0,0982081612948028
0,0694154685816303
0,100566615441873
0,0768611446901028
0,0938991177690412
0,0726763769398388
0,0940937644082648
0,06444120428412
0,0930809892907358
0,0729300159941578
0,102078812922608
0,0735517353125262
0,0955389467730661
0,0680970791056661
0,0954311838444555
0,0786703539191676
0,0960838584148799
0,0751983009675872
0,0852804957107585
0,0874278722054148
0,0805574289546184
0,0911607921613037
0,0719487449184876
0,0996217607742623
0,0640185139055635
0,101270958917639
0,06132858563501
0,108932084308328
0,0581429447130715
0,105811602768031
0,0641870037422215
0,103246855625238
0,0706242961735153
0,0917114460107463
0,0736307371443613
0,0843246995841841
0,0778921213626449
0,0836939760611434
0,0834833425174228
0,0833313792264232
0,0769779788005405
0,0857024586304751
0,0788280976395637
0,0872839614612719
0,0755060297082348
0,0867362525176969
0,0735232132902379
0,0856868608189766
0,078413709849295
0,084582073632775
0,0788875243016098
0,085380272045704
0,0802961092098617
0,0841524624924602
0,0783911822441141
0,086641822007467
0,0781847398659961
0,0878115233631372
0,0803591213680628
0,0853183358629778
0,0808701040826664
0,0825644655448428
0,0777046742515587
0,0873636731730756
0,0802437547583845
0,085276944512049
0,080513247827692
0,0866875110164312
0,0805538341325667
0,0857960162588182
0,0811388273587172
0,0873330096092447
0,0832487155880532
0,0874931812481619
0,0804063230317681
0,0845866981013883
0,0839871224177489
0,0885306514714811
0,0817662060268163
0,0894040820432188
0,0846916929194691
0,0877752918476022
0,0868904843737494
0,0885623253377305
0,0852676989654638
0,0900912827984135
0,0856129178886184
0,0919585403779774
0,0848238961201739
0,0904318246312435
0,0858691014738362
0,0896718702434965
0,0854944162569247
0,0920302583004309
0,0850526367740812
0,0904497748263446
0,0870092007001434
0,0909458275176326
0,0858657186836715
0,0904179512818009
0,0880151482785055
0,0938551254711678
0,0871058644134522
0,0912819974830187
0,0888891548698781
0,0902585174721206
0,0881145078789537
0,090960656596754
0,0891722253511974
0,0914539013289787
0,0885338763571197
0,0943865864855866
0,0888293686108979
0,0912420686186514
0,0923506974366451
0,0944105722507801
0,0900581783695303
0,0944287696295633
0,0913370910240282
0,0941039082760349
0,089919756670052
0,098150131376331
0,0931866986500516
0,0959231320576199
0,0925868326362666
0,0962917294317175
0,0929955260912432
0,0960547174241586
0,09258517151386
0,09483876619767
0,0952814911605002
0,0969432470168981
0,0946541419935044
0,0986055475544795
0,0945531784773104
0,0971420703063493
0,0940019798708199
0,0991681787043254
0,0952983612213144
0,0967969026573359
0,0950326732027788
0,0996744797001927
0,0973262785797056
0,100155039372958
0,0984689664146003
0,0992218772745077
0,0989972954381571
0,0996147210218817
0,0975886022596706
0,100304399461477
0,0986679390960562
0,102377933773537
0,0972344523830857
0,0998483771219229
0,0982577507058084
0,102510635802187
0,0995863635741499
0,102495069953033
0,101284004791347
0,102255391849405
0,097210082910333
0,103245230300568
0,100707092418111
0,103722757073795
0,100732936456406
0,104278145840369
0,101418567415076
0,104250832364939
0,101377149941794
0,103621534635931
0,101548948534744
0,103217473441446
0,102276213817282
0,106048273103517
0,105206581355893
0,10861960935332
0,10394788233211
0,104545383228714
0,10236987320226
0,108110280184773
0,103321025212942
0,104995879545081
0,104914502732827
0,104934269225325
0,103688813804334
0,106472616156976
0,103995843332905
0,10799252952184
0,104389907295472
0,106764847339746
0,107021522460229
0,108992879334233
0,106333254767151
0,107108034734377
0,10625386254395
0,108194572387171
0,106791637920288
0,108504446557732
0,105936571912111
0,109872420372482
0,107530095229964
0,107961335737163
0,108327541551683
0,110506286919434
0,107905688170282
0,109176496887987
0,107457888891488
0,110209419946382
0,107812855304721
0,110068389521342
0,109474714953477
0,109539974757873
0,106152546484823
0,11108155632577
0,109274602908614
0,110063548248274
0,110826700440058
0,110152121013524
0,107940080950507
0,112057511808821
0,107881444634329
0,109883292710578
0,109849514449086
0,109612420418958
0,109653583491213
0,110437587325598
0,11023800818716
0,111048951689012
0,107945242276423
0,111928233882225
0,108955739280644
0,111792926205054
0,108105380930492
0,108815588353289
0,109735397789537
0,112031563803624
0,108869647846762
0,110542998529181
0,10892846661306
0,110836385198783
0,10935552814093
0,109911906855941
0,110291960644805
0,111191776496871
0,108636141634008
0,11339106615055
0,110801873348143
0,109439936059386
0,109878844624753
0,111221733989478
0,10900619936686
0,111190055626717
0,110491947341384
0,110626436964904
0,109502933724521
0,113144026013624
0,110139702886045
0,11165960797323
0,10935013738124
0,110705372021525
0,109186831089116
0,111174221013814
0,110082287018844
0,111705739050862
0,109770181344528
0,110457287650821
0,109827862079009
0,111016698576032
0,107236956369775
0,10821371103203
0,105444900273802
0,108312477975744
0,108946803810893
0,111097204879574
0,110317016977987
0,108159570574819
0,106172035816156
0,108754196475465
0,106671454809641
0,107688430655794
0,106602875224096
0,108969279988093
0,106125201356076
0,107892088751629
0,107151761754977
0,108590964110314
0,10723375630155
0,106010117500899
0,107049065550582
0,110475304483256
0,106831854693965
0,10729416240601
0,10660845859801
0,10783402382276
0,10455093810626
0,106814538357964
0,104438780387111
0,10548588899165
0,104192839291833
0,10529377583557
0,105928022318863
0,105874845146134
0,103748019273038
0,105713268897785
0,103567493283789
0,104227772047187
0,103732398875509
0,104412845844427
0,102433954610124
0,104185444273796
0,103164450514069
0,103686324135957
0,101478934800334
0,10341311643209
0,102002058856677
0,103255397348825
0,102694528734796
0,0997656315505046
0,0983513987795929
0,102796969443535
0,101818001846383
0,10338292239912
0,10153564989601
0,101561387014348
0,0996864624112534
0,10263757690946
0,0997487132165913
0,101233637129942
0,0988043365413776
0,101513597886837
0,0997900245133007
0,0981123576368304
0,0984293518505344
0,0989835389201862
0,0964196872210845
0,101103355528209
0,0981205007636592
0,0990803808818341
0,0950276476009102
0,0982360316085093
0,0953503448253949
0,0964194365885349
0,0969859404043837
0,0975081319772489
0,0941243575197515
0,096973358945692
0,0950989877443671
0,0951014171735131
0,0947068944799301
0,0930605562862896
0,0950184792383185
0,0927765979952093
0,093526078142769
0,0953028052538434
0,0929588598672227
0,0941166151242707
0,0918701735322992
0,0915005926437859
0,0912725411415331
0,0919871008832569
0,0933225239808188
0,091908048355553
0,0909399521065918
0,0920492174743759
0,0894319734973714
0,0910693452267764
0,0929869925705246
0,090913845671489
0,0906339758118841
0,0884895289266499
0,0891441100546157
0,0867600320685483
0,089256346546504
0,0911212004964575
0,0940597979083821
0,088850117210966
0,0875358663425288
0,0890839362862619
0,089038799966906
0,0881020370168859
0,085619236185611
0,0882898387635923
0,0841691402824173
0,0871113552525818
0,0859500395855903
0,0866850896648284
0,0831952208742301
0,0850369958023217
0,0861270491224806
0,0857188658235307
0,0872153839603077
0,0864818864414793
0,0833446712969992
0,0839796553648154
0,0849914403450415
0,0871845650609322
0,0840817911896775
0,083659499197432
0,0818363060716401
0,0833323181816446
0,0823844463083477
0,0857806945665894
0,0823249512429026
0,0835760626561289
0,0820621201844632
0,0832718317163341
0,079932274179885
0,0829575643100889
0,0806328542501574
0,081527097899347
0,0799840995820831
0,0811347716908886
0,0806404742663577
0,0798989907162011
0,0764034637866237
0,0821217231788754
0,0794224547536828
0,0803727704422935
0,0754262482863763
0,080276757726429
0,0782388039488909
0,0794525557261313
0,0768610199810544
0,0816272114470228
0,0734495960072835
0,0805231278699079
0,0777748079489869
0,0824539009753588
0,079325883253142
0,07763585435643
0,0798096829602964
0,077518889676262
0,0788648965372344
0,0757461898545509
0,0764600132829803
0,0780643666377292
0,0767181916013363
0,073959231318273
0,0757992305429075
0,075678645241453
0,0770169705624252
0,0775820464202925
0,0759633766877172
0,0763189814387956
0,0753747022981259
0,0738652166370066
0,0761532877829948
0,0773830246725435
0,0770724099290067
0,077209374341943
0,0719812846990378
0,0710449446876645
0,0794993015053424
0,0734501529311962
0,0809545898854324
0,0696102718043482
0,0774364693369675
0,0694836607511087
0,0747319753239196
0,0716865659527472
0,0756873727686323
0,073169198914021
0,0740489646690182
0,0743285519874229
0,071420732496013
0,0720216012407179
0,0724621167272315
0,0727764572192673
0,0706199569910865
0,0729582839745172
0,0720942421277216
0,071894005113204
0,0718544291517102
0,0711611889083703
0,0768565847651189
0,0724030884083076
0,0733487202471728
0,0717333434723776
0,0726079040955983
0,0711670142528289
0,0710065281179465
0,0686901844875185
0,0715608580110911
0,0746252820180114
0,0737035492667012
0,0749014622286675
0,0683486192780959
0,0724436992168792
0,06900230470749
0,0731061070047131
0,0689687526550156
0,0720435684667076
0,0683727945552672
0,0734192712797184
0,0690633895810534
0,0727159177132854
0,0689183766264165
0,0714444238445293
0,0697056324571622
0,0689578082128088
0,0669798878625866
0,0693377780594536
0,0709483879387919
0,0689159025161296
0,074577592144612
0,0759740292069148
0,0780073074221328
0,0705073852513138
0,0704507034016978
0,0698591580015686
0,0692201536602833
0,0703507290459981
0,0678593870315455
0,0703126436625128
0,0697389684857912
0,0722245998860299
0,0707516920570843
0,0725616492866248
0,0697218988599156
0,0719162756236976
0,0656091153677928
0,0708894845056436
0,0702603617467001
0,0713575572888304
0,0664041795804406
0,0736044879257103
0,0679132077017107
0,0753033124427189
0,0635387079062644
0,0778235142766536
0,0632448188316281
0,0837875443911241
0,0630096054734232
0,0788663570236568
0,0727167325775361
0,0729272416549392
0,0723045608515634
0,069463981003588
0,070572951192843
0,070635596090043
0,0684005128385445
0,0720089104542649
0,0689554394157834
0,0717187763419276
0,0724395640861578
0,068813064410402
0,0722877021334408
0,0809260729966794
0,0793348810203991
0,0787881715650085
0,0673533365255404
0,0753047371064271
0,078140059708978
0,0763678367486807
0,0762666461282043
0,0680871522334772
0,0737389103579231
0,0724532830004498
0,0743034237903956
0,0705976467966547
0,0734250611767748
0,0728260800776899
0,0735902783176803
0,0750941731700805
0,0711742154040809
0,0743510253910549
0,0733533635327292
0,0769524716341159
0,0753185229322537
0,0739010201385954
0,0796731224154004
0,0741266397813105
0,075779406783717
0,0737860394832096
0,0779259088129819
0,0748554967360417
0,078840288998419
0,0780007226098627
0,0777065161317284
0,0830883784833627
0,0793287617436247
0,0802917570034747
0,0785694460576638
0,0765656041516169
0,0877779462625132
0,0750280714314568
0,0844570257445753
0,0796217305800024
0,0843923069913783
0,0931436967322866
0,0777695204506906
0,0871907608128467
0,0742013917506143
0,0891113806600716
0,0737024066114387
0,0935762907868364
0,0758386278239353
0,0937056641589882
0,0759005988649563
0,0928544494305295
0,0782184671939714
0,0921700670116022
0,0823910127492742
0,0912582554533609
0,0849726834016464
0,0918564885763414
0,0883560524676477
0,087382811743142
0,0930666976784344
0,0931220777828448
0,0967065906661123
0,090825712386742
0,0912901114327478
0,100777186028084
0,0864352959753323
0,102970595818655
0,0886918591101866
0,100747064206338
0,0915007986419828
0,0955833547666092
0,103751108737646
0,102782129863203
0,101114597024381
0,0998541806861638
0,100080703108766
0,111584839849831
0,103944155137794
0,110315711538146
0,0993888938575011
0,111617976489062
0,100783508226035
0,123617239389901
0,101791300684408
0,125459296898924
0,115154313768197
0,12436142567039
0,119626611078522
0,119703091884418
0,121146154932738
0,120980014677259
0,128896340426384
0,122042385161176
0,123568965147112
0,126466078210533
0,131520816128907
0,125177286201081
0,137311573875375
0,121434852032339
0,133704757363353
0,131005498712971
0,15136564620173
0,146961655804335
0,140483317036081
0,137186674587372
0,149146944696535
0,139756311110137
0,151577575201693
0,141302067076859
0,144256183631708
0,149687548618955
0,150814654810536
0,1564826453515
0,152409198518234
0,16108047347132
0,160131421723011
0,164851216022929
0,169376988519627
0,174773934862462
0,188730413737171
0,16680462681624
0,1885401873934
0,168002989490724
0,192196072847997
0,181820251586833
0,19289010472531
0,191819521973553
0,193418076017189
0,199900196841261
0,199574244338299
0,212838143076849
0,207454630620408
0,21736536044239
0,231273257970842
0,21813647351677
0,232307033928285
0,217908695185435
0,279399446233773
0,194122865392187
0,267867804718035
0,23476718842679
0,265021356955262
0,265334980135467
0,271877944187524
0,27032031300907
0,269856452004401
0,272449410559905
0,28241601757523
0,285637779117807
0,297464895167596
0,294526277597155
0,306445807629572
0,304720745595943
0,323549879873862
0,334150094358937
0,36272251719656
0,352192426309898
0,339509815898299
0,347556357849889
0,352363732302512
0,356736808392372
0,36924711688833
0,367967012015546
0,376769505685755
0,394162686867091
0,391929462666235
0,4078317629793
0,389335637245524
0,418556269995294
0,403297698175089
0,44725000666134
0,419312225588504
0,449928610041976
0,446075602889479
0,447915881438486
0,462393080947861
0,45481470491169
0,469986989657989
0,47640972084344
0,489248344808778
0,488143229326255
0,496729127521398
0,502670618544535
0,505437168796817
0,515261184843003
0,517032207160784
0,528873008659825
0,525224219429773
0,591964832831699
0,617921816581201
0,558718436207186
0,54484419470829
0,54744800160251
0,573260234965897
0,564901452034592
0,595918629374237
0,584259306070884
0,586072339900468
0,579988294882224
0,590927187419915
0,588248192685622
0,590374794291951
0,610799262878532
0,590504221793364
0,602997511230427
0,603140054932947
0,609136904146458
0,63361334938776
0,622376228128327
0,608771293497687
0,582778455220893
0,605081166537395
0,591875895061162
0,595948868974939
0,588194449656775
0,596984147391119
0,5872347494573
0,591138426069402
0,560251793897559
0,572420884581013
0,573757483150823
0,570099066844095
0,559271302103227
0,546536777470817
0,545032193843554
0,530929248130072
0,528095080088103
0,529345973300151
0,532741429927381
0,523844842533358
0,497592473457959
0,492245220934394
0,485172545839666
0,48291716266014
0,467120200506239
0,482319770140268
0,453749444617151
0,460868222695996
0,439556581437289
0,446663451931534
0,42568148116324
0,435775657763073
0,42299959574378
0,419649973778503
0,407097589972981
0,40566477106638
0,39730299414354
0,399281642761184
0,390661456595184
0,377347567828593
0,375538694845694
0,380991581819355
0,369239985435797
0,363829313731799
0,35671102580481
0,355402191765295
0,349851708216289
0,349583004780942
0,343168067919752
0,340020317071624
0,332453349483561
0,330004646142081
0,327594661475523
0,326328651501887
0,322995289916827
0,319728840788195
0,320467705007093
0,313656997471817
0,314772991930656
0,300499218151022
0,308106846331232
0,308780279452792
0,300678812678119
0,303773369422553
0,288979758813819
0,300449608056395
0,281013962266215
0,301329779882786
0,290510071034442
0,296883890034151
0,285366829469135
0,277596100513119
0,278533821178981
0,292275985571847
0,27329286828979
0,278244077343924
0,259067697095443
0,281448946773246
0,282589897370101
0,287233200049751
0,319608830776754
0,275522799662084
0,270439856273703
0,259549666787447
0,285068728018294
0,256887879142313
0,264741658115433
0,24844478341223
0,261968767344218
0,255458661691358
0,257999184684179
0,255082350809916
0,248720562328869
0,256739818690902
0,262876548832421
0,258701268053943
0,254749510898244
0,262269948147486
0,25137419029914
0,254916240765981
0,253229957926853
0,264229858066504
0,240007174035633
0,240809961441478
0,232794600491116
0,233527057700534
0,249243449357481
0,223269142055049
0,242327894965168
0,233193523003997
0,227598815272255
0,232994931029737
0,227767152650877
0,241386491525172
0,223626510898282
0,251465023854038
0,219697747941099
0,234552305761248
0,220327680520249
0,23843763349575
0,243082828499658
0,233966969632585
0,221871116102973
0,218814413173976
0,233434927293096
0,222430125423773
0,229042363854889
0,217148031087468
0,215351129884852
0,230747888717001
0,208009712862487
0,217919892854254
0,221378993696317
0,21807985810605
0,23398272755361
0,217920974889605
0,232894958306467
0,221884309022159
0,205686630606404
0,210761696437522
0,20444361704285
0,212929678678171
0,200169167848617
0,207536703456216
0,220123328609357
0,196911791718228
0,221765936674089
0,195323886939454
0,206402058221014
0,201443227816857
0,203371975707773
0,202315551614377
0,202866173312595
0,211059766887307
0,214960515561977
0,198032139105361
0,219298773742041
0,198082763285582
0,206943223930112
0,192958774491871
0,202730915488201
0,194843124471958
0,204574938437149
0,200717222361571
0,204537999082546
0,199622772350737
0,20611751631083
0,196516104034593
0,22803023404361
0,191595468266643
0,214181714963109
0,19948535762521
0,21939400021798
0,221849833807183
0,21001399152585
0,210666144534299
0,205832668354434
0,210435683157199
0,207932974665145
0,20393617893291
0,227649166757874
0,207706110494104
0,214266570958659
0,209019780721082
0,214562791072479
0,204445271045618
0,2211790863777
0,215133698527242
0,216992830128255
0,230101495276432
0,203590509655043
0,228909799184254
0,205475354071454
0,213459819000316
0,206857919622395
0,210520873716855
0,213821701870678
0,206380241158561
0,215440310535473
0,213052449992195
0,213282589356727
0,213624663467208
0,210624879481199
0,208716178825385
0,208678183871072
0,210848010051222
0,20920170094497
0,209572444490771
0,211406404213234
0,203490036510862
0,230726836632563
0,217033123737473
0,212997068393478
0,211031662798342
0,208564279116603
0,213475590417454
0,205074516392137
0,219966115362253
0,217132543504917
0,214958883677291
0,214149174631366
0,203398516738506
0,211624829051585
0,206338837404329
0,224357111646057
0,208571275733683
0,215296154553702
0,214489008737685
0,204655629915918
0,247882340006269
0,197660272231678
0,224842543866371
0,20801931307929
0,218187785357716
0,20868973857314
0,216148634788131
0,205141622916203
0,217894064003723
0,208414067457566
0,213777847749784
0,209913568416514
0,212561127752331
0,211594512669083
0,207812242954769
0,214327126445994
0,216249156154323
0,213473682866293
0,214075305861524
0,210730094805854
0,211297064013202
0,204095631247029
0,217973098828172
0,210657767824796
0,216673951182444
0,204595578486872
0,219703896483957
0,215249140839748
0,211558819591408
0,20590581121447
0,209228849924659
0,206054410881302
0,213250640063435
0,204183618865145
0,221745664088055
0,209201850190373
0,214125512168133
0,20779585848997
0,210985307853011
0,200688467488044
0,209260799729837
0,206827555159733
0,21280239108247
0,205699595449956
0,21385855240427
0,207353918221124
0,207799138136438
0,208325817787819
0,210412535182231
0,217289008623442
0,213274669566508
0,210230725447278
0,212391330213502
0,205118923529569
0,213424950133029
0,205962753938723
0,212560369642768
0,200088190158049
0,210997108590336
0,198489555699615
0,216060341418606
0,20897080682203
0,204413439325894
0,211112428046376
0,198752041649326
0,210153186136938
0,199120799574152
0,204732223075815
0,201253106161046
0,205439724053219
0,202916642954464
0,201818408280318
0,204908378770583
0,201970925949891
0,203256413702167
0,200414791825304
0,199989002954078
0,200149912427736
0,203106453600678
0,196874137709668
0,201297281557175
0,199591446803145
0,201672585379729
0,198389713284649
0,201134628017402
0,209552493022513
0,199899715438918
0,206384569396504
0,19844792115698
0,204374448806342
0,198451587845465
0,202066948646959
0,19798038201815
0,20214255011022
0,20037911256951
0,20008394683534
0,198929360094435
0,200835048811889
0,197677211299468
0,199607946876887
0,198989918255405
0,199122769882349
0,199292541416792
0,198919517927496
0,199559982538528
0,197846850836284
0,198348994571946
0,198901452255075
0,202252495450371
0,197149950871228
0,205291868047461
0,19893548054201
0,199359700929849
0,198965194330354
0,199569163308759
0,199361374429861
0,199027079325634
0,198149022669453
0,197732520339273
0,196524777875009
0,198179906978141
0,196652192127727
0,198722030988538
0,195671088672177
0,197875792989487
0,196485094039228
0,196101595131937
0,196514827982902
0,194764290239215
0,196051319587504
0,196733262549721
0,194518359503729
0,194757132771424
0,196207437587015
0,19230765862798
0,196032382988404
0,195310143485042
0,193013887580831
0,196458720894519
0,192528179640924
0,192880414431868
0,193415850167094
0,193101356613492
0,192880769271085
0,192336364731939
0,192559896169249
0,194258749263041
0,19156948458845
0,192442358897034
0,192736588907452
0,192228466968237
0,193765960822331
0,193747742979154
0,192798366137661
0,193699020755361
0,191712192842259
0,193988802051461
0,191739749847332
0,1953913233088
0,191520610358284
0,192544343639776
0,196613841645797
0,193317972319027
0,194598480672282
0,19458655024489
0,195249985561925
0,19439431312004
0,19537090041472
0,192421907492259
0,19741614515236
0,197382867698864
0,195776895325283
0,195420504773951
0,19684278487244
0,196945668435309
0,199867831891293
0,19334980565565
0,195418853977535
0,196253492916817
0,194561043896569
0,196603667725706
0,197521673645871
0,194409175869824
0,193410139931823
0,193170951324152
0,195578977443441
0,19612884564385
0,195908006337443
0,195585034014902
0,194537376245989
0,195274855943363
0,193677434366749
0,192993206145431
0,194770151303829
0,192334019443089
0,193353746911637
0,193888595946405
0,193559296177071
0,192579832384567
0,190747700979085
0,193725753503315
0,193037041742587
0,193744016744059
0,192675580465276
0,19208703989845
0,191441212691522
0,192997103943533
0,19255425704294
0,191745971083456
0,190667783238491
0,19020240423511
0,191305771717839
0,189861781789623
0,189099186663489
0,189326205102675
0,189641917864655
0,190781166107779
0,190117315634833
0,190165021450798
0,188679559057097
0,190688066296854
0,187082591385074
0,18827709653266
0,188101852802331
0,188682215988514
0,186938622549077
0,18829277326669
0,185748517615549
0,185588390047618
0,187990251489939
0,185960902483854
0,185850390259755
0,186157162609702
0,185982734564518
0,186866179108681
0,183961776172929
0,187167733794541
0,185109564387055
0,185735663005584
0,183742585765741
0,184494799693968
0,185677078526437
0,183961542778127
0,185220643778658
0,183901712587029
0,182454390799988
0,184252598718082
0,183451271938438
0,183539808747938
0,182450999259726
0,182304451306153
0,182200770031129
0,18319209829217
0,184518575657146
0,183289545327623
0,18470133453116
0,184589371168279
0,185690976565279
0,18841096727866
0,187700800695512
0,18777980431898
0,188042520966126
0,190592046724997
0,191286445378349
0,195372416253326
0,195497932006414
0,195678516782303
0,198110690466302
0,199505171726742
0,201422766595751
0,203947698613799
0,20532560140436
0,207123635557458
0,208033923328225
0,210155744733184
0,210608654112579
0,212063638062066
0,214762949098544
0,214857481630372
0,214758117989211
0,217543846377549
0,217584751135019
0,219197420521721
0,21887852257017
0,218762226139054
0,218360073993679
0,219384136402758
0,221127565990915
0,21830887818403
0,218969320840751
0,220014909764072
0,218248547530697
0,217687577320178
0,216611131011169
0,215613261613491
0,217066648293189
0,217710616082627
0,216030407914759
0,216873302836362
0,216864380065709
0,218991252081101
0,2179120108978
0,218147058153945
0,217651769133911
0,21908681457312
0,21766158057891
0,220584648963168
0,218371988128767
0,220284338891169
0,221798657735413
0,222212233463772
0,220647967043474
0,225777641187426
0,223508344253111
0,228146126189863
0,228330293606067
0,229590819109943
0,230359358874324
0,232997779143224
0,235801917344688
0,236760327135812
0,236807154383047
0,237370501769737
0,237455373931779
0,242097733849174
0,238878183109619
0,239398785568845
0,236452545208168
0,238953021903322
0,236788618533923
0,236066701336179
0,235439870985259
0,23635413033109
0,234485501689482
0,231921122916392
0,234729638777095
0,234470933978454
0,235258468904928
0,238511040958828
0,237739833039995
0,239864094228877
0,240320225520049
0,241734184396736
0,244007704250413
0,244538600990901
0,245584955734056
0,250466557301216
0,252682750749879
0,254743196744651
0,253178201472897
0,256664020227642
0,25756116922471
0,259889623675594
0,262276512331641
0,263533219585782
0,264922140416098
0,266533787095329
0,26701885021988
0,271202538631607
0,273048788589088
0,275934423656992
0,279369921177522
0,279934361954913
0,282260438087461
0,286820215593165
0,286185369548737
0,289301799244157
0,287407246853809
0,28946627555284
0,292238553143654
0,293128793626075
0,292739356047407
0,295536083689989
0,292787346717378
0,294556303235263
0,292127300377271
0,289282440970995
0,289160367640861
0,287224108176073
0,287908892187885
0,286274689093012
0,283658059636572
0,280787179020505
0,281088007497311
0,279307072479868
0,27886691653046
0,278588109712929
0,277592457529136
0,280180508432201
0,277670095994076
0,2811967269016
0,279074819865513
0,282049177465582
0,282978389931228
0,283174715300363
0,284574260947155
0,286505732978503
0,285049508880912
0,288773119528016
0,28763672426243
0,28997214023706
0,291738826367075
0,288375968807941
0,29152755795721
0,29261440545695
0,2927823475638
0,296417147018949
0,294233706459077
0,295477669661356
0,292688838342096
0,292645246957425
0,292652197123072
0,292471119761129
0,291022092463537
0,291375775226492
0,289296642399598
0,28974822870734
0,288244108473101
0,289466187638011
0,290681022377704
0,286568298557684
0,285941438777433
0,285218160125098
0,282659876645999
0,284892739426155
0,283978895511333
0,281689797571395
0,282442673090498
0,283068136645596
0,278418713746845
0,276692747451349
0,276343036994322
0,273816193952274
0,270672019610582
0,266969115891068
0,263980483985523
0,259466088002529
0,256163251216567
0,255748298265885
0,250003266523526
0,250976084264703
0,243250764496347
0,241958043054194
0,24224451171731
0,240083440072172
0,239106244176864
0,23822182962797
0,239580834973093
0,237093533858046
0,238302272811489
0,237683475713743
0,239915983448011
0,240707651075615
0,238171872626046
0,240498923724184
0,240555119220763
0,238414019994757
0,240555936208942
0,241232711623778
0,238593830695174
0,239634394901112
0,234976330149896
0,237610515569145
0,236795243495139
0,238417318252407
0,236610065740758
0,234850054626012
0,234633208289268
0,233918063925599
0,233538721241193
0,231466310353355
0,230424140858852
0,230086355178213
0,230349772515669
0,230861182178861
0,227522873341787
0,226787218686471
0,228322382329717
0,226229769234822
0,226216837496729
0,223973086606978
0,225876788210624
0,226925189465473
0,225447808158853
0,225586198308609
0,223674016810565
0,225099459507617
0,227444415318439
0,222773241830158
0,225094723358665
0,22825707073844
0,227251984369881
0,230405884553529
0,230663482598094
0,229120821908154
0,231625826495973
0,233752814816036
0,229954787517805
0,229752703609078
0,232455359347744
0,23308064758673
0,234479500811147
0,235495368850918
0,238120520997242
0,241675783819916
0,237942979296554
0,239130068234092
0,240460915876811
0,243822030061448
0,24405467077275
0,24819164358408
0,247465280100077
0,249478089947191
0,249165323858442
0,246483053062161
0,251068678336871
0,251633552684806
0,254876761925601
0,255835626442939
0,255546049915467
0,25935071450541
0,259444844824368
0,256654360457134
0,261297345301903
0,263077758293774
0,263487829666942
0,264052679997328
0,268104123570909
0,269694694001036
0,267658029066461
0,271786613668514
0,279326203499362
0,275352656909558
0,276617928186697
0,275300769341857
0,280779938719465
0,286609058718639
0,284458479699585
0,282013436423632
0,287489365106034
0,292207094543247
0,292514981424086
0,295794660677842
0,294603741492073
0,297139708609218
0,300999129311972
0,301677705410474
0,302585564788858
0,299066463995574
0,308017599733776
0,310150368324109
0,307601540901902
0,314180974624359
0,311328969753657
0,314001307963871
0,319750155690044
0,318050303515262
0,325943771819372
0,327555670423313
0,32778772818337
0,336326127567818
0,34338639665854
0,337556092765428
0,340427096838768
0,348868917229957
0,349196533993661
0,343233096819
0,351694924374428
0,357204125687405
0,354444488823294
0,356010797667394
0,356875019948787
0,354020991682269
0,361163070939335
0,360896603971005
0,36405582926116
0,368084605911831
0,370342749904593
0,375063617104287
0,367994167922347
0,376836972044898
0,383971403911897
0,381338299464441
0,382302952756482
0,385976298939152
0,397648891007681
0,396902921431437
0,401831652473673
0,398823176049572
0,399331469867466
0,399366978385246
0,399282965587271
0,402188451366944
0,410312483956555
0,413291933331154
0,415307725347637
0,411492891638483
0,416066614532144
0,423968344531778
0,426012369734003
0,428895562522533
0,437341547544104
0,420985240417083
0,433887659359698
0,448916888512821
0,441977553748918
0,439649059401277
0,454799322681139
0,449663409648907
0,437630692432528
0,445913591138766
0,462614224920261
0,463265578428391
0,469617156824837
0,469587405967549
0,476012780802345
0,483722160267449
0,481191328916155
0,472551220011328
0,483566116887626
0,485142544590964
0,476288556266299
0,493576311246539
0,501253793269043
0,488294754952383
0,519554399061344
0,523750394654341
0,501140137842756
0,505376248680436
0,521026453644167
0,518293612397507
0,516552972402189
0,527901495645245
0,535909206978304
0,533642574213262
0,517943166585175
0,527385490531476
0,532645341752968
0,527786677453356
0,5419320020148
0,538005828364671
0,555150943237551
0,545143884010697
0,567480530094624
0,577919164512664
0,563561241660707
0,579288188807479
0,575406906488644
0,577293502472794
0,59253379226316
0,586916473854667
0,587072019416727
0,580569805177837
0,589537134256726
0,591867500159401
0,598425126516843
0,595695583917817
0,606599936710899
0,599721940363764
0,619483123415494
0,622894924387097
0,615207600856332
0,619340125454131
0,633943004116781
0,637872123170136
0,631479653898091
0,635925859495587
0,656702670100016
0,638156144591404
0,638186439730976
0,651272209545899
0,672108434491851
0,644228192245615
0,66467526960981
0,649486873500617
0,661931398153497
0,6991394607254
0,684676062022078
0,665393216820861
0,688211516944667
0,699674210772138
0,719173905891433
0,711272764921629
0,723167519541752
0,699703320359038
0,695755950325509
0,697771105278304
0,710303663252467
0,728661680823003
0,736592077067352
0,727281033540984
0,724773733861353
0,714328108762968
0,743873695826245
0,725077599676616
0,737882811007887
0,724552117178115
0,743675884956012
0,770694362021617
0,774060896391078
0,755179869477231
0,779576300069364
0,766119925095455
0,772172275870756
0,805581737007276
0,816033707166906
0,798255663781683
0,769571158354917
0,785121024758415
0,852343567465092
0,800557031153664
0,798872626081136
0,829195970768223
0,802847987365726
0,776142421641804
0,842188931494772
0,801746644022193
0,79902656625689
0,838532373658431
0,827187642160633
0,821175113489131
0,825973761042035
0,806904045428802
0,846824297673687
0,829681302217687
0,858883510441277
0,896118002348252
0,824652593878242
0,821306616377075
0,846348289023548
0,822254161922156
0,895314320720833
0,885436000250676
0,871932941723576
0,873909156281405
0,891550780539768
0,929853136519395
0,8738070585325
0,864805778877948
0,976383643899514
1,01634252490646
0,972058213547687
0,933752993217071
0,908435882680958
0,825475149013118
0,919707776367713
0,968097224476898
0,850620331002144
0,83878783607561
0,953871694356937
1,00866274726675
0,969040356842909
1,02457452612276
1,06320057850852
0,907237944545038
0,919009094797364
0,979477120920508
0,994042060905012
0,954756968405396
0,957602849167808
0,950423069051509
0,925210939472887
0,900659866398615
0,887820408360993
0,960157439646803
1,17119727736648
1,04866853615511
0,961479624461262
0,932989117125696
1,00962856124564
1,07158950386196
1,07418975559007
1,00800630833067
1,11267073855673
1,09980191718974
0,998169992803066
0,922914286036682
1,20168374432909
1,0678400935112
0,943220159904526
1,2023380553615
1,06725776579313
1,16009539843728
1,05750045309629
1,03990750998505
1,18978800038103
1,18872238421944
1,22805363251932
0,946635294708817
1,1525885026111
1,83933752052934
1,45046399133618
1,14849560907855
0,927672541409572
0,92849924285522
1,14918414750186
0,980140375056632
1,08195086632927
1,70425353213753
1,2778657524608
1,40465458986299
1,7846057129136
1,17755841224594
1,102779115891
1,16394448790278
1,16412630747198
1,7781539888962
5
1,37072479573296
1,01181540494712
1,95176098874005
1,5275640159287
1,06689010513894
0,803835367788232
0,807072964976867
1,02609030592889
0,851894694696099
1,5176157092868
5
1,17390204943754
1,05037421513754
0,846087942063674
0,864269830148067
1,69388411572942
5
5
5
