3596
4000,36533379555
650,420452594757
1
2
2
0,0149285507978472
0,00698547140300768
0,017318493304336
0,00788373219924289
0,0110254948970073
0,022091105622686
0,0153091629071853
0,00971927862665949
0,0183658240573151
0,00828182286595471
0,0159136170705045
0,0109898996059644
0,00922556168121278
0,0118569070045341
0,017285228619514
0,0125721505432691
0,0145703872580295
0,0158719172002045
0,00828628390057596
0,00861278152009869
0,0143407577436927
0,018443304037543
0,0127831138726285
0,0131584378121064
0,017914293147753
0,00982940573772407
0,013712950297056
0,0102357849488557
0,0181176565946835
0,0143261453505108
0,0141338529610893
0,00942824790605355
0,0103868166682113
0,0189568318940141
0,0152496584271369
0,0126409549895317
0,0199167029017929
0,0111920638766763
0,0181991982371215
0,0136085506883686
0,0176717523119153
0,0152539029257488
0,0175549487979741
0,0143597433554293
0,0172599526665191
0,015954043489921
0,0199454248877761
0,010516530117757
0,00839158965557586
0,0188317288087955
0,0131113781159776
0,0132655179150936
0,0120087907038136
0,0108186270336315
0,0209447535299035
0,0145835753162702
0,0153078850450988
0,0167961069306815
0,0154394904026286
0,011138985186642
0,0177167895662122
0,01144805277474
0,0155941893027565
0,0189353688256721
0,00750505879077366
0,0157068530483392
0,0179341324793223
0,0149994422933662
0,0220197947652477
0,0142339733716175
0,0195244766161585
0,0219209137530301
0,020937300256698
0,00771149633902493
0,0151959808475421
0,0150386676211412
0,0141622777004824
0,0158492973761175
0,0190980895216404
0,00246213996383216
0,020625161663653
0,0115898305276077
0,00840543251864152
0,0058185599386189
0,0187450604990183
0,0130878248933937
0,0225978808171995
0,014460748536276
0,0282336684094497
0,0155977537778158
0,0215320165605594
0,0125598777255171
0,0182115964115465
0,0176611601967408
0,0244370295592677
0,014828615249748
0,0205850226710156
0,0138239042760874
0,0177704655364535
0,00344010090284672
0,0186156856020687
0,0145403940816737
0,0218362511844047
0,0111923351643895
-0,00969882815859168
0,0150935492272418
0,00771124643933684
0,0156183448698384
0,0176822890780442
0,0147511118899682
0,0189796388007133
0,00703378268101516
0,0165853820202283
0,00596872068716011
0,0255035761519975
0,00335509943965021
0,0355446700653291
0,0122195446125314
0,0194217327089899
0,0113554811216046
0,0218555306352267
0,00826686801040175
0,0215682350130369
0,00894314355405517
0,0182306966654392
0,0142864531864214
0,0172460759732223
0,0134840576562633
0,0137448903953262
0,00737997350569205
0,0155330700236727
0,0155281134801476
0,0112173039684791
0,00650829574656134
0,0152577950144056
0,0213393005121509
0,0119217829918331
0,0184676283853014
0,0137235584784259
0,0126601558079293
0,0164911796997797
0,00937346412652144
0,0204959019933089
0,0055348517118555
0,0234275349005937
0,0205656205987362
0,0179828801815072
0,0186911321698735
0,0179751801507475
0,0147648063270682
0,0182335293328409
0,0184597062976363
0,0254340454913506
0,00323556288651376
0,0261806816895215
-0,000753700441836495
0,0327686176318345
0,0132238340978378
0,0176512189547314
0,0213726123987251
0,00962293520388448
0,0240882302162159
0,015377536534473
0,0154746215081795
0,011756192813022
0,0176860721529913
0,0146399500564003
0,0107315970493949
0,0278398191386677
0,019642812129999
0,0227432379877162
0,0181463487333463
0,025623094883154
0,00574714908492708
0,0185873341354335
0,0117440300787575
0,0154808015937103
0,0144518222427872
0,0158602922017139
0,0183207235192789
0,0201256235755708
0,0157704223924353
0,0178077119690805
0,0201307598521563
0,021412830428987
0,0134786918209128
0,0194273034821662
0,0262832991836026
0,0192646003669177
0,0207422290124122
0,0177430507609847
0,0177576812685568
0,0196556186852661
0,0221584640844012
0,0198260766826199
0,030314434942916
0,00204141196428364
0,0203376284240043
0,0147368877134471
0,0209741009816159
0,0161977233560234
0,0115306455246572
0,027324462112423
0,0207228394158498
0,0243667772240999
0,0226367723868149
0,00548167638923992
0,0232319522997881
0,0131756361688757
0,0190125379668649
0,0268035776751095
0,0308561306614413
0,00890694430060317
0,0219665442235729
0,0150504727120481
0,0212664723551194
0,0204621887810708
0,0259882108416548
0,0165972840720406
0,0248243317592531
0,0168086206252984
0,0196206276387806
0,0215780256548827
0,0192800929494656
0,02390602700941
0,0202441422545639
0,0244488126091519
0,0164439224999834
0,0292425830537633
0,0246895486516649
0,0266577645735859
0,0274140923213857
0,0293415016293336
0,0220613872303993
0,0319276695704522
0,0229021512514394
0,0198917813137021
0,0224477917311557
0,0188172152703006
0,0275072484760003
0,0281309508854631
0,0280748995468461
0,024819228382627
0,0182951913057693
0,0235200497208359
0,0299000869189209
0,0185937198851932
0,0375484173051702
0,0263162366497039
0,0325365213631512
0,0111689132020751
0,0362928379848324
0,0210610423532678
0,0281908915801299
0,0237904120527813
0,0307038804729551
0,0202070755708468
0,0281490609170614
0,035191773186118
0,0301906723926113
0,0243171501784387
0,0286519714971411
0,0279122243399446
0,0241651215675933
0,0412861582779628
0,0235673144892043
0,0366385641973264
0,0378323004493175
0,00934634723566658
0,0399795072434546
0,0238799049628011
0,0308026181519977
0,0381099112395178
0,0206770687598848
0,0322533360364185
0,033303244768371
0,0354916835112193
0,0372728286614054
0,0376629535277111
0,0274167652305722
0,0384657046173823
0,0538441970746402
0,0473043602009639
0,0509557914051139
0,022921562069965
0,0381334530609375
0,031626054373711
0,0420744464951497
0,0372490832659636
0,0453226081576472
0,0382447320199057
0,0387783527889716
0,0382360482541428
0,0409709022678846
0,0370658382647775
0,0431879186096126
0,0465626272717825
0,043645865204318
0,0463024667788612
0,0372166843036237
0,0482603307715344
0,0456686062188069
0,0501655316288077
0,0372508880792683
0,0557532173813431
0,0441343802445937
0,0471475028545165
0,0545487643239458
0,036214268488716
0,0595140215708234
0,0632623491887844
0,0561637340630726
0,0618689651288244
0,0594455176553845
0,060265145199748
0,0576220954623318
0,0592633173923729
0,0503170179681848
0,0645999086293561
0,0687355180338442
0,0751483618622486
0,0666315041970369
0,0780971785197907
0,0722436820133199
0,0699771119585283
0,0808281867795889
0,0739529513311267
0,0863791117685223
0,083399192286676
0,0860612631253031
0,0882479548804807
0,0872001389172452
0,0993880525664075
0,0885345312690733
0,0982052527182229
0,0938213124358804
0,0979715498658344
0,101764577856042
0,106098620631978
0,117221859122245
0,111119143523062
0,114578458863902
0,122140854043781
0,122768544459565
0,115211664543132
0,142771944094172
0,134434739280117
0,149461284322295
0,125116997951045
0,138025147883444
0,139358191242737
0,15883591706091
0,142496834653015
0,165129679927585
0,157110218934195
0,155423136553718
0,17487204362615
0,168661688983417
0,184401692118015
0,181907019117618
0,188160230062054
0,186666743845768
0,20007763445418
0,199969723428755
0,21351717788597
0,210733467386348
0,206192438740602
0,22622444015261
0,22610106428008
0,222495531633694
0,234269084879071
0,233343675932514
0,238924847668617
0,263428407122686
0,25274325584255
0,278347024634614
0,248175241400392
0,290501532621321
0,250415124292857
0,27940400802485
0,262460282143677
0,289466681131765
0,272860983760266
0,295203437429189
0,276234033708342
0,303323884329581
0,297020597000978
0,312294655471113
0,295606503190825
0,325686762847795
0,304205105923451
0,338334583958081
0,322453142587086
0,339513105864571
0,323076714840467
0,350071053428988
0,349676876982707
0,358668960181586
0,349184455726974
0,335708470200579
0,341479626933558
0,352677751011266
0,357368600835706
0,364756296739456
0,358160967675097
0,380634856780386
0,385007611890602
0,39593556825397
0,37863711342334
0,399471825095217
0,382640708173299
0,411559848528108
0,38919457545138
0,412915344041193
0,41631525141425
0,421171679096331
0,40852125681176
0,43106359908223
0,426517759047669
0,404730889028775
0,419973007976921
0,421030061440204
0,424764074621921
0,448122516555077
0,41206696090858
0,446870052852696
0,454563324374372
0,477849248314173
0,455987219280197
0,449523503064571
0,457390463124381
0,465184658921771
0,451059685455423
0,500786058992125
0,465432078838753
0,509145165900041
0,468045468990718
0,487506944018481
0,455811952806906
0,496767438560036
0,500990844237663
0,536237319216463
0,510425993943895
0,497312014718945
0,477664531851801
0,498710554362309
0,512305005740089
0,523872105865305
0,52749141818678
0,538578825020795
0,564292230709523
0,561118240587035
0,536217914522498
0,549823335881096
0,541073626676687
0,552800108131866
0,545055639744075
0,568820454698876
0,513898142821498
0,606459070059198
0,540707261015701
0,595200627300212
0,605094622269579
0,643242542102672
0,611421088204347
0,608044554184497
0,587677434722332
0,615263223692476
0,582133670890251
0,635036236718295
0,58739567784662
0,668156022120237
0,625735617612638
0,624836119358121
0,612146402515036
0,641740281834948
0,590695577883609
0,688629423693191
0,635796304409907
0,682140491833937
0,646007400880005
0,658082883670944
0,625640909966937
0,683914541528447
0,627877135401811
0,691884226153679
0,649094082654134
0,672050811642721
0,635312023307173
0,724399281028293
0,693757199443824
0,6895989867703
0,674112199062627
0,731108785233593
0,702221529645317
0,775540520296888
0,704746347843837
0,720884604964254
0,699100267104475
0,771876541806393
0,728745138765974
0,795116547561729
0,748670481072833
0,811831584978573
0,738294537455459
0,805550312188284
0,700112335246152
0,763258164891662
0,724494053853918
0,758437948522905
0,712274025156505
0,812892474109151
0,801951452017729
0,838143272621503
0,804336567540307
0,819850504289543
0,756676401167103
0,904389301614981
0,775416008714771
0,840941809634551
0,795088044962107
0,835280319263525
0,779758175874448
0,845135202975206
0,806260850644398
0,928578379378008
0,782482105849129
0,910823481793189
0,793861830208969
0,904987066598006
0,842498449675176
0,926614202715404
0,81592381939684
0,889369385927335
0,869174881428636
0,920287809189584
0,856572157349997
0,929867987231087
0,865806396489513
0,942937917955307
0,863316054978295
0,960007718494264
0,910782249397923
0,94080741242392
0,896583721638895
0,9757603341363
0,879302509603903
0,988868115778291
0,91053040797337
0,999393278547169
0,88836425041723
1,001591743147
0,920759400550964
1,03905269869155
0,90725987764964
1,03953540590421
0,965596796821864
0,995059383832921
0,938449399324455
1,08894559562378
0,949834948909185
1,0554585594038
1,04288285539712
1,08641360541622
0,961944572762671
0,987633823113641
0,984656427140219
1,05095083176044
0,900544474919349
1,1017952582314
1,00322144340157
1,12904569973017
1,02002177451274
1,08283330758147
1,06176900008599
1,21002790921323
1,07435273630052
1,19472574098545
1,016433875466
1,15959056591636
1,10228988623415
1,0420862589519
1,01083940650839
1,12408349995241
1,04432144040254
1,1019981011457
1,22294191336008
1,18504632408795
1,11452136691011
1,11824583793218
1,11801629638356
1,13030846329252
1,17205005232905
1,31286734900103
1,10258450937046
1,19101869941677
1,12013169300144
1,32279241436338
1,00725289562978
1,2199430008661
1,10143149395964
1,28594660434334
1,11789930404956
1,17679942345815
1,09076833117082
1,26453480541269
1,1400981837126
1,37440165960116
1,3558947879467
1,29774906553375
1,09639194352949
1,39005385250692
1,06156116068364
1,31991448509715
1,18058214837571
1,36670296662608
1,34566389843443
1,4502424529473
1,23229579303426
1,45660262445918
1,28786412399795
1,24909146214785
1,36824761148841
1,43213422086067
1,16871635714557
1,37623936140994
1,18496764705837
1,38889870252398
1,13260381322833
1,38957145656223
1,47408228285203
1,64116201399911
1,23978130368208
1,47269390807138
1,23253425468438
1,7360065231631
1,29654903393468
1,36057420951861
1,30973408809851
1,48718581914734
1,20979369706912
1,48361238720642
1,23956770378399
1,35862583326102
1,47986799306658
1,42358479322251
1,34349485012779
1,65588187338602
1,3696520667509
1,34779512341579
1,2877557294555
1,51969221004235
1,47237270672399
1,47662702063371
1,26381425017552
1,38023301831391
1,37469719594369
1,43730934652741
1,26755372732666
1,4948774811625
1,3240170224689
1,69385119630184
1,53936921800554
1,42779418822033
1,39980091934738
1,46753616919692
1,32606088096234
1,51413225742386
1,47429684111375
1,498013325144
1,48974067915657
1,79057729569764
1,33748161159814
1,44324683070912
1,29011808630547
1,45257956391452
1,32004576427722
1,50953338411658
1,26441266395174
1,40622835187239
1,5277018642104
1,41660116877146
1,46782199215146
1,55625389202473
1,41816517636689
1,45718467989642
1,47581858822192
1,63961631340805
1,34027466841971
1,41855041402482
1,38815043717206
1,49569315420574
1,49720533427879
1,57245653289223
1,37910118376544
1,58622770837164
1,40718178427763
1,54412432560391
1,48683080066421
1,5800530549035
1,38589937047818
1,58310403877585
1,36586345988806
1,41390732114291
1,39250808865997
1,54038203079334
1,49544064136366
1,61443683234969
1,3861765057398
1,46394172015989
1,44385279809024
1,44992898674402
1,45221841634027
1,42700529758636
1,41091780001746
1,81704197659985
1,38833991557369
1,65882126976854
1,41514864650699
1,48455949851071
1,4505084121057
1,4687850116611
1,53555739204472
1,52886375121461
1,45788584301786
1,51820760418263
1,50448724440593
1,71249747481832
1,34757838357463
1,66219239939865
1,41430097008143
1,77732225330093
1,45232050775367
1,48213369572709
1,60601641739837
1,57044267407988
1,34834338660363
1,63098164390952
1,3901158795141
1,47518085613459
1,4065242797131
1,45494455565174
1,42633945859246
1,5264094825866
1,33766149678018
1,55731080373257
1,350343646103
1,4422240622301
1,42165130540931
1,46916387057024
1,31719103763044
1,53624785714036
1,32452639938663
1,53595149418207
1,36881027132905
1,46622405583476
1,39067754270355
1,49565558973628
1,32202275525004
1,47280619755938
1,50499181986188
1,36934277534933
1,38967979938232
1,61454091210154
1,37066990636331
1,56479284908182
1,42902443260173
1,43831925991395
1,41500593351652
1,53009434164503
1,42990964630103
1,69258910981846
1,39271130080603
1,49624952780794
1,43991065277131
1,41348981461552
1,50350899408428
1,39268796621261
1,42108173176677
1,56653082442009
1,40168220565803
1,40027997951418
1,39094561317519
1,4459479979198
1,44962433847995
1,68151122007795
1,3876582739843
1,45939293361728
1,51185148337202
1,5348600350724
1,45195372196871
1,50464351631722
1,37555433376275
1,45657177972574
1,38641423205437
1,59883244902734
1,39643704165482
1,46480311632441
1,45294609847993
1,68536737124613
1,37501076960194
1,47413597596654
1,38869793500863
1,39015940453823
1,34265417350794
1,40239869080255
1,41370086375544
1,55730776582016
1,35499927856456
1,46243961927685
1,43079370636064
1,48723481674985
1,41365776862917
1,43208999850717
1,29118185725191
1,45807471807225
1,45330323278685
1,49216279876304
1,37995524085888
1,40904122440033
1,34426758021337
1,51549435554752
1,40716325433985
1,36988285251914
1,40069215514949
1,38326261820583
1,40048022140004
1,4963889960478
1,39086481992928
1,40727812055885
1,41540122016224
1,42596482939089
1,39753724832126
1,40904121083734
1,30496996625424
1,36472217551885
1,37381143104895
1,38020019416532
1,40932652854219
1,37974639856223
1,28384168754891
1,33328835617067
1,34605268431337
1,42529222980304
1,46095461147938
1,31709551533836
1,31962836293077
1,38145143904309
1,29350151856462
1,3478489619857
1,31757535543727
1,40752514780275
1,37188794279959
1,323692738725
1,29882125303008
1,33417647137617
1,29304313925818
1,35486308290249
1,23141171872172
1,26901910113202
1,28424208475572
1,2994857101894
1,27439798803238
1,26292921303683
1,20975980202606
1,30351233328464
1,21653597580644
1,2716814475977
1,28575529740301
1,26728298243935
1,22655000209214
1,28839928848458
1,2592446836459
1,27139544604379
1,1990186578732
1,23077482923984
1,19248172289977
1,22007002505558
1,12257999016877
1,20672648903457
1,12835861413776
1,21273222962828
1,18242303995549
1,12706263672643
1,12582140746823
1,15757685489656
1,15047135048793
1,16823976169913
1,15976120284714
1,19177688372524
1,11698263862509
1,13327306341401
1,07548974541677
1,111542296875
1,10279185143569
1,1616986044479
1,10188370435454
1,1163962533949
1,06626068444568
1,08769587585215
1,05725555226932
1,04171797243626
1,07514281513254
1,02642121186807
1,02871421021287
1,05542016439702
1,0353511390206
1,05268465197776
1,00387049312661
0,98337610826548
1,01128016534642
1,02905616595822
1,0024608298151
1,0110354779244
0,963112953071295
1,00144755438654
0,972985631128422
0,983829882065067
0,959989730359035
0,990150300389403
0,941670883758815
0,935433201586249
0,940086506256009
0,932271207549728
0,929304615203696
0,932392913293797
0,921968444410514
0,93219194036405
0,896017198034025
0,886599235318049
0,888309721830214
0,89970512975938
0,878130477023027
0,882877041874746
0,859171226500439
0,873059355026367
0,866970140325307
0,856940551317628
0,836727491909151
0,871847391258354
0,847445794621825
0,8362154045338
0,835916085373063
0,82421403587449
0,818493019467669
0,814938857273688
0,801058276358821
0,814710300396869
0,797871586898954
0,800303705107213
0,80197513298543
0,794814349965144
0,773342920665989
0,7752308107502
0,767075476207444
0,763113850264337
0,756220737939335
0,741416029413999
0,733876480864825
0,756743547499911
0,734968632523912
0,735473171174804
0,716290453635906
0,724951577455474
0,721073291290923
0,720144957136159
0,708692952882445
0,704356557185985
0,694308109966216
0,706793642107222
0,685422234803984
0,684545310511022
0,668234054604449
0,676866525071649
0,654316684904819
0,673669865220522
0,653891249226234
0,650936253579124
0,65635352030822
0,636306483326185
0,629639303611977
0,637380256307201
0,629472867567888
0,631996841833617
0,621684002957255
0,613357653287529
0,613844061523229
0,6189497228581
0,601003240966788
0,602874188272298
0,597155437896367
0,595156974704875
0,585723992064797
0,601542000369663
0,577630653635333
0,581364124483415
0,575250348021779
0,566031709541225
0,557062093530842
0,558285313475122
0,55742286383639
0,56189080288634
0,544050756128399
0,55146834886596
0,542648006985471
0,551676723234642
0,533765255565342
0,530822684690377
0,538813683000907
0,530156905059877
0,521235788064263
0,522100800630864
0,512897330148977
0,506320758055341
0,49720101269667
0,506033524961674
0,492409829605267
0,501254096737108
0,495676618514316
0,49165948145932
0,484301896437724
0,478352424484237
0,480635897224978
0,477987424365003
0,468985276918853
0,471198673457999
0,468290433491983
0,460493587030591
0,451579795458064
0,451724470201963
0,445716938831861
0,453376100137196
0,432150916828813
0,440069259854363
0,442492953770317
0,430798287091752
0,427200977145824
0,428143621404385
0,419223369714993
0,430057023448535
0,41674092135213
0,423353241578889
0,417625162103612
0,410467057894788
0,415196931829513
0,404129593788309
0,39805811931719
0,40313777515801
0,392842918115128
0,397720298062601
0,393680782938649
0,39009260455385
0,386244066665006
0,386028028564271
0,377571513932664
0,376328615113249
0,378369663627626
0,371176738250436
0,364238639512873
0,36886105149143
0,364288843474471
0,361156981192139
0,359777869842062
0,360011712627224
0,355442841984783
0,355577263166785
0,350820831225873
0,347780873908611
0,340495157101256
0,348056435401699
0,336987045157116
0,339271037730721
0,336164569576624
0,334175221352317
0,330149823300519
0,326232380580495
0,32490094572527
0,317265737851466
0,319072966423428
0,317362366933633
0,314042086736541
0,3168017181936
0,310585593494389
0,309559663922886
0,301965596939124
0,302177449078941
0,298891277234217
0,302898301524076
0,295492842863489
0,297814348170504
0,298324732124948
0,29387719821529
0,28841843543481
0,287572292303397
0,287570369732719
0,281212491415882
0,27749973453901
0,28253893930099
0,27937158608311
0,277670184536669
0,271941526509443
0,276529998307595
0,272145233105355
0,27115871319823
0,267131967621475
0,266967013803095
0,260407553097951
0,261372299809812
0,261128177840425
0,261793789272141
0,260601960342267
0,257727770331085
0,248995337476944
0,250605390364238
0,251456071947608
0,248812544486511
0,248784422265562
0,247068358991535
0,244362241341783
0,247288483509351
0,239831675689691
0,238874040624323
0,243305101729297
0,244398324404245
0,236679687624122
0,239051321169606
0,232584872229102
0,233141902811468
0,231225509539238
0,230028539102802
0,22365890130247
0,225318669088455
0,219596420847289
0,223990154012195
0,226585349926489
0,22080516425516
0,218438084302053
0,217154722063882
0,212482486071965
0,212456571844999
0,208598361126321
0,210776269500972
0,21314275170272
0,211460821378765
0,203490089792524
0,207090314732347
0,205571849509164
0,200850307221506
0,201811261285521
0,200835179833835
0,19964872798004
0,205246876831751
0,196659272865772
0,194776338340253
0,195976412257748
0,191774305819305
0,18907024975398
0,194371845590107
0,191864075872671
0,187911012738302
0,187842878277753
0,184778834405183
0,183365476617365
0,185116297625163
0,176572778952311
0,179976521193581
0,180573710899476
0,180484424091288
0,17687641454343
0,179082048873
0,180625542999578
0,176935722841105
0,171502045744297
0,174905271123418
0,170053548362384
0,169339588359079
0,167891095156223
0,166918588281457
0,166050373098644
0,165944466170111
0,166448172829416
0,162989851009384
0,16119662964336
0,165799385913578
0,158138748967051
0,155107865964162
0,157773328014632
0,157053945518149
0,157610917889344
0,158332067762886
0,153920117909639
0,153853969927967
0,152861040509331
0,155523761841194
0,15442882001478
0,155035294244269
0,151331187401467
0,146094220945793
0,145895048057331
0,150651669669613
0,14794295993061
0,145854871448658
0,145283905719918
0,145523326633736
0,147706802914939
0,147311888612432
0,141990211191285
0,1400931508927
0,137507812042699
0,13867711581599
0,139403923650779
0,137014489523561
0,134173358074481
0,135292600023582
0,135790388196367
0,136067603100605
0,134584758436934
0,131967496076302
0,132437564215979
0,13291057163191
0,131168818641334
0,12802819908992
0,123080011909184
0,131555557639384
0,129021679839999
0,12970170379439
0,126456297295022
0,123864268850034
0,12226007155002
0,121792320345458
0,119897026745584
0,121572812668842
0,120159897878347
0,122660899081869
0,119934438969753
0,120891528656737
0,119575767503589
0,119116350482728
0,118267579418385
0,117205563758189
0,114692894378892
0,120289417381303
0,112370741342471
0,116171678539314
0,117641214819112
0,110254533704104
0,111759000875583
0,112666537564305
0,110630857604947
0,112550527864511
0,109954830034847
0,110325796001388
0,109643748728503
0,108047667800477
0,104731628897029
0,107760368968657
0,111107618994329
0,109093290075498
0,100690010216217
0,106786950407989
0,106253199711242
0,10383618324911
0,102879205095224
0,10354828327046
0,10281172794202
0,100289382152462
0,0964691340739776
0,101415117561313
0,0990490381882929
0,100672250257035
0,101091317534425
0,0987536409054709
0,0987930384600463
0,0944106072576229
0,0985346303470662
0,100425375553767
0,0946845667774959
0,0921793738233191
0,095938724591762
0,0937810848118239
0,090131788447554
0,0926384235226825
0,0908660083604654
0,0889293878238325
0,0885885868848983
0,0934550243237033
0,0960695240928368
0,0902978502053988
0,0916960277926301
0,092944802466258
0,0915107124555351
0,0888934727402937
0,0873987163020971
0,0904764607313074
0,0871213809484629
0,0874902618140045
0,0885153818363877
0,0898283024429362
0,0868793058548761
0,0852244457253114
0,081871670114477
0,0862580801654936
0,0870371929156779
0,0844229379807049
0,084405904002642
0,0867352510269577
0,0858119937725868
0,0845183595558268
0,0816176954418696
0,0815084340965245
0,0809247745518475
0,0833560293398538
0,0804304781647849
0,0828442773475788
0,0820014222186627
0,0836422901431112
0,081052425232743
0,0780606333791472
0,0755603254370789
0,0788492141096429
0,0808627475015477
0,0844958269070837
0,0786091232159169
0,0786410673457264
0,0766391838316057
0,0740756444983015
0,0761495753391205
0,0804998205170503
0,075579409492965
0,0805044727967454
0,0778159626188968
0,0740857637008489
0,0736403216167142
0,0749014391353771
0,0754889075389113
0,078127245799612
0,0756274804621268
0,0725431285852568
0,0733254006004852
0,0726501100155485
0,0773172597024299
0,0758219378733245
0,0758285255868637
0,0760896777587854
0,0748198197952775
0,0714829309790128
0,0675476938536473
0,0709104421439784
0,0739333790115809
0,0699325146271404
0,0679963636731127
0,0719812413932692
0,0710577652622726
0,0711688224217482
0,0716224832677142
0,0716938359840672
0,0711134024221497
0,0665145187817629
0,07008142836808
0,073180637822159
0,0651038479945978
0,0694975000007169
0,0688125555120265
0,0706081762697664
0,0706479986522314
0,0674427725770146
0,0687543608197251
0,071087941869657
0,0690939497760474
0,0687749152263511
0,0661727589965213
0,0616517571192268
0,0638242363501896
0,0678223972681044
0,0709140585709736
0,0683469488933068
0,0635978824409566
0,0652414308083543
0,0622174031650566
0,062194589702314
0,0664394977469146
0,0660747018270947
0,064693299368497
0,0650285238258488
0,063313694553133
0,0638169279373747
0,0631954928791613
0,0645148258889854
0,0657741857459346
0,0645674495466146
0,0642892488462243
0,0636834173493733
0,0651476125250863
0,0615308854414756
0,0669271184473896
0,0641755250609955
0,0620986665232143
0,0668191641768451
0,0614184732969682
0,0635979102627301
0,0639633243373158
0,0600616147966058
0,0625744297049732
0,0632275961252329
0,0644764906702882
0,0625654174167637
0,0647179001958662
0,0611349091904702
0,0621576108546401
0,0602580202503752
0,0605888954146989
0,0620046841744468
0,0593390389796749
0,0594952916567657
0,0606073014775708
0,060759056598392
0,0613947571097038
0,0579650688901902
0,0614198125167148
0,0596454446192733
0,0586931743252637
0,0597311814792851
0,0591960030925988
0,057504812930534
0,0624312078469856
0,0585420407878748
0,0602035854598042
0,0596239646995992
0,0580656352400464
0,0593110502139289
0,0555398402598605
0,0575314235551115
0,064464278430943
0,0590605246357864
0,0586707146702631
0,0586690093942632
0,0590827902298702
0,0580499584593493
0,0613510184226738
0,057291320802067
0,0554815761537173
0,0586669985210404
0,0563180295291545
0,0555529137913991
0,0566872895096854
0,0576821219553835
0,0575690552231173
0,0580436803273429
0,055502684249301
0,0576257345520999
0,0569421136177257
0,0573575229475018
0,0572104830967363
0,0583666110943607
0,0589529603928472
0,0570061631142814
0,061117945572044
0,0578941795800911
0,0541605257233418
0,0570817444866977
0,0590826603164892
0,0564729424209256
0,0553874656152741
0,0568688960512885
0,0586762226832492
0,0552361596519329
0,0566400950132173
0,057992982067989
0,0569158228398072
0,0567481806151354
0,0568371619456892
0,0574785713026801
0,0546550104283695
0,0554253489348435
0,0580993632931227
0,0592869089278781
0,0596587747509104
0,053958720899093
0,0568599238450436
0,0609680740848333
0,0548537268703731
0,0581226165681238
0,058057761158918
0,0557529895781784
0,0566660509801666
0,0545578679577084
0,0514253033931035
0,0563563285138924
0,0550078967125269
0,0551788389580396
0,0561424131042286
0,0581373632299718
0,0562362298015596
0,0532389924398607
0,05644943523703
0,0553670576319249
0,0558805129807608
0,0552840047971764
0,0551089110765115
0,0579800169728507
0,0563675066949075
0,0567095604376227
0,0555371663434076
0,0569799484034697
0,0549414559480929
0,0539742005621838
0,0539390611604838
0,0543014715185207
0,0559351134475129
0,05558773397143
0,0525537156378565
0,0571203470677976
0,054227628925776
0,0543210829679407
0,0563692584566721
0,0551458176909216
0,0569037645085667
0,0550042603726299
0,0544725348009684
0,0539504774085985
0,0573787611959509
0,0533121704564842
0,0534354853883305
0,0517511972542988
0,0547110052926586
0,0567335392204769
0,0552858230059962
0,0523941315525354
0,0560724547790534
0,0570602116801239
0,0560387985006794
0,0564831320913173
0,0552957853166666
0,0565048413717958
0,0577729770641557
0,0550305218904445
0,0537729130368159
0,0581701362907463
0,0552802630761443
0,0603290950191347
0,0583539514007813
0,0554662323876711
0,056998348315885
0,058546301041221
0,0597897892821022
0,0569942240734449
0,0558014800826726
0,0550877785643022
0,0568506233416071
0,0577247146624724
0,0571701295027889
0,0532274235524376
0,0557951020868361
0,0572732347798003
0,0576020720971008
0,054823719622446
0,0592950705951904
0,0552828557183454
0,0591027953451473
0,0594807218327251
0,0576174931520047
0,0571551402584307
0,0553877535677939
0,057559541591066
0,0593949222927819
0,0576531754331371
0,0585578077976737
0,0571594670469438
0,0582578038331708
0,0537558564804771
0,0582847675255898
0,0572770769016304
0,0555239102018404
0,0563189291490686
0,0578922052306581
0,0550333833138375
0,0548146075316573
0,0612409765378051
0,0553883808575898
0,0556622529553226
0,0558843413652467
0,0596272009261429
0,0540841959261575
0,0588746908955444
0,0587112628207094
0,0560490211360976
0,0600140993057458
0,0590583990373966
0,0598862835712187
0,059682776819748
0,0575058053432714
0,0582526947516583
0,0610271197002347
0,057932149388459
0,0588498924894469
0,0571847667149125
0,0595282208195424
0,0588668424197589
0,0615018143632785
0,059171727341422
0,0629807957142601
0,0590906659579486
0,0625817641360518
0,0594486484125324
0,0628453357580392
0,0592032823566265
0,0579426959325616
0,0588141657465432
0,0590635833322291
0,0604198234951836
0,0564178609458267
0,0604539962274709
0,0607562116812671
0,0590534527589381
0,0589261905509538
0,0603452903230521
0,0570429438600241
0,0623816782195856
0,0602598387474706
0,0611435220172268
0,0600108178492754
0,0616943256368652
0,0599190161627156
0,0615975990224051
0,0603015187158585
0,0613110089499813
0,0645434743423735
0,0616830285711393
0,0637502805872854
0,0578215680280112
0,0615202301738913
0,0605808863318032
0,0610641060922073
0,0601722650098258
0,0608697056359606
0,0619874162270106
0,0603656464660732
0,0612484771655765
0,0592952849757739
0,0630091545022202
0,0623122398249627
0,0591831184198847
0,0630577517756487
0,0628972745416495
0,0609842657261318
0,0607981908006968
0,0597775525024768
0,0625482203201815
0,0627966900432695
0,0632141949952221
0,0635906435591247
0,0617968622210289
0,0606714765288676
0,0615288886263508
0,062564638258945
0,0632930417378894
0,0633738752711911
0,0610646445604725
0,0638712702158193
0,063427625516843
0,0665606991301649
0,0630898778533017
0,0653690612844379
0,0632444396831917
0,0645585134027385
0,0657227170075317
0,0638214639207369
0,0648126960645693
0,0680718039193784
0,0625560113085256
0,0674300210600236
0,0641225766480242
0,0636624502478181
0,0638677567262947
0,0649625870780193
0,0651562799936185
0,0697552662016751
0,0656305384596432
0,0682742276059633
0,0644282703037194
0,0678336524360876
0,0649436688686083
0,0647445830703729
0,0664463493222893
0,0677628290817825
0,0651910567926624
0,0657626960899876
0,0680304589712101
0,0655427821088707
0,0671712732433718
0,0663964248377639
0,0698772967548722
0,0693264326105945
0,0662320456777305
0,0671390587158125
0,0674959618022967
0,0683437290293954
0,0703595311374235
0,0703113398811517
0,0656652472010103
0,0677778249185798
0,0651457654742004
0,0694069633479889
0,0684098538254798
0,0684955747510744
0,0691706420220289
0,0694134398934963
0,069704640484431
0,067224857014518
0,0679202098689072
0,0715060511007649
0,0701138511500395
0,0682423553735692
0,0674135585498404
0,0718004650373592
0,069648586777923
0,0696946450417186
0,068822431315465
0,0726898346035254
0,0703504560276574
0,0709973448329224
0,070203873627527
0,0711434941159827
0,0678611278605816
0,0714645901470885
0,0689401975731261
0,0685401704680842
0,0707850190414567
0,0735866745023584
0,0679774557308557
0,0744916473814854
0,0733799717190275
0,0728343244470092
0,0716651894809405
0,0730062466738816
0,0730315609212748
0,0751691179711388
0,0754836756333864
0,0750321955966645
0,0734797551539135
0,0750822463300286
0,0751797072280394
0,0792011309576339
0,0755933213124628
0,0836929238966066
0,0764528741838518
0,0827806815867058
0,0784777679731687
0,0799962540861059
0,0826177217349464
0,0793894685506808
0,0770684615342802
0,0844095840122791
0,0796519716268429
0,0849576909469448
0,0861849269553674
0,0865327074926917
0,0829467158757872
0,0870723023676321
0,0792317757357648
0,0855609265983014
0,0783747369424068
0,0872995889073206
0,0825739935110563
0,0837614101856837
0,0800864044816309
0,0812949388787934
0,0784899826344875
0,0797673446625519
0,0758465356760705
0,0811445964029623
0,0782403866050327
0,0815432709286874
0,0819495634820993
0,0865464909894456
0,0765459873907055
0,085157094441048
0,0847579435611578
0,0880620845549388
0,0782962388043879
0,08630641696566
0,0836881257169639
0,0811366788143179
0,083140354400588
0,0850761118300199
0,085827110886725
0,0847364573893226
0,0874833383814244
0,0833241878369989
0,0824589035182929
0,0822223601174122
0,0881444922784555
0,0852208383629457
0,087414754140415
0,0807763523197458
0,089556465983627
0,0806159182049936
0,096039937138428
0,0844719412334476
0,094894252159955
0,0756121361528212
0,104347920573984
0,0758875980378421
0,102875044418262
0,0731269025411375
0,104198093393319
0,0726098137211699
0,0954700996534419
0,0756090692151256
0,094178663366357
0,0794323907104202
0,0869637984242455
0,0907544107998425
0,0867382885177121
0,0884959093679136
0,0827682514703284
0,0901774671500312
0,0878462779350509
0,0880948583689819
0,0869092837705434
0,0855231457282689
0,089533250897517
0,0862107322174802
0,0904502625715863
0,0876036839174214
0,0894009173295096
0,0867422391378077
0,0890026420423071
0,0895634190835782
0,0909858805676877
0,0880061710627295
0,0896923417104113
0,0884199051395408
0,0885991319200792
0,0884193169985792
0,0913020541564426
0,0895518445103863
0,0909109374511195
0,0904800719883981
0,0907557948718513
0,0914478181351287
0,0914271299981409
0,0921240131569448
0,0911976503132161
0,090786302086494
0,0908546289586635
0,0911015104036936
0,0913654996908109
0,093464164068133
0,0937226631585035
0,0920235210647963
0,0937698322367529
0,0946536383647285
0,0935752940229191
0,0920350979869549
0,0961869018474617
0,0972519150438704
0,0959736844896835
0,0951450520236645
0,0968246870142645
0,0940204354621079
0,0945565258519096
0,0968577414423522
0,0943862595171769
0,0944309729840676
0,09732417699595
0,0973476300016344
0,0972165893818751
0,0984053910580951
0,0988551259238582
0,0953397357693175
0,098417113244192
0,0998359926590705
0,0980016536684348
0,099034892844591
0,0993802457753378
0,0990639161969775
0,0982346286228954
0,0968988306485204
0,0990838399015723
0,100963205016537
0,09948423782623
0,100367203918565
0,101722729465746
0,103070815574077
0,0994859809686147
0,101678668281751
0,100223309527716
0,10319966066748
0,101357182158735
0,100971673544554
0,103453153747914
0,103084341853973
0,103717188361967
0,106060891404717
0,104576038829465
0,108415595729325
0,104343250373015
0,104434905180046
0,102828521205925
0,101977789251432
0,103535062304791
0,106505542720804
0,106302697921955
0,106713357222555
0,108541336472458
0,104166238698462
0,104889477478058
0,107623241317233
0,107165964114593
0,106590799276588
0,106283974044662
0,109623026849159
0,107644811261549
0,108002674925455
0,108063772658333
0,107984757409747
0,109927277379425
0,111785239297587
0,109889942638275
0,109173939133151
0,110311222472064
0,110954301072987
0,110850377268745
0,109363454778248
0,111008132122035
0,113284399070805
0,112080283380442
0,111411690262344
0,113753681443029
0,114073225640584
0,112426644651205
0,113805034320622
0,115089515105495
0,114739667517236
0,111551127538288
0,118370505238132
0,116254420944335
0,11338529970349
0,115670906492672
0,114625572298716
0,111781124523133
0,116138302252402
0,117304858351587
0,115415289405927
0,117010121342926
0,118448827443411
0,115582086651233
0,118983675947061
0,117672622030467
0,118237856526721
0,119158001036744
0,118121009199895
0,11799462416257
0,119075980015159
0,117226058147571
0,115817847749652
0,118135831599432
0,117833302139827
0,119377544716699
0,120441119609141
0,119228152020195
0,121418326510727
0,119559281446389
0,119374072468816
0,119772651885777
0,12069117531522
0,120801746917936
0,120875217275219
0,119233410583877
0,120819791056587
0,122777049773774
0,124540363249721
0,122616826960181
0,125432238709702
0,12372656912013
0,123266998807553
0,124912526197496
0,125707894127007
0,123900118304625
0,122730538188868
0,121358136156204
0,124977226894886
0,123048729461158
0,123563046350545
0,122904176740392
0,123626816643851
0,123953236047571
0,124387609563823
0,125273331285464
0,127326488192096
0,125697578097083
0,124046476341576
0,12826234205764
0,12572093266269
0,126457227202226
0,128017277714198
0,125660605359855
0,127489162615837
0,12594369621328
0,127679528830034
0,126108040380301
0,129198486793629
0,124233641383709
0,126197934511833
0,125052175187274
0,124196948162241
0,125823030090769
0,127946463649117
0,124890534604877
0,125785424743939
0,127071694847201
0,12647343305884
0,127449546635103
0,127169721109197
0,125601813016794
0,127848316974738
0,126946022713673
0,127741541868904
0,126894743657163
0,12763655664046
0,125432282431042
0,127213733932419
0,128218963303998
0,128647772275601
0,126398654971284
0,12571436877902
0,125951672107889
0,125044898660436
0,127478687105715
0,127595631223005
0,125635214865351
0,125672871714905
0,126510997646928
0,125046117506382
0,125459526366348
0,130819188146339
0,128106795813604
0,12415640284847
0,124888539384174
0,127640679454912
0,12454181364736
0,128472725404322
0,126943751624905
0,127645844815903
0,124780093176471
0,128467408281638
0,124145164807742
0,126630883880581
0,125192880349993
0,124351925865533
0,124116630178104
0,125365779835811
0,127024877355736
0,125896510926837
0,124164953875022
0,126190508365666
0,12453050971682
0,124273176291888
0,124545014862848
0,12504791794611
0,122300420496621
0,126761062060834
0,124936066683931
0,124094030572431
0,123914199883091
0,122466551435761
0,122478365729894
0,125433689488515
0,122796520125456
0,125746780743541
0,120686646784226
0,121418107218065
0,123430580286771
0,122584251092409
0,122981302596541
0,124819994147677
0,120034397879057
0,121626342937614
0,119440326528075
0,122822151325842
0,120408970038055
0,119030043298691
0,120222870048779
0,119699752284917
0,120062452321429
0,12183236457255
0,118654854966412
0,12048875831708
0,11762459628353
0,116321233036759
0,118603066858348
0,120049749133653
0,119217335477732
0,117627449584485
0,117976378114873
0,119905664289982
0,117302674218274
0,117430479824162
0,11370011735243
0,116403395184719
0,116625415377287
0,11563290378775
0,113392868128555
0,116650327846309
0,113601477049155
0,118694407838474
0,115452425998555
0,11457004634307
0,112494120189385
0,114386744292459
0,113643796634424
0,113149146826977
0,112408601241496
0,111359251520666
0,109640268049482
0,113831210284951
0,112705732998179
0,112685323050623
0,110652253891212
0,11075692214588
0,112241180880266
0,112528209370518
0,112472462955704
0,110921411794169
0,110172769920284
0,110111728008411
0,106805088172435
0,109884914322379
0,108833810129995
0,107868977127322
0,10927960182036
0,110312453976933
0,106618701217477
0,106591718739355
0,10624045649722
0,10724500373455
0,107184822091342
0,105944047559213
0,105784515749112
0,105378123748523
0,104422896618522
0,106199866964594
0,103306869173645
0,102821407725048
0,102680174562471
0,104162878484055
0,101916170103484
0,102276837809287
0,105163343687661
0,104401652458549
0,101435766220937
0,101400997264807
0,101584534329385
0,104084875029107
0,101175896654353
0,100683377672756
0,101784699689867
0,100879716932792
0,100784752989208
0,0969807190154415
0,099504428967224
0,0995354093349001
0,100080766955395
0,101473933586547
0,0972187395817566
0,0985348552011848
0,0993558173840763
0,0997083521246945
0,0954049048694725
0,0978572261890273
0,0993802155021619
0,0968947030263308
0,0970499707036269
0,0969938988644729
0,0946607083002235
0,0949372274361304
0,0944549827004365
0,0959634041217353
0,0954790207629286
0,0937048214497817
0,0959643754146639
0,0960686838519958
0,0955712495207783
0,0943011099422395
0,0935319408212503
0,0944307491247136
0,0924251547933515
0,0926616344451909
0,0903999489437239
0,0934946564304017
0,0936192043477584
0,0914403507152276
0,0901304545673617
0,0920365575244527
0,0917554790128873
0,0889492190442359
0,0901448450683086
0,0897339901193601
0,0896357810592288
0,0909843579896056
0,0889118005441106
0,0906843576604999
0,089359242622878
0,0899348513857314
0,0882643608289198
0,0872819721297217
0,0892056324698496
0,0913989145772198
0,0856739465728819
0,0893327839379741
0,0857016942207579
0,0875249312462323
0,0859406553762367
0,0876833129550669
0,0862881409526856
0,0877593407281347
0,0854367778994217
0,0893022150287953
0,0848464966687456
0,0860867090608673
0,0860944103834807
0,0878163479273452
0,0842724728251992
0,0841333595801324
0,0859165620597362
0,0856837266565181
0,0853542515182106
0,0864387232658096
0,084646420236031
0,0862061592245791
0,0816828218954055
0,0864685572349251
0,0846001922201966
0,0879809829823112
0,08289972973894
0,0840447647275841
0,0858950907466131
0,0858544832890051
0,083234515204459
0,0834479250952214
0,0865632759086148
0,0845351935706612
0,0833116968328591
0,0821246630490439
0,0844424194689675
0,0830809649328303
0,0831180314844937
0,0804878594260984
0,08040713645889
0,0827011973248493
0,082198384741608
0,0813352332582665
0,081055275410158
0,0822297247846974
0,0802970295284167
0,0794325639149176
0,0807584026509426
0,080904690066669
0,0821815567469953
0,0819842351486935
0,0830185214198635
0,0802073891751503
0,0796454901085302
0,0828192687550253
0,0846245223973814
0,0796490738065764
0,0833722970561164
0,0770904511713496
0,0772571622154156
0,0811088790910349
0,0796049761819575
0,0790729624380686
0,0799866858637955
0,0796837880509684
0,079162840253721
0,080178855731822
0,0784997416519857
0,0812783052483892
0,0791826738469076
0,0793336469425795
0,0811767201416893
0,0807699585634565
0,0792814716711293
0,0827565160394733
0,0802172897655039
0,080079196334394
0,0794764900855909
0,077665916336962
0,0795667513236324
0,0780559315658278
0,0790449763398472
0,0798143436687426
0,0814341393592661
0,0786318412409111
0,0820236400097253
0,0790136768702127
0,080927391079409
0,0820059742029567
0,0818932168374537
0,0793081939294233
0,0818730260162621
0,0777122779343582
0,0817030665785059
0,0802139366850049
0,0792368094356373
0,0800638645680694
0,0821282508411387
0,0799323984904617
0,0819698032422688
0,0777043034722478
0,0820410281832854
0,080798642342296
0,0846731923283965
0,0866717986136068
0,0779174824790925
0,082474365440284
0,0769384679703012
0,0818635853432096
0,0800494528877106
0,0828455062511356
0,0837363913716535
0,0818976434946722
0,0822948811079958
0,0827017107561113
0,0792745759223396
0,0832294479415332
0,0822843256723601
0,0829434314913748
0,0862445364360355
0,0813133028267871
0,0830546546180622
0,0845599645183004
0,0800255392263433
0,0910492513029896
0,0819722864504029
0,081788188181277
0,0818823084169765
0,083838066214509
0,0861544872300264
0,0846585516667474
0,082043747309964
0,0832937058034541
0,0864990624742508
0,0872776123489223
0,0879434510019493
0,0833623843239047
0,085527953514911
0,0866439278266379
0,0855928389794806
0,0888695337932487
0,0870931029763346
0,0881934516449717
0,0888439222633092
0,085922216087252
0,086690781841223
0,0883792024520062
0,090669123576227
0,0920286812847919
0,0929553857741579
0,0891819337019068
0,0916400719197284
0,0919173066822316
0,0912138705482437
0,0912491549743944
0,0901219533885639
0,0905545482729043
0,094343003032269
0,0943656157114477
0,0985746915634578
0,0887876352746914
0,0993619298405005
0,0899019955148088
0,0973346835150973
0,0933102758530211
0,0970052913047918
0,0963397754830546
0,0986680276516423
0,0975159547260843
0,0969148640496822
0,0980081400361358
0,0946895920298143
0,103056254321533
0,0998772720237448
0,100383573557494
0,0998038280224431
0,103020579104288
0,101993854478129
0,104956792778722
0,0980766483526449
0,110966699807108
0,107661160900646
0,104816515047898
0,109498960969033
0,10622922350784
0,11405798425114
0,110293560658525
0,108392091875284
0,11201796189776
0,111463236783305
0,114883989939454
0,113340897877818
0,119954725514774
0,112739288441065
0,112824063764843
0,118784191897661
0,116464145814524
0,123087554174338
0,123725559382123
0,121984347688109
0,122331012011908
0,123359799213715
0,123256839118318
0,123049182327244
0,13536694586838
0,122849241566695
0,139257854187445
0,133391426869293
0,140252347077271
0,134322162270854
0,139926052821425
0,135571783318998
0,142248964037894
0,138547367439097
0,14097024551568
0,142680229454248
0,151511875967283
0,143786818344399
0,150329976054985
0,149726638639698
0,153726757611022
0,15759639875628
0,16176394716586
0,153991708599863
0,162353938603851
0,164780648601267
0,169000251316279
0,166063506334252
0,165797795286424
0,171064440148188
0,173789423074333
0,177461759968991
0,17705226538541
0,182257236180472
0,186212040142797
0,18545856046442
0,191495930332478
0,186825542616663
0,206771837168354
0,20265199945511
0,208353573016818
0,203236498425875
0,210205046763131
0,221932190715534
0,219891888129804
0,221172134819596
0,222806145377331
0,232352664469395
0,235295982896459
0,238347926561356
0,241140184194708
0,242315962129598
0,253332243201799
0,24686812707059
0,263132290681876
0,263205181834178
0,269666040943337
0,263352529300211
0,309591762494172
0,294279622499792
0,286292618924783
0,296872143000194
0,293067395937753
0,337744030446577
0,314660943529273
0,315357784754398
0,322923304772775
0,330389760437442
0,3312899360684
0,34492455584125
0,348389617516908
0,357973363890612
0,363623334516882
0,363752626844713
0,371301134233458
0,396895926252569
0,396819765757749
0,406298135657807
0,394194301305465
0,413644928483937
0,416946175015427
0,418529132133324
0,429823233633378
0,433435386450485
0,422649188189213
0,473699988387996
0,452594304729313
0,460645637012391
0,46437473534996
0,484146331017138
0,478841002136557
0,491003035662709
0,512960413712274
0,498856319301505
0,51314333156512
0,513900577876639
0,530361492746689
0,528247624066072
0,547280049018129
0,554998332368999
0,547472762568753
0,565245068291259
0,56489264585311
0,574803669563316
0,579457308385877
0,590532786417365
0,59073914099338
0,610994320334567
0,60033935772917
0,640131840402817
0,639161250154376
0,61085683274868
0,619699609397962
0,633578168173967
0,660298305387401
0,645456735903326
0,646815049545861
0,667179798610261
0,652029203975404
0,669635890390963
0,669183064381433
0,67388073142881
0,68094922692419
0,68991105730354
0,681563835963646
0,688699398440542
0,675247741664223
0,69318804068392
0,743165903532159
0,679404344906215
0,677302956515157
0,6818288077957
0,672253133590168
0,677965654276519
0,678427869328491
0,671263649171725
0,677139329935556
0,652283978581486
0,65963335987026
0,646251393022321
0,642562851882914
0,668054954602085
0,625650126764958
0,612941708437894
0,610173867833668
0,613923083379724
0,605158492826254
0,607749041214928
0,630816910375539
0,586277826056866
0,576541027282601
0,562069818547384
0,54665047715319
0,546731850070615
0,548272481811859
0,54804494738668
0,526971766435159
0,514401754198232
0,513561832024292
0,50443404455291
0,499329784461248
0,491907367008996
0,477746006394148
0,477635555313799
0,476092419840957
0,461771947258447
0,456357514418418
0,449144010646588
0,439279844965859
0,441106488635741
0,434219764844844
0,42784640788536
0,426632451431206
0,418983533814126
0,406643891433292
0,408219132407004
0,400676414512483
0,393655081388463
0,387937075012357
0,383670231890936
0,377536530495978
0,380071091359927
0,376178410322298
0,36508002760295
0,359478226836645
0,360252966063401
0,353298110902746
0,354944801022255
0,347611935584702
0,345962500463948
0,353086858026533
0,35194889970217
0,346300863860076
0,335609332984297
0,336170228720987
0,332844422304825
0,328536314594348
0,322573293821846
0,322066074163903
0,331784360402825
0,3174144077165
0,315589257829496
0,309756078642866
0,31802608126252
0,31550262610906
0,308170164565915
0,302299135136982
0,301571011264895
0,294019036425283
0,315635068817393
0,30484961955485
0,322728878991844
0,295796048117714
0,289989422932723
0,293397056770105
0,301179977503173
0,288337378074362
0,283270938137842
0,285237836701436
0,286855773416254
0,28896310295757
0,275552307152158
0,280240840496619
0,278467501543999
0,27715247948088
0,281067716206613
0,276616378961991
0,267036883891099
0,272504792325015
0,263308727150942
0,274131179654252
0,288453582318926
0,268466913080813
0,268169202226369
0,260925176831052
0,258380946490561
0,257055143488491
0,268166272978409
0,267007650952937
0,254707855660628
0,257718171805624
0,256051285459308
0,257246661999178
0,258305367545731
0,259436158560774
0,25401281810023
0,253505887067185
0,252020157849127
0,246982581404071
0,263091629730766
0,255144100985809
0,256350998136157
0,244087458469822
0,24571317584847
0,246645597379003
0,256413509628359
0,248217683075779
0,242702549322645
0,238882858014997
0,24667325463443
0,239818206192294
0,239510130798341
0,233970286446913
0,241655471352548
0,235897840991895
0,247338670003056
0,247169308472667
0,2384389446669
0,236182602119657
0,232919912127668
0,230883202488938
0,232805374549727
0,227949404006007
0,235477165275376
0,233197867414158
0,232131605748996
0,226223275832956
0,236663195715287
0,230535471632539
0,226488437641587
0,225356520305341
0,228876598093444
0,223181968319492
0,229825024761852
0,230197700309192
0,227216109981977
0,227093788917992
0,229613799908622
0,224625370261239
0,225158306737318
0,225762017691557
0,223212851159366
0,22667347223265
0,228323374437992
0,225697643488572
0,223448069402145
0,222757411723058
0,226553519228457
0,227785723986648
0,228932596555968
0,224080854558202
0,228337988443368
0,235206779893844
0,227229103937742
0,233022134807544
0,221538852766177
0,221779859848486
0,229344261053543
0,228506459388686
0,224501920187404
0,224453024050169
0,230498045641239
0,226654061990038
0,226738600612449
0,229486803018443
0,222145369575151
0,225554398023491
0,224046795807406
0,235351846337586
0,237855058183177
0,232526624170898
0,223238406195977
0,224357062965186
0,22299723365127
0,225310187590097
0,225272629004873
0,225772468539943
0,221559467319571
0,223992223367212
0,22733529468292
0,222014085954126
0,228344539404204
0,227310721422591
0,226910018094534
0,225258206172848
0,221254343676076
0,224894795212054
0,22689853284697
0,227533214631631
0,223482242199896
0,230252570077781
0,228232258402632
0,228675347945835
0,221762334151591
0,225575097886673
0,228706343094213
0,226821157159247
0,223773229156138
0,222974956250572
0,224855136081107
0,226918580749868
0,222804981229159
0,224589096281001
0,224567907671358
0,22794340519894
0,222932503131495
0,225102243751613
0,217851691619499
0,225843867011945
0,223468230960386
0,23209680405427
0,223429249604786
0,223128106042035
0,226556464134445
0,223149801772348
0,22700584728653
0,226445435871833
0,224748788090252
0,221948275091963
0,225757201638748
0,226128628994761
0,224757775216523
0,225031810763106
0,2234244030922
0,223311444882352
0,225501153541186
0,225556481449349
0,223635539419895
0,222904706963273
0,218251840886246
0,221386213717211
0,222968293158986
0,225085481307341
0,225789866089231
0,224015946837854
0,223663179569006
0,227183778250868
0,22207742498335
0,221116596186916
0,218966318655699
0,221967000772716
0,219842960026415
0,221964036393004
0,227153735250917
0,223625574328253
0,224461488722015
0,218997797474916
0,222780569557861
0,221933635403707
0,221338000952641
0,221934030906389
0,225370974169344
0,223197118651195
0,227520101572083
0,221335742970785
0,223799073551805
0,222022792139392
0,224559784359699
0,226088867585411
0,222733542992787
0,223281751236202
0,217609337586162
0,221441955270413
0,222106331098976
0,216378966827725
0,222566202450918
0,223755301820533
0,222238628894524
0,22085302840319
0,219940003270792
0,215325073710034
0,224039408548575
0,218455667201122
0,216931231067069
0,219051870928224
0,220750135559767
0,217622559746105
0,220628720667829
0,217453903307525
0,217968700359638
0,213968598702454
0,221487328967105
0,218972196230192
0,218159620580397
0,217912007172317
0,21644061491082
0,214477321616567
0,216960804739865
0,216153323853437
0,215372015208114
0,216256465484054
0,218745047873445
0,215623010802097
0,21590759120785
0,220047207718845
0,21945892017584
0,217407938412371
0,218127119625868
0,220215967001179
0,217371190713092
0,21752264798966
0,213986878215074
0,215554226198121
0,214908196243101
0,21576367866565
0,215250315781564
0,213121672085013
0,21693190885205
0,215266459618627
0,216208635593624
0,215718190678527
0,215028144272138
0,213143176082357
0,215463052187466
0,216434780551714
0,214319328112977
0,215308785922094
0,217701419197828
0,212614045773648
0,214529411178111
0,211354144491303
0,21526637472544
0,215009569779213
0,215159494986429
0,214646615092021
0,216287555673173
0,215645768820471
0,216332300954632
0,21410939219815
0,213170201980634
0,214444751415112
0,213937518624959
0,21368554097305
0,212930047744316
0,21262735644245
0,2151962154435
0,213308185364153
0,210432653076901
0,212211503156628
0,209860650502083
0,212511288644424
0,213594897604299
0,211764149040882
0,212007267223424
0,208674508469114
0,211032628653461
0,212795093923531
0,212009369951203
0,210613802902978
0,211630699027439
0,214000938592771
0,213445392217638
0,209980120988203
0,213093005783371
0,213121315198772
0,211738349714971
0,211012301126861
0,211310648142148
0,211502599683052
0,208413882379919
0,210955237974789
0,211206068140592
0,211283109819424
0,20999677332678
0,211036502377154
0,210060969357361
0,211184818445333
0,211746793990947
0,209533829287149
0,211803288928172
0,211537088613271
0,214951973297417
0,211745620538366
0,21165949820981
0,215445871393458
0,212695703974514
0,209189034286532
0,213135313492089
0,209670959324348
0,213349887153261
0,213635647431122
0,213234317378706
0,210215357950147
0,212828489707645
0,210956675560606
0,211679002592242
0,213651145359933
0,212873688339429
0,21072951749591
0,212097907871864
0,21203162986698
0,210228018826003
0,211015115523949
0,213092868053852
0,212946288106716
0,209245621785412
0,210483323837235
0,213247564435091
0,210609281684849
0,208682139667575
0,211099825083567
0,210682482934218
0,210914755976739
0,211394261063271
0,208922018556428
0,210051472708813
0,208497354564192
0,209868971050975
0,20889427023946
0,211833073215781
0,209396344340562
0,210575802389523
0,207899763322946
0,210271481817089
0,208018442158189
0,209447313039097
0,208295293389055
0,209216598329761
0,209986412813215
0,209009167358506
0,209896754800279
0,209389250281813
0,207790001870178
0,208176757977235
0,208772348282718
0,208121991010134
0,207779758548475
0,208720978845224
0,206671685885024
0,208244509986103
0,207434662506473
0,206601521146047
0,205385470200353
0,208175082652836
0,205836517705016
0,205881034671159
0,205820555870685
0,204470592311126
0,204674494362809
0,2057137861787
0,204969018928928
0,204537146159214
0,206195448379243
0,205282372153251
0,205208304462868
0,203381352745511
0,204659786935808
0,203959848190961
0,206915980557593
0,204512502666327
0,203393206732029
0,202955737868372
0,203609848454155
0,200627177968427
0,202817220623207
0,202967047021129
0,20219619784942
0,205957414699479
0,202533599477676
0,203423312760372
0,202217349740033
0,201569498231561
0,20196310954838
0,203480738860469
0,205048750103074
0,206235989655117
0,203440829734745
0,205355626652105
0,205653492537248
0,20706451395962
0,203496755801167
0,205507840582536
0,207456961766543
0,208107368091143
0,209849551038706
0,211031053039792
0,211438657230476
0,212353344393971
0,213515802092254
0,213895420843219
0,213961121982438
0,216415838335512
0,218314422013422
0,221100704142836
0,221221001796533
0,221138876731785
0,221780096313688
0,224780843184461
0,223932046795195
0,22481584495039
0,22493669799465
0,224714572770118
0,223620043662548
0,22646955747537
0,224911612475024
0,226315302548515
0,225989077969413
0,225227694227495
0,223214353525444
0,223313578840475
0,223374880110043
0,225415127487106
0,223461202823338
0,223583708295943
0,222498255263314
0,22366022425206
0,221668758557156
0,222260474834817
0,222546934080638
0,221270500075431
0,222055896816837
0,223108593906965
0,221024879076562
0,224019525043552
0,224365902562677
0,224465705662882
0,224479663085073
0,224221128486177
0,226033787644246
0,227530390993952
0,226684426256896
0,227638458544326
0,228411895108835
0,230387183533329
0,232063333827012
0,231712614567255
0,230897017341706
0,233596351646079
0,234984292230567
0,235538951643983
0,237365110155438
0,23826047957507
0,239546891926248
0,24043896926848
0,23657280291346
0,238943474072652
0,239252338150462
0,237022712048756
0,236079736116379
0,236126626916659
0,237206220051414
0,235813854010144
0,234358261061759
0,23578160994777
0,235111185623275
0,234045799673021
0,236872338109566
0,236024624902785
0,2386141198985
0,239835334259738
0,241918461017524
0,243471780386863
0,242182482553026
0,24588117313438
0,245001873024476
0,247385406164569
0,248074252398997
0,251275440473807
0,251024813646877
0,251841000104289
0,250822864454267
0,254857481777489
0,254726675180813
0,254379035938917
0,25730522860587
0,261045284062761
0,261126063798642
0,261401665561759
0,263533161309242
0,264587414346918
0,265182293873263
0,269354253506364
0,268410170779248
0,272340331494031
0,271853101980432
0,27359031096576
0,275448427877508
0,274824781479453
0,274187023272637
0,280553833657118
0,279412368865883
0,279134758654287
0,277684473343063
0,280067832872821
0,279250667585244
0,275361336178377
0,271915826025831
0,270539308146692
0,268894895806081
0,269912199270653
0,263368723909505
0,264210906098198
0,263923237219093
0,264105001095958
0,263235702339268
0,264930297427038
0,265500604666305
0,265660134145413
0,26459189198307
0,26706588086111
0,265647322131595
0,263721233780734
0,265264632640483
0,265834389223674
0,271119430297447
0,270717933981974
0,269251792716601
0,272034828667436
0,273573967260093
0,272261852806971
0,272230317140068
0,27627312551686
0,274317569843927
0,275879454830342
0,276814904004112
0,275498260918964
0,276941414071795
0,274879606517366
0,27865757749267
0,277202909845675
0,276325973175377
0,278840098035185
0,273720752731198
0,274227100354673
0,273822094447444
0,276883752151393
0,276625179396538
0,277132026393979
0,272371107744103
0,276986924106243
0,27353211262552
0,272500987713524
0,272519531358926
0,269084189693277
0,27105491110329
0,27037946705924
0,267797134230297
0,268065152810824
0,269923278657956
0,265651426266655
0,265372639543586
0,262162834071241
0,261815485715059
0,260242620161786
0,259180316823732
0,254743624773686
0,253683647815623
0,252898053152729
0,250268236630076
0,245067392859891
0,250945296782589
0,245196665542509
0,248554578997925
0,247205402152575
0,248279470173819
0,247094104924507
0,247199029130616
0,251182648490346
0,246961473911075
0,248809178855041
0,252676974113736
0,253944461240496
0,253088994369895
0,25222085225603
0,254368262858736
0,25328033577145
0,253077385280639
0,254698856986719
0,254376607151446
0,252045266274175
0,251462082620842
0,249774525674138
0,254955103191011
0,250770680458299
0,253073910196398
0,252347670043277
0,252580176148996
0,25063166957392
0,250432916299556
0,251797150847986
0,254249955402817
0,250452030548739
0,254765978976696
0,25492082865896
0,254776071834803
0,255088090107574
0,25231570775433
0,25220649993802
0,254919057429315
0,252229985273693
0,255963745215815
0,25391275188341
0,255185428021455
0,255008948570796
0,256071083445018
0,25717839998161
0,258894320526829
0,260414790162543
0,25812171776417
0,261594665095859
0,259126590092051
0,260600702490893
0,26360496871436
0,264367597543607
0,267575534362267
0,265602086450701
0,270376976968497
0,270960748482553
0,268764225669084
0,267701771969953
0,275294931422776
0,276404386996601
0,275338621547419
0,276733765582278
0,2791434399458
0,280196845517231
0,282593455373427
0,285108694834524
0,278720538810314
0,282728486519892
0,28642738975923
0,282701754806225
0,28687616460722
0,289207346295121
0,291780123840246
0,292628132566571
0,29447511768864
0,292207625017956
0,292768820429261
0,2960329660558
0,300014630315089
0,299638445495071
0,297971564414107
0,299199563702139
0,305669049356776
0,301534770042058
0,303547899337993
0,307093329090139
0,311662596589202
0,312239325318112
0,312156450145495
0,320517322383152
0,317992757766086
0,319561632322608
0,32559151136166
0,320084193842489
0,324700667583718
0,325651560352696
0,32986408489636
0,339151619866349
0,336078510188468
0,338095468579197
0,339449826929904
0,335369672352457
0,3435478268311
0,345695699274182
0,347538244985557
0,355781905885036
0,360870788055079
0,352922863307832
0,353956792493629
0,359386620083496
0,360517811983147
0,360837514356548
0,363829425701094
0,365187090225175
0,370693684355301
0,371713666862751
0,379082881326695
0,376994927007928
0,383916414548578
0,384141710926608
0,384879537538934
0,391307713802787
0,389540081611109
0,390714494139625
0,39939893276142
0,393699929029895
0,407447508916517
0,406870749841574
0,412507118868944
0,402227748131994
0,420825194683732
0,415983599366897
0,419726199181
0,422412780699022
0,428702462597642
0,429808487123742
0,428550826169412
0,433119803904441
0,437348839025095
0,436878233110404
0,446711467978011
0,450412428732237
0,450882427151411
0,447364205733668
0,453202567101467
0,455953411796043
0,447613151965746
0,456160730785724
0,462095129929952
0,470575620382669
0,479827763815828
0,468082316803363
0,47338911884727
0,476790110038131
0,476961340384187
0,476515449217054
0,499484090729253
0,49254478455036
0,491749784208475
0,495571893805775
0,501543436369133
0,504665632838769
0,519992155776038
0,508352180651123
0,51383573751158
0,51401771198432
0,527859486942653
0,52293249730268
0,521353387886175
0,528752178608008
0,539672044941667
0,530685096974199
0,545520921909636
0,554428811739593
0,554995395178987
0,545953969516327
0,55379923637763
0,555000577882286
0,55446371472368
0,575202810247176
0,579101981430056
0,56440656766803
0,577785140390876
0,578556003962639
0,598098206360396
0,571519347869534
0,595813994573868
0,600110762524446
0,608933442146
0,591212175155685
0,597168237906277
0,597446907324499
0,61550864025671
0,622272810877118
0,611127688658657
0,627707349592231
0,634565293595644
0,610100186114156
0,633242987923307
0,651780167714404
0,646308027771523
0,638685677896166
0,658025537914355
0,634542781599471
0,64824041429972
0,662340533855067
0,660339739847483
0,662381197707565
0,684075415039516
0,655397345924078
0,654333318071521
0,67176744888921
0,695322583901586
0,679036869750974
0,675044579023523
0,677108914782754
0,692184201779865
0,690763189678026
0,720414249902557
0,722041879651142
0,734230486633402
0,735886590030452
0,74123240918553
0,721946467857549
0,724543139184744
0,732265465365065
0,763387460697053
0,73470052948463
0,725465181184615
0,760998273937394
0,774404439559262
0,759395003880442
0,754106963542278
0,748273606770772
0,763701990881757
0,742415129902604
0,826919557261336
0,806052555273746
0,808802275440344
0,842349034099321
0,836551764145248
0,76009046863005
0,799234645617339
0,778294011562692
0,811358877861686
0,824950126944729
0,867803919820063
0,800043572243572
0,829882133772503
0,816150785224855
0,831753944608829
0,80645660492965
0,799687106646852
0,81655961599462
0,816237276796063
0,862518430845905
0,851136894219832
0,813284174185997
0,824733074410685
0,872959580921428
0,854661173421083
0,848928198326138
0,831870668282757
0,878501831040456
0,892248093176222
0,848557855211922
0,959236316392198
0,898470985496293
0,894810539254567
0,922140373155942
0,955617340345243
0,945243621025581
0,902159051121972
0,837535564935378
0,882055434246787
0,914579397090752
0,934897486303605
0,915880859633102
0,907511337002051
0,925074202770492
0,87894485826544
0,886397545883259
0,95450695680082
0,967956264233127
1,01851317392418
0,94493734601588
0,973139198411185
0,934900747133229
0,997763807474472
0,919676023123512
0,967251486597558
0,937933206633562
1,06046757670354
0,930742680696849
0,959124447234763
0,970803047400732
1,0271454920249
1,04546191227092
1,00763742480406
0,903199566838483
1,03782494157761
1,11196721862808
1,0587013601713
0,971683940314321
0,970928380812748
0,96755233635169
1,00394766461121
0,906487470256523
1,15683827496413
1,08636494179849
1,23529655019362
1,21346160671404
1,09119803780055
0,985728081651879
1,13498919644792
0,89222285793773
0,924577804642695
1,01413085835702
1,16298070015588
1,34748771479809
1,28794066944626
1,17693327782869
1,15770747017548
1,10463181524672
1,25068467521824
1,08181543950605
0,984416432547068
1,11886513613131
1,33913843019682
1,10609114484973
1,4103151479996
1,19595161591045
0,999746416042679
1,15968209261657
1,19830092547093
1,00361800682674
1,18044116315276
1,34463359607941
1,06969150102737
0,937030511627318
0,948790112196835
1,0535777360663
1,30932352835897
1,34175936949688
1,62471625074013
1,5600862698308
1,14568648637294
1,07397047563195
1,38988265030662
0,997380012052849
1,73415152251587
1,45524931208044
1,36225337637882
1,16253250436228
5
1,29159579635221
1,12036675985594
2,89129135651189
5
5
1,15840432173913
0,992483113849744
1,62180219979143
1,00621946252145
1,25737139465027
1,92070660466075
1,03724273926344
1,24806363891041
1,41668764622661
1,38812599885934
5
1,14690329626684
0,989005830972854
1,29608576583852
0,983904924495807
1,01478269936414
1,31043563044546
0,845149975058709
1,28041676469876
5
1,02156154507018
1,68986740981289
5
5
