3596
4000,36533379555
650,420452594757
1
2
2
0,0191769500144827
0,00628456361337345
0,0242723751000032
0,0160458003697909
0,0317553768908213
0,0161498435377683
0,0234995604403115
0,0151863225485597
0,0256875773142028
0,015526592862702
0,0205534882784303
0,0135339252213053
0,0232352319266709
0,0127501610890393
0,0275425563851039
0,0192895349789765
0,0256602547029581
0,0147113086421943
0,0267406167755934
0,0171012825663574
0,0224529637569679
0,0158891356204719
0,0208268803457244
0,0113734154765843
0,0218136771818802
0,0115944922137839
0,023967467712607
0,015132538380777
0,0269259355528148
0,0199717740027783
0,02737214482671
0,0148508348515737
0,0249454816681746
0,0203554875941076
0,0233608505006029
0,00948452097263877
0,0272918105591337
0,0134987220600839
0,0239671722815435
0,00909221631897255
0,0281283126411946
0,0125874521043195
0,0246096036484116
0,0145703771072489
0,0183690601305542
0,0233294285864035
0,0286588450668521
0,0133646013914261
0,0200279596907526
0,0159479954965063
0,0249579486003836
0,0125497542570843
0,0230335256977854
0,0150939442111255
0,0192684526799507
0,0205271341000106
0,0299813279151551
0,0175493198913544
0,0233649558753414
0,0135852256204633
0,0277461720472047
0,0236957694182176
0,0247725172485069
0,0213092567016316
0,0126523402183735
0,0162811428725176
0,0218982317111321
0,0148695533882968
0,0243879044435017
0,0206523979871715
0,0237280407716049
0,0187841562744017
0,0372713895945851
0,00751636699924949
0,0316540958385207
0,0175229414832731
0,0243445619047401
0,0166065054923589
0,022527970526363
0,0115665852947683
0,0262719775254132
0,0156276965485223
0,0234909603746719
0,00713899618682481
0,0158358635060917
0,0170575798257321
0,0282307760344162
0,00541920685299557
0,0438198984796394
0,0153934112795714
0,0323797646299979
0,0159772979253391
0,0309423251501379
0,0158323146345455
0,0318896382280925
0,016270306884914
0,0313204723840933
0,0137760585066947
0,0289119066961918
0,00447902467975066
0,0427798852557042
-0,00095786096817992
0,0593199451503299
0,0146061295247449
0,00595361894303393
0,0231153084086506
0,00624439074173475
0,0311332302488305
0,02719942179799
0,0190785852961721
0,0249218785395843
0,0160633816231388
0,0222791440866925
0,00513499920990083
0,0269721961948945
0,00288913562241135
0,0556259097524662
0,0126488546811292
0,0298670682957056
0,0134094600385503
0,0399202277033646
0,00921654705514634
0,0408427340943256
-0,00173702208920459
0,0316686266408422
0,00941624176303039
0,0294451895424951
0,0184243529939317
0,0461471095265447
0,00697140681704449
0,0298486363928027
0,013989473845848
0,0335155697213116
0,00199745335377363
0,0356467067500172
0,0233739834672484
0,0246070312161531
0,0285984472928299
0,023539419877094
0,0226982013013218
0,0199441161553251
0,0175433138202779
0,030707257753106
-0,000738406627001731
0,0466499547800267
0,0189931805374066
0,0195052154586162
0,0256787586158771
0,0397322343706356
0,00627932412965163
0,0308300166196313
0,0163939046141576
0,0356749861513059
0,00392226437373702
0,0426674973748348
-0,0264972530347376
0,0710694922300232
-0,00343195234599916
0,0502451972866855
0,015359603572963
0,0269076521312202
0,0222209416267557
0,0223056026726712
0,0175305977079122
0,0160464362196074
0,0186209176379404
0,0142307038799037
0,027810312919109
0,0282601559008979
0,0164343604581126
0,0319399628696318
0,0282323995736396
0,0280235565908696
0,00758395153278674
0,0382084293178398
0,0108335817369291
0,0342468261262025
0,0137901430387754
0,0324233242366335
0,0114865031235137
0,0342612846816182
0,0116834021623957
0,0236766487123511
0,0222690668342368
0,0323290576762853
0,0152584505218187
0,0315768449450006
0,0172984410311223
0,0307358992538576
0,0154203675670511
0,0388808569833197
0,0167529244413423
0,0336480351622402
0,0143522109351248
0,0304496300790722
0,023458262606008
0,0221196946053238
0,0289455010865343
0,0191540378047848
0,0189649810065962
0,0213019411432956
0,00629260061932759
0,0308558603240653
0,0195513037948815
0,0361413785492528
0,0191863388229533
0,0197065812947348
0,0289595073473318
0,0266350793445603
0,0278022094816662
0,0342480243665766
0,0330686617562472
0,00294940112797261
0,032907158089257
0,0197104964057185
0,0231310333870344
0,0253585104645996
0,0317883351222626
0,0305129967996288
0,0250517422967343
0,0218484836337378
0,0214061710774443
0,0334695502566477
0,0228563928625839
0,02833200314535
0,0161905548240017
0,0262737449402696
0,022669680457948
0,0320650551864795
0,022699840351533
0,0279417499363716
0,0266066453670319
0,0415852124770574
0,0233176860971564
0,0340146627282545
0,01980355774963
0,0385426373316429
0,020723298447369
0,0300780541128885
0,0216430281077913
0,0320289925034019
0,0249703482387841
0,0354711874259227
0,0213392705167725
0,0401135111156495
0,026372930402977
0,0279271483181505
0,0383833237455253
0,0281616369144586
0,0392048611970004
0,01393351900043
0,0443217454739971
0,0240566277761809
0,0369554652512567
0,0204424348103646
0,0338905654849996
0,0273509843594964
0,0345758942511132
0,0327363256308417
0,0409746163265081
0,0273652503951732
0,0324529454026056
0,0265215095466355
0,0300511051758455
0,0409746364438764
0,0202849637168614
0,0516864272612768
0,0355669566591572
0,0300638679553683
0,0393902865293271
0,0260252590525297
0,0417868853557738
0,0434856522810497
0,0202060070009317
0,0447314477555876
0,0384797444004409
0,0392493797150836
0,0268440207144199
0,0469998173208948
0,0172050850804713
0,0441982297303223
0,028336156095653
0,0731327315320357
0,0524435602646877
0,0365458185029589
0,0567985297947986
0,0296571289844363
0,0480840969842252
0,0264487821926205
0,0429049780536995
0,0349637518489107
0,0441995014380105
0,0318247197210048
0,049696583437083
0,0359543096079061
0,0505244657888034
0,0447144328255898
0,0424079268421235
0,0461197862121932
0,0418811578467748
0,0482879599684992
0,045692841288947
0,0466879331499515
0,0384942910942887
0,0508232469196399
0,0292374709111616
0,053026213542538
0,051046929912868
0,0442711359263476
0,0589369855576818
0,0602699178360617
0,0571991654945986
0,059255059175242
0,0519586699069405
0,0585690633428914
0,0512184170078109
0,0588031189103003
0,0500385549521211
0,0666093843441233
0,0590534549260128
0,0754296237249468
0,0477447692097615
0,0815472588388905
0,0668628420924033
0,0616092595215044
0,0708601778009521
0,0723087864428281
0,0730201750097284
0,0721542966003631
0,0849312243672333
0,0774954650441001
0,0766149683727285
0,0960114097220337
0,066402191559672
0,105221999013325
0,0825551429278313
0,0912639637388388
0,0826156076472868
0,096463632868928
0,101227719396395
0,10083783977636
0,095154626303614
0,113132826626572
0,111545735653481
0,105411503789562
0,126404318585483
0,122095292309665
0,127000776536233
0,109820474863939
0,128909300538933
0,113624023885295
0,144588008228117
0,107415477633153
0,157066931077219
0,137152336623228
0,133313168935145
0,159027674052814
0,145176209370469
0,160807568017223
0,156053792085963
0,165088543863286
0,154377865889145
0,180105425043734
0,164052170987598
0,182886859321653
0,175373273522379
0,177288847091592
0,184242584056901
0,190732892319456
0,19558290018887
0,195370616756884
0,187676315972725
0,221841979732831
0,216462827533336
0,233646597434241
0,193023613992522
0,234514508669302
0,228753412110426
0,22580235312268
0,231688408760162
0,22162100310138
0,244693166294432
0,238657073304507
0,240940304887414
0,24477291743648
0,242195199084724
0,24490210625582
0,263799866468475
0,258661913148026
0,276065893283102
0,260239660348887
0,290019343126084
0,275000988992586
0,279035367079092
0,262736903662062
0,294188886223713
0,29933764812661
0,350420432577939
0,292619512753402
0,295290578455548
0,299204765464568
0,30479570289559
0,300095820579493
0,295681232197311
0,301189279552054
0,315477546502647
0,332094650450859
0,317654131100525
0,325591191336954
0,331058718773153
0,313460931342556
0,347905119352447
0,326971889106799
0,341121152045837
0,351516116543282
0,357814696710865
0,327160340129552
0,352512192007136
0,343020466310787
0,357412184982264
0,349497238696106
0,346858416988433
0,368834506823078
0,364674914766137
0,381966848618777
0,370001388507915
0,373177393666604
0,374556459298898
0,382996490480741
0,378912395936915
0,384774174529039
0,381084298673175
0,389864656494238
0,413990118412968
0,385832295960733
0,4040026452755
0,381219648446678
0,419987326553985
0,387926965451161
0,426802313751962
0,407553091687326
0,426105386324962
0,443397931639662
0,414496198749223
0,418014498345558
0,417828876756932
0,419873894958691
0,424494192110254
0,431609866234709
0,441275560701323
0,452010158881289
0,44830903133759
0,44113450314651
0,456968883839088
0,452900515670894
0,473361976925218
0,452579163026237
0,455447549258319
0,456201710087323
0,474815553310583
0,463844863472467
0,51027029897652
0,488121292875738
0,49446291861537
0,490472698762478
0,503910563103228
0,481500978642373
0,486795130123485
0,502761763447407
0,49406111989063
0,49526517054262
0,529336415249526
0,495156599403495
0,500458151135605
0,530530389827815
0,534909880087467
0,527046445327397
0,557351884736332
0,504513896394074
0,545429042998229
0,537192293623211
0,52227137374072
0,52353103113467
0,556164001633255
0,561025756164288
0,553612052952612
0,550589630241024
0,5830595836593
0,566959080381783
0,54029435320997
0,538376219658465
0,590502556074716
0,578849514099001
0,566963343541773
0,565714206076825
0,614128039807508
0,591055038415353
0,592673447598976
0,580325966821726
0,632266277909386
0,575106197718639
0,619479544186267
0,62252163645138
0,637899426689621
0,601812588646572
0,610731971855342
0,617079135240046
0,670875475143559
0,612895668709396
0,600015641375596
0,606504893514977
0,649857742408501
0,63522181076916
0,677816287780704
0,623572167351412
0,682547938475835
0,649782624567418
0,650367315038299
0,649957997742255
0,688487370276536
0,670753861216039
0,67734166056709
0,682058502066066
0,708782698486384
0,661640513506923
0,685937649143634
0,683287439977584
0,706570925166546
0,655778295808817
0,694967523927743
0,718573689234658
0,736038043040503
0,663451141412716
0,733076489331871
0,706779606830723
0,753684577437745
0,671508389657766
0,709932732303168
0,702069681574477
0,777051728832122
0,696162780940367
0,759535658666231
0,760633030464487
0,776514161913904
0,763598624625682
0,822174324381917
0,749901353159275
0,81467264391592
0,711184887885965
0,83629614096565
0,722225566593781
0,814963228341891
0,787155220807489
0,807594622527028
0,772191108243613
0,820581337223284
0,769061881116461
0,812509724764033
0,765532747713663
0,873762398478202
0,808191072509949
0,81890569325031
0,805001289819176
0,804985173191904
0,794878381153021
0,825618636255293
0,806377700446948
0,877265541140602
0,790354953158866
0,870759214171998
0,824620983371757
0,894143825332585
0,85664039849333
0,910782837297083
0,83750967424018
0,860896304652672
0,81253479852732
0,894417587912333
0,882155937731807
0,942592302101037
0,861226458551214
0,888432910928997
0,89202277671818
0,926163337719774
0,891732543026732
0,914547224474786
0,876447611743971
0,959763217451593
0,921451482317207
0,923914184725776
0,965542551642179
0,951625825425246
0,934585309207211
0,984842836044394
0,893223701585192
0,947835000933217
0,909437333363453
0,991936621957823
0,986951570299624
0,963996362382185
0,907663569020748
0,94413998276487
0,9032337986673
1,00402566862916
0,962374933449761
0,975075924464817
0,907931887757876
1,00083423098132
0,968189014655761
1,04542922158859
0,941327443247164
1,08171254904666
0,960695453520964
1,10097438471493
0,97966813271054
0,985007133283439
0,989868233388362
1,10004896337308
0,975411989427159
1,03032130104358
0,987564680779992
1,06676782257434
1,02376150867158
1,09750186583117
1,01094231456837
1,06304595309336
1,0271349425634
1,13048349779832
1,01202635161239
1,07391873513278
1,01912957309424
1,09205784595768
1,02339271279933
1,06539219085264
1,10194617960873
1,10826575230614
1,03609375663389
1,15412215452357
1,04736672835729
1,10167267702163
1,00159921562218
1,06740969502218
1,08457896454043
1,15575554333208
1,1090864459779
1,20073920682586
1,14742688832139
1,17120377708926
1,06299701495693
1,08374104968334
1,10290521934392
1,17926126286523
0,985663670285864
1,11610125272521
1,10558655956072
1,20122952157095
1,1175826043721
1,21903399263351
1,0626620419466
1,24912771356263
1,12343854683356
1,19049749669352
1,11087423462924
1,17471962681119
1,10273460534245
1,23381046026541
1,06082417702701
1,23453258764468
1,14112656658991
1,24870906163423
1,09509407053794
1,2672073532019
1,15212098465699
1,22363255374789
1,11033008754318
1,18681278510831
1,13241667503599
1,23528256949674
1,11020128114173
1,18986294586222
1,17780854872795
1,16559784614003
1,08958245208551
1,28924982740285
1,14848161137132
1,19611816245775
1,13705872896671
1,20698799654854
1,11406146288758
1,27505165302026
1,15832275587546
1,25141312920063
1,11085181612266
1,24764526566778
1,10555899159752
1,23009119503061
1,15306129460614
1,28883659644394
1,19661210133457
1,30923028303094
1,16048158293457
1,31130478995092
1,12003216284264
1,29740948642623
1,1084316081708
1,28733401249298
1,15967065060708
1,23536612733992
1,11238812375636
1,2533571503083
1,16770627663815
1,24796727122774
1,15334743874423
1,18580221590096
1,12598705728488
1,21194965862888
1,15587216153641
1,246845536436
1,15458530020156
1,27469961510954
1,14657326612994
1,21682691137581
1,13686339476458
1,23268492839881
1,0875861994192
1,28578696949829
1,10419077547843
1,15527143608643
1,16092674523058
1,3587409833125
1,12988228745106
1,28528981254189
1,12799932696155
1,20291725443106
1,06788616653763
1,21407440376038
1,18801510736563
1,26323820876938
1,16622197599693
1,19180786855781
1,11306024468142
1,27295381051131
1,2165743677054
1,17880983153547
1,19955244601932
1,20310144206945
1,16221151908714
1,16891177300299
1,10382360391116
1,21513253907524
1,2183388398309
1,15986678514246
1,20012347401328
1,14076189035999
1,15706104435054
1,20784214631407
1,18220249335382
1,30957626504633
1,13597315340416
1,1808310715293
1,16587120548119
1,23768803434873
1,16151960417787
1,25465548575053
1,12225739126199
1,26813154194487
1,15796974839003
1,25315688997137
1,11925821427983
1,18765283478482
1,15052246851331
1,19244239309961
1,12205884692614
1,18490344025584
1,09939363628073
1,25988392320168
1,13964896183328
1,18263482044012
1,1272721652178
1,23452609403104
1,17577354036113
1,13572833140609
1,12189247642604
1,22972513849838
1,16326463766801
1,22679836460564
1,13297874587156
1,17825295763077
1,14905815587154
1,27112284868576
1,16916789998287
1,22430760237369
1,10231949330813
1,16447891586071
1,18550925219252
1,24213466482581
1,13584642055677
1,23748031224683
1,1360526581491
1,30185845934718
1,15236078936155
1,19006323797743
1,05223238060707
1,26443874059118
1,10454430331131
1,1889749219967
1,22003327385115
1,23137141184711
1,07694092840939
1,22403892598265
1,14266156712786
1,19699722654417
1,17374491697641
1,17639822982532
1,11131698112814
1,22803318312786
1,10933217453487
1,21491434151739
1,13847944813389
1,17852692910434
1,12871657206726
1,18808457902003
1,10157874679934
1,14899500426571
1,10245389311253
1,14363734468478
1,13935748875157
1,11378716843362
1,11566890672137
1,2071984666955
1,11080332666984
1,18738080274577
1,17956054769972
1,19552037774004
1,08579274161556
1,13427093367414
1,12072409316285
1,15164981983816
1,12734743345007
1,12335086989519
1,07013720726758
1,18410514921518
1,09472510887714
1,13084264889671
1,08718720109156
1,16186814246717
1,03571688550544
1,15523750731461
1,03793413253026
1,10191341060296
1,06900666687337
1,06704368670319
1,09030004759624
1,07278113641716
1,03611339256905
1,07977077458906
1,035706374141
1,12564868033102
1,0567264772017
1,10042543650679
1,00198956948398
1,07724044198494
1,01880990580737
1,05922115061721
0,953873935814662
1,0428373209629
1,03790957464152
1,05605413166169
1,0564522101835
1,05661081150133
0,980408398336792
1,04125760802165
1,00105978784466
1,03485887150236
0,974062050032719
1,03926335296562
0,95353486482725
1,01502517796563
0,959022775382465
1,03945174748911
0,94212123009809
1,03956581047378
0,944874169477568
0,965384366502934
0,940821311946969
0,989514432297905
0,949529936290404
0,945437303404509
0,930275513632856
0,931584982961646
0,91306733431707
0,950913986799365
0,88901974144278
0,905277099874831
0,907334549601499
0,949659175624677
0,883201190434974
0,92827976681489
0,876583366681827
0,872102334300215
0,854762250544604
0,898419603990484
0,863085906319058
0,861232694804457
0,863695338998499
0,877040020568385
0,842863021149873
0,891518750127487
0,839756953953386
0,878147443656692
0,842309192429416
0,84449655109592
0,847076839001268
0,840367154667361
0,811856828024648
0,835062827580264
0,777223243644203
0,802906897022352
0,783431202263542
0,794680937058798
0,794200892449218
0,807742187332212
0,771068244368192
0,803389030314119
0,766963693024465
0,788554186952839
0,774360075436708
0,758898763613206
0,743195486114582
0,763918830854549
0,746416255335559
0,768871660518435
0,74676360038146
0,731462519867155
0,731108018292578
0,729232095600477
0,712660422092055
0,739859813832296
0,696737130861661
0,716312348919634
0,6862666063899
0,71605034511399
0,689012386889563
0,684599233056986
0,652967738700423
0,679183037217886
0,672868437162359
0,680485829171958
0,646153329430011
0,6705488296315
0,651730746110242
0,665607565503996
0,63989957660035
0,652978139163776
0,631249032567662
0,631384137420261
0,634544579144732
0,633039483597501
0,62074699180523
0,646292047599232
0,596982534666891
0,628800317901367
0,594397703391434
0,605458066429744
0,59438070627052
0,598739209575558
0,602277119234568
0,599254958021908
0,580640864797254
0,58504811269161
0,569989285611706
0,580544114980721
0,565368897564553
0,57000075481755
0,553033948140876
0,564926326106796
0,557974010722691
0,557700236939595
0,549448789048403
0,547889821391654
0,537719052295659
0,540038068117124
0,527220621920955
0,534575362109271
0,514281542376576
0,524126622088874
0,510647916709621
0,524892771514362
0,51685277541774
0,50366380733398
0,48986939728596
0,494442744151366
0,485730476979603
0,507990592063209
0,494839534286434
0,48938100658905
0,474323099620756
0,483437236114622
0,465697687065703
0,48259136035707
0,472829808372282
0,480273821293851
0,467178478643224
0,472159406183624
0,461209548985076
0,458196715585914
0,440446934628225
0,453582403549527
0,436782851030498
0,442888017502154
0,435337878943228
0,441315248012829
0,438925620287341
0,433250163909392
0,417646210807438
0,428953431747103
0,406947691635299
0,418321869051544
0,417357903137713
0,411392290672785
0,398797674404805
0,413180250671637
0,401221281507282
0,4103202352091
0,39172361573832
0,408570044092358
0,396957562812064
0,39546418479246
0,391009156215075
0,38834153089038
0,376664440516072
0,390207324166514
0,367412873536887
0,382394591251225
0,372209699828667
0,381359487430496
0,366867246927811
0,369389880999639
0,360210795712878
0,367691297642919
0,358765777924364
0,356946106398723
0,34828296493509
0,357638709583147
0,348319657990863
0,345111060319492
0,34033719949076
0,339287181888344
0,331277219923215
0,3399996685368
0,327008061808979
0,335831023082538
0,326978790695857
0,330323631219792
0,31717958009943
0,321755457713977
0,317198442310979
0,324087159910711
0,312275848321743
0,322295286822148
0,300669894953357
0,311468399258116
0,309365263191823
0,311804183611359
0,290807400285463
0,302218429352295
0,294576737054522
0,298393499643053
0,287579746062102
0,29337762537437
0,288490992889311
0,290955745384743
0,28512741629083
0,287896299715008
0,276745371922846
0,282780419293214
0,280331399241445
0,277825121651713
0,270158495552349
0,278905695474119
0,268690228544489
0,267414619155683
0,267596478228227
0,271696226346542
0,257941345069587
0,262888334806272
0,25993628301403
0,258080265870371
0,250413785550639
0,257997288274847
0,251111068188635
0,252239345439747
0,2433387294502
0,25526976837605
0,2374531952366
0,2435630590522
0,241789005142924
0,246291397849145
0,237584985947779
0,239044427552567
0,234367479120053
0,241284778725164
0,226871160290238
0,238265824604646
0,228909864682028
0,230055804975549
0,227158471560544
0,223884192054039
0,219499737748883
0,229414279156091
0,221194860358235
0,226074381029454
0,216796997125024
0,222072323013454
0,215855141529833
0,218636976847162
0,215702430580097
0,221558233057618
0,214463060172619
0,215779700895624
0,206337963054035
0,204382177113108
0,211213608974101
0,21235607457549
0,202581702101677
0,210545466240828
0,199645188953649
0,208374340506085
0,201531737918017
0,204150538471626
0,194899085274117
0,196003166666612
0,192627112956131
0,198685744179045
0,192689363208129
0,194726071996201
0,187093990879258
0,190565539287339
0,187586721698811
0,193951135419228
0,188078347605993
0,188721212960955
0,182972799551586
0,187370840572708
0,180502415481005
0,186714426417861
0,18076717728098
0,176198940504763
0,175974359176372
0,181172907233918
0,171669207949755
0,185138943688563
0,170253419897459
0,174970941472814
0,170864504723435
0,1750767551008
0,175532924771569
0,172067172284502
0,167965636047778
0,167661195295696
0,160729168640167
0,166524558371037
0,159786899092492
0,164236892228466
0,155376725908928
0,163983843998852
0,161127473753724
0,162033167011111
0,153761455954966
0,1602069986025
0,157808803214888
0,158280868892277
0,149742806255033
0,155474752561326
0,151022481416938
0,154878567373366
0,147652060270313
0,147433197474329
0,146055949833159
0,14955183955918
0,149933188198076
0,150302844418973
0,142184402759908
0,150256197745272
0,138851485755492
0,140107999481347
0,140090657505414
0,14027374533783
0,142336066895985
0,142414310114251
0,135339554848517
0,136676706783415
0,13159977438672
0,138365350615757
0,132791628486149
0,136520248662813
0,133612253765284
0,131839356468267
0,129426654122949
0,133376872668959
0,129617482741947
0,132675967940654
0,130357381291109
0,13277991320817
0,12684648824462
0,133211473121057
0,124714649492169
0,124293048692053
0,126220647106064
0,128173124088521
0,123710301633929
0,123253025939863
0,11924821911293
0,124399034398382
0,123835643931392
0,124280637592342
0,118001546356726
0,118710793240493
0,11784292110392
0,118289982549087
0,113691104392689
0,117585788623193
0,114471277975811
0,118842204973429
0,113901960617124
0,120261612793227
0,114859019353036
0,118515362514627
0,111038838278288
0,111946993702278
0,109710225854383
0,111141547906871
0,109418399830706
0,112706639207446
0,105761817456128
0,104828681260473
0,101648878548544
0,110522475205664
0,108678391874874
0,112583301744268
0,107075239366036
0,107460976917327
0,103420500417399
0,104348052370484
0,102133048092303
0,104590260935991
0,100103524576924
0,103760137906298
0,0972379797301793
0,102872889980097
0,0984257826464975
0,0969157639765293
0,0979807143834387
0,100830930548219
0,0948172496935242
0,0975682868839145
0,0958440526634766
0,0957957831003551
0,0926017630348991
0,0983603868407384
0,0934299413004479
0,097304149113141
0,0914131824233593
0,0945644834569118
0,0936022604177694
0,0924597675744054
0,0872481700677058
0,0945050123537756
0,0906821257369354
0,0905275826914943
0,0888206481829927
0,0936879603445501
0,0892212981170805
0,0886784818965782
0,08683238794674
0,0897925632957755
0,0862005590024258
0,0864536896869628
0,0851815527724146
0,0862701160737381
0,0827625194537516
0,0861622706034297
0,0814368819934886
0,0827205389174667
0,0820934176678275
0,086271037121623
0,0872487927150124
0,0853013357170871
0,0815268797770623
0,0845414380684014
0,0842949863246963
0,0871397038953465
0,0805291227451864
0,0818001523049223
0,079462734420284
0,0815750194253324
0,082065521479713
0,0831763053432493
0,075377144912913
0,0795299980459498
0,0785569518924386
0,0809686281003501
0,0798403696532684
0,0787419041947689
0,0788861354648179
0,0782057038604983
0,0768860270103533
0,0790777235608348
0,0734095451193931
0,076968130908969
0,0756136483392322
0,0758009703824701
0,0733307838218722
0,0793419551231722
0,0768487355748931
0,0790935670174232
0,0748738814206177
0,0753032480822982
0,0707635490575472
0,0777411983093734
0,0723055499011919
0,0755495544100385
0,0723829880077581
0,0743719276140999
0,0711254974901615
0,074193259357524
0,0705460026071257
0,0732714210638657
0,0702752055946765
0,0720173284314066
0,0708494467868556
0,0708643858247332
0,0707119513475351
0,070883399058055
0,0683177255359786
0,0730463997214144
0,0702776623760407
0,0712725835895869
0,0661051998175678
0,0697254456097876
0,0746094340177062
0,0725115377725959
0,0699540924684331
0,0703014105922445
0,068073002955374
0,067506469204083
0,0637514167214671
0,0678166282664849
0,0655084563744902
0,0648163942542504
0,0644529233922118
0,0679932748313739
0,0641760380664239
0,0694614995651149
0,0694771344647701
0,0681884543906853
0,0651982299373306
0,0656838832628173
0,0673418989700415
0,0674894681905771
0,0611955915321373
0,0654976532755217
0,0646919249439852
0,0679157324738842
0,064410898850589
0,0640734170206594
0,0648591653792948
0,0658755499682955
0,0635547422424053
0,0659156868174373
0,0620625083738382
0,0595823082555691
0,0607337470020763
0,063890121833249
0,0644371698813767
0,0663524362604168
0,0620134831874563
0,0618748265611823
0,0601569391968778
0,0629820670338896
0,0651726236952716
0,0646606391281475
0,0615482303481622
0,0645861225523331
0,0598601213012872
0,0653026647334521
0,062390081637166
0,0633117983972708
0,0619269892179706
0,0605750100252562
0,0594536140203889
0,0623986460026237
0,0590721384686562
0,0583436042336018
0,059872580961931
0,0628713679276872
0,061143227080649
0,0602283616230659
0,0547556528934178
0,0634075618379328
0,062175861817652
0,0604810439074324
0,0600586932192169
0,062368372841203
0,0618635196788411
0,0607256529549923
0,0602264879251226
0,0584753120679348
0,0622057382025051
0,0597060114810479
0,0556318547781632
0,0602403858736216
0,0555118606064474
0,0561815755949187
0,0578059837746009
0,0617406849355781
0,0589998751500892
0,0579297587045058
0,059707546338413
0,0590434658207436
0,0564416644344832
0,0566779364989766
0,0591392557669019
0,0564796746775983
0,0564554356415425
0,0612826243650917
0,0578726785013565
0,0595865772628779
0,0581242423109262
0,0599943141248296
0,0588773483799713
0,0568916918193079
0,0586985918471318
0,0569314295061094
0,0573377051362737
0,0529488513401809
0,0571295415426044
0,0618849169971617
0,0581553102257251
0,0586653875660262
0,0529449783394183
0,0577207893876884
0,0552232689918155
0,057415158388141
0,0537441536761203
0,0561164630632708
0,0559328583686134
0,0542790831982477
0,0551222178732272
0,0595416798174984
0,0546253220172178
0,055338881986328
0,0549330601913339
0,0560040078495724
0,0545657805211306
0,058395626918299
0,0587856112112847
0,0538227119904937
0,0531020195962524
0,0559950284149387
0,0551362004097252
0,0550516304289308
0,0568948683271123
0,058121986556624
0,0578694807993262
0,0545985061207597
0,0525567795985931
0,0564861441863459
0,054116948669654
0,0543629974672289
0,0565823444473947
0,0549545616920398
0,05556778904044
0,0564354318234579
0,0575940394488123
0,0585002254219632
0,0533861398378644
0,05563490265935
0,0542299113246761
0,0561047755006146
0,0525707119044958
0,0563246556740853
0,0552283928354132
0,0550540555231215
0,0566452940067713
0,0582275489510864
0,0523769355895766
0,0547060957815704
0,0549213283114208
0,0555364081305891
0,0552282698599791
0,0570263075384521
0,0542336952299451
0,0541981721422386
0,0535839283853961
0,0537036613582528
0,0535785610762449
0,0541039680804965
0,0525126235734094
0,0555086515785671
0,0538905511416895
0,0563611432179214
0,0572008035303386
0,0574134504614163
0,0524404513965924
0,0538711530061941
0,0545929719158617
0,0547385541081399
0,0538601768146473
0,0539185791558101
0,0519532762510999
0,0559287172244943
0,0520252811655652
0,0521418955304123
0,054581142407196
0,0548748761109704
0,0555061135592925
0,0534078383163292
0,0529518879608295
0,0530112794634796
0,0554329212874926
0,0554098563932088
0,0503533164872829
0,0532227697311668
0,0552129904068821
0,0548470259685274
0,053548100371138
0,0523488092677411
0,0548471995274744
0,054155267330643
0,0554216316891811
0,0552229291172404
0,0535261630940055
0,0529648858830864
0,0553710570537115
0,0526165291759715
0,0529207863245866
0,0585884301423317
0,0555326461982378
0,0566348493077075
0,055653354781815
0,0549018171752644
0,0569045421164092
0,0550732597267952
0,0546574675333443
0,0540959441857727
0,0523029890123996
0,056607873716905
0,055367385981915
0,056292908554095
0,0550923783043901
0,0512925847476469
0,0543354654237012
0,0551522703041264
0,0533163600107791
0,053555875563392
0,058843140387701
0,0575370450452694
0,054022801429364
0,0547732292899496
0,0523900320406822
0,0548843993939099
0,0561171280025556
0,0571391983632223
0,0559670048663521
0,0550585308154101
0,0549384160723256
0,0555309005037873
0,055356080578077
0,0559037112296663
0,0568027338740511
0,056383488792547
0,0554007758221964
0,0571466369741788
0,0542171469996087
0,0522849031404405
0,0514940722835553
0,0581860706014049
0,0526271924175166
0,0529367737989932
0,0542693458317044
0,0546465130058707
0,0538012569051884
0,0564062584027678
0,0557702168304068
0,0574998746055695
0,0584530733704639
0,0545502438607374
0,0561995961006454
0,0567884207440276
0,0564254596586187
0,0547029643450796
0,0591017744395095
0,0549619798391233
0,0558987177022719
0,0543313747363034
0,0557916777352803
0,0580416400289925
0,0563744262388411
0,0566303353402497
0,0584997541481357
0,0556750141685137
0,0559408134669412
0,0553429301499905
0,0569740937018193
0,0571269724115221
0,0576860505972509
0,0596590998293785
0,0574791075665461
0,0556964759305019
0,0540535314966752
0,0561963705663688
0,0588382076484993
0,0536230256617697
0,0562729040253189
0,0579178097231469
0,0584068626013875
0,0606871140393841
0,0596571479164964
0,0577334383848177
0,0550073737705127
0,0600943703594892
0,0564336820695193
0,0566114144800789
0,0579104372329376
0,0570254703140975
0,0610295339751013
0,0593457268760704
0,0577040004744999
0,0567348274805263
0,0572473632812832
0,0584739790542831
0,059765602428447
0,0549372504713861
0,0573855276187013
0,0589827370056423
0,0587199983414386
0,0586044269939356
0,0582330806173905
0,0601694738137605
0,0610152717802872
0,0566006892718347
0,0588277090700938
0,0601322784420727
0,0602283945115999
0,0556971256673978
0,0588748529315844
0,0600495507906934
0,0586022153739528
0,0586329456151389
0,059629095877729
0,058716820704554
0,0606267653042034
0,0607481290156112
0,0585597891230537
0,0573969560159181
0,0603342025602619
0,0595903987097797
0,062466745328416
0,059656075265121
0,0596748167479023
0,0582400277777352
0,0615480781944004
0,0604530055541553
0,0619000257585311
0,0602763471292133
0,0607340766866787
0,0599647660489935
0,0617127655828288
0,0597566191711824
0,0636023092732975
0,0615303444088234
0,0579604053046727
0,0613500160288972
0,0608937552938088
0,0620584567809095
0,0652921937733963
0,0612300050743048
0,0621267831117015
0,0602352873464516
0,0611877116366442
0,0597505169877091
0,0636908021640523
0,0646210431444936
0,0651790915179023
0,0600374292741774
0,0638694141257912
0,0610832824021528
0,0644645300369769
0,0610011272895788
0,0635980482067428
0,0625626461661862
0,0650112167734069
0,0615178380803386
0,065354611233959
0,0617668327705795
0,0626808900785531
0,0642975927273289
0,0650447551956514
0,0632351490316045
0,0626889019135399
0,0606867090684563
0,0654011381329296
0,0609141434788
0,0615025651540452
0,0628782699800381
0,0638949747962297
0,0641017223064089
0,0643214842313394
0,0629597615647454
0,0667948509892616
0,0662657172890233
0,063762141948572
0,0637610183940656
0,0633489525287764
0,0638268174868072
0,0655319240894574
0,060275795449884
0,0675847352458113
0,0627598115796593
0,0645722934701586
0,0662549864502933
0,0658697274923234
0,0614651514369034
0,0671681512455827
0,0634341290795021
0,0674155086859431
0,0628587246305442
0,0652693676280793
0,0625825454998415
0,0711829034755985
0,0669233451506464
0,0657158799523674
0,0645691071617823
0,0672339692062064
0,0664808436063219
0,0708122880880585
0,0682008516861013
0,0717075597359452
0,067688376881253
0,0703691217889865
0,0705239696930193
0,0731965029453261
0,0701643510404366
0,0748837533728311
0,0708931136105594
0,0737907672731871
0,0735513497725705
0,0801479170319393
0,0748335315097583
0,0751588130646755
0,0664287737466733
0,0756389017479163
0,0661557030722338
0,0816374009364661
0,0737726503310427
0,0753932858125724
0,0662454868344603
0,0809005905747799
0,0656626648355687
0,0762595722019305
0,067756088252198
0,0765308951939422
0,0673594658158301
0,0775103095614083
0,0690852976038656
0,073184951927725
0,0681784921785615
0,0790879255184273
0,0632685030988847
0,0761768630343805
0,0648908617343926
0,0802788642349701
0,0646665887836081
0,0841346294514402
0,0642959830702564
0,0808679846840658
0,0656063457134003
0,081695761580186
0,0597472169828073
0,080348249628192
0,0627231394710756
0,0808117566709827
0,0604078027193184
0,0860149253057517
0,0669997270441306
0,0869970099667345
0,0696607594586658
0,0800393396777097
0,0647764975759297
0,0786944428725075
0,0664422400993364
0,0850272982859888
0,078172235069156
0,0801346772217637
0,0723539779602477
0,0768247785406663
0,0817688294949947
0,0771850732801693
0,0879652353226506
0,0636444663852398
0,0968770701755536
0,0627012535697942
0,104038441463864
0,0507062238260532
0,110132514437278
0,0516722567898829
0,100015206341161
0,051425320916851
0,0996877349089829
0,0592304321554363
0,0895343183125849
0,0705695277422891
0,0834612619166574
0,0774636236234692
0,0783541287272091
0,0791736306272501
0,076116370599352
0,0789989439888104
0,0810558664281105
0,077403616384088
0,0840754127403568
0,0747105904611899
0,0849645578280562
0,075958354997549
0,0838359068500999
0,0757890404861591
0,0835597084580329
0,0775094165233363
0,0832657758941453
0,0762150848169764
0,0818252084077038
0,0785412178874431
0,0829392627611258
0,0780294495690518
0,0849729644181168
0,0798711781725844
0,0828636160646489
0,0786372834842467
0,0825530001037859
0,0791985934417633
0,0856973320151385
0,0836342342898482
0,0834398223344364
0,0805834921965158
0,0819930860948954
0,0811204518016684
0,0828440514566121
0,0833946402707111
0,0865971224100092
0,0832034330896576
0,0840171001614487
0,080610723196286
0,0871186320700001
0,0809911805851375
0,0873342645062114
0,0828819477420611
0,0842979096583846
0,0857845912178879
0,0855218200052269
0,082329881598688
0,0859114045959067
0,0830926416503574
0,0880081241901122
0,0855850440166678
0,0895920227037207
0,0865230030409622
0,0887447986766398
0,0868204591982998
0,0871645636659192
0,0843389156954681
0,0868603841747067
0,0859337058650524
0,0861013907197696
0,0873478626029701
0,0884427766899147
0,087004686432785
0,0886395995060146
0,0869711226439518
0,0912483786661857
0,0894278061995383
0,0876197830398039
0,0891453016124561
0,0905294564735827
0,0912540315477563
0,0876455078488529
0,0901695036331009
0,0909703659882265
0,0915672104424712
0,0915762627980533
0,0910825264678724
0,0938158733246449
0,0928830306925875
0,0925170152656432
0,092021242131884
0,0922629567980423
0,0937983924274402
0,0940464179302924
0,0894655699886127
0,0905609323259176
0,0947472231935555
0,0919107497813969
0,0918141755707794
0,094247266497936
0,0951497966691898
0,0961763736886073
0,0916715606516736
0,0917848125236481
0,0939418138785488
0,0958958838615335
0,0969017519359657
0,0944782043033689
0,0959335910316075
0,0967276547710788
0,0957128203653634
0,0968686851802469
0,097566742743344
0,0983669211430441
0,095879008003873
0,0959473073386802
0,0967630355286286
0,0970853712692019
0,098122446450596
0,0998273203496259
0,0971388805813884
0,0993072672978754
0,09882370980264
0,0983524848648778
0,0980899351678421
0,0993740712244219
0,0993268189978723
0,100576517109022
0,100409919170048
0,0983763405092943
0,101442344640109
0,0999366400130348
0,100590084333199
0,103119224153674
0,0988935192215251
0,100856349691964
0,102789251263721
0,0989082527920201
0,100732441704896
0,10283827499215
0,102254186802305
0,101868361692365
0,103077326995615
0,102232141047017
0,104564577402203
0,102553515533423
0,101524350360905
0,105076728264598
0,10331861800014
0,104395844184719
0,103103879988158
0,105815070935828
0,104266839383213
0,103305046601439
0,104607494686842
0,103326312756833
0,107761504696017
0,105152730360027
0,107116813179946
0,104537957824515
0,106225100769443
0,107034065152471
0,108279338737259
0,107241464834995
0,106440540168159
0,104546709818245
0,105363846028281
0,104600454958026
0,110690769871605
0,105972946562138
0,108491779906128
0,109393962393691
0,107189548872572
0,108832773691722
0,108261532852372
0,10905746304832
0,108989652836116
0,106565499388477
0,111173769514242
0,108655173877638
0,109719372983638
0,108499863504311
0,108698760152004
0,107699219625064
0,108500889519981
0,109066322141968
0,109768288472132
0,109811805888766
0,108012908302737
0,111168371307625
0,108818153857641
0,110234861029092
0,112943603960216
0,108388252047284
0,108444000889258
0,108364842677128
0,113434813492825
0,1121471767428
0,112837109730718
0,108845384109995
0,110586516979746
0,106985061497898
0,11126543305861
0,110303231346321
0,110181936556706
0,111190893715752
0,110140869054364
0,111499814110778
0,111856190934229
0,112179543534514
0,11410110786269
0,10996235369589
0,112780295545874
0,111714085026303
0,110795939560761
0,110872513928264
0,111832051132227
0,10983087034506
0,111037746706744
0,11083845990126
0,112315738632231
0,111432544681886
0,110732339534241
0,110063204324857
0,11007280414378
0,110545169001039
0,112326944728335
0,110436036485034
0,109343437434809
0,110449799944169
0,109525151409222
0,111395299529536
0,11194109142562
0,111339003248446
0,110236414706546
0,110025746792962
0,111213877742915
0,109236666339363
0,111249336944853
0,11017857689202
0,111865956765153
0,110011018549313
0,109475192446239
0,111223051439031
0,110005447193483
0,108686353955915
0,109516895877449
0,110374056843055
0,111334510890197
0,107565835496059
0,112341909089513
0,10991781808408
0,110321713026373
0,107543385697726
0,110101020719304
0,107591877056436
0,11087283648592
0,107906825840909
0,109546321995394
0,109723941525843
0,109294814769682
0,107560562514624
0,108417000108964
0,105627771110779
0,109389231537461
0,107489043636489
0,109888375105653
0,104678028488168
0,108997350857843
0,110100487860821
0,106855258394057
0,10662666463513
0,11079176033012
0,10745002576952
0,105573110077304
0,106535374157423
0,107591730718506
0,105665074856106
0,104709986442344
0,107707841555676
0,10583007030167
0,10657871666244
0,106020057335739
0,105140491778279
0,105276431057877
0,104424928377298
0,102960253585858
0,104756810246542
0,101409628958613
0,106119366407013
0,104223252740212
0,104044885182278
0,104219497362206
0,104577366882527
0,102291523808227
0,102701478725896
0,10325360034922
0,104208610936488
0,102892613233616
0,0976438451916962
0,100628569141771
0,0994511380410245
0,102198084055329
0,099239716422448
0,101687960335749
0,100028250326422
0,100128943949661
0,0987673359148452
0,100900488108697
0,0980407183254466
0,0969776912011369
0,0982717476185024
0,0995366199128206
0,102603677207841
0,100420137251454
0,099077842506663
0,0987388601924926
0,0989189569929236
0,101352305980173
0,100263399621716
0,0997951796745541
0,0969101106311929
0,0971653302016655
0,0931685870983601
0,101736998819948
0,0964473564144018
0,0975406135833438
0,0958805818516275
0,0978559724915841
0,0940090874183595
0,0953102908294834
0,0914934639298693
0,0925884962026033
0,0936138239126847
0,0941248637300145
0,0920696217627288
0,0931402656971418
0,0934296542621638
0,0939053938310952
0,0930792108679879
0,0938109776252309
0,0905768950036218
0,093588936541092
0,0912130183230984
0,092268347422094
0,0903813276329945
0,0929697316310254
0,0903637429561771
0,0910682817519624
0,0875817967651003
0,0913285480297356
0,0901019757748071
0,0904147801118692
0,0889795531575592
0,0902879677397283
0,0896827782125169
0,0870436353263368
0,08782889086909
0,0878492748242406
0,088415292894208
0,088524236827376
0,0868568763648331
0,0882187917988024
0,0889010965661075
0,0884396543296198
0,0855739292374012
0,0853393202113219
0,0863839421728728
0,0878799955240086
0,085682168608739
0,0873074297743429
0,0853080957725495
0,0852163376875403
0,0825529851131084
0,0855921946596819
0,0864877915068654
0,0834713420597182
0,0869945931900509
0,0844393868152101
0,0837380495509933
0,0847848759460696
0,0853391997299523
0,0837791506931776
0,0824126954978517
0,0821145864186676
0,0801166477581335
0,0840755175273206
0,0823935810314604
0,0816873865533003
0,0808717860755418
0,0801799161688936
0,0807525446026552
0,0799132002631303
0,0804277518204373
0,0798248490405539
0,0810104738439864
0,0788606549590518
0,0792580406098879
0,0792334574595937
0,0802715276912994
0,0798468471162338
0,0794915013009647
0,077621795374825
0,0798306928022012
0,0859149309023042
0,0714901357299517
0,0828402431479913
0,0745293566524887
0,078646665311398
0,0764344399654781
0,0791189154388329
0,0747403233042595
0,0783330522036499
0,0758875796663116
0,0814833953965346
0,078009314840701
0,0785005598682793
0,0762970757133117
0,0773468445488555
0,0755262496035634
0,0783873081480214
0,075585660082467
0,0787815764706461
0,0758357709547834
0,0791421023464157
0,0781252941384205
0,0767503071988628
0,0729000840316628
0,0786748974935239
0,0700866905722768
0,0828555177053301
0,0715687470955164
0,0793333622578481
0,0743561080387758
0,0753347198929005
0,0732325354781611
0,0747547797420008
0,0726270883631789
0,0772278787708257
0,077033864470405
0,0716633116402758
0,0768286674866751
0,0727533986211712
0,0751369500861016
0,0730693248701721
0,0721210349208255
0,071844132615368
0,0744597430704723
0,0751103252898276
0,0707715749685541
0,0748279265216296
0,0706225998795625
0,0717761097824249
0,0710115933503218
0,0729735261028873
0,0742211922363869
0,0721773051654649
0,0730852080595368
0,0716326232187523
0,0704214806839674
0,0750201636878799
0,0798913640084592
0,0672727839412809
0,0768815721777776
0,0673012063110966
0,0708462684942363
0,0702415770513729
0,0705876354855406
0,071298135918234
0,071759842620475
0,0697757550300551
0,0725839482837819
0,0715627132663833
0,0694337585330494
0,0705459581590781
0,0711271557088297
0,0720721069269573
0,0713591133674685
0,073380523067673
0,0699479174603024
0,0759590493100917
0,0703115005333746
0,078134610818538
0,0736300610908153
0,0678689085887135
0,071665018480167
0,0701216083512686
0,0727089752968648
0,0678559374319932
0,0743117776158032
0,0674837535002536
0,0741118852371608
0,068462457852344
0,0719870876047063
0,0718633747708466
0,0747820909084722
0,0688544943299542
0,0751936420938912
0,0674418425206426
0,0739095803685539
0,067314914390367
0,0744965489466407
0,0696067173721965
0,0745394899934698
0,0684296569083371
0,0758752496798219
0,0680131580160633
0,0760289631475914
0,0690949288763215
0,0806476526356561
0,0767097031706578
0,0658671814098929
0,0790374080893858
0,0665572124766685
0,0767995482814094
0,0692054890731702
0,0733545985622181
0,0746374086964351
0,0740319508421084
0,0720161026109824
0,0730051595881832
0,0706678648016056
0,0751642681918828
0,0711353838761106
0,0760019915792867
0,080377466119203
0,0696852119821323
0,074166846292941
0,0735444660204611
0,0646644685343975
0,0844539775707427
0,0689119704389234
0,0748730353554566
0,0732310730425631
0,0734604169799453
0,0744966763265234
0,0763426094624741
0,0730855321923647
0,075612446922763
0,0742957180328221
0,0743582732612639
0,0777565653088136
0,0720212234532066
0,076236832201554
0,077812886322802
0,0763477751774341
0,0800406013917515
0,0755071431803247
0,077381934289124
0,0773673508184323
0,0765703640319996
0,0778169269847942
0,0781400727568631
0,0788708806474252
0,0792898465956754
0,0855421207401048
0,0783814143426284
0,0843871576310899
0,0808611598425415
0,0772810514019026
0,0824285563449063
0,0783515130622944
0,0823371600832566
0,0845462841150207
0,0777399354065596
0,0982351389628611
0,071626331216589
0,0954214236925748
0,0768318648153731
0,0919300263116692
0,0772344134572908
0,0884334426416707
0,0769338021358559
0,0905903978976418
0,0839228606209664
0,0856601781394357
0,0867168432799312
0,0858067358544036
0,0899759545810119
0,0841521186976969
0,0879198652759059
0,0890133963472391
0,0915072293255974
0,0851020592181453
0,0936724443787825
0,0824368954097986
0,107157490475715
0,0912902636886404
0,0935108907760877
0,0985849476286829
0,0874507878803257
0,108533844018737
0,0935754416026556
0,0960956343046857
0,0983595639416219
0,0970105436497243
0,101830600658158
0,0945707372719875
0,109768025146409
0,0994744124122866
0,0975389299117679
0,106090671182883
0,0981202311032022
0,114314607871587
0,108456048263377
0,105947325295227
0,10403878289036
0,109275019798184
0,104515773240163
0,112637759935667
0,125027083987933
0,102109200897469
0,131353254716301
0,1093964948239
0,124675720351285
0,113247542478575
0,123421604739554
0,111828614157088
0,126699595597116
0,115375381727063
0,128360411888109
0,120460671188203
0,143357226143251
0,118108426184355
0,133733873591556
0,13088154832566
0,134372849338399
0,130530738760764
0,154407406652191
0,13459945339368
0,143074863513298
0,138984434692021
0,152275486726211
0,141692852696759
0,146124929659235
0,150515932331961
0,150481792659985
0,153439126290578
0,156191118285567
0,158912993001089
0,158959077464797
0,155989166655654
0,169841823044293
0,162841582457949
0,188400584490551
0,16568080630123
0,188862995861239
0,176731276789729
0,192714805738398
0,189319336052762
0,187647753622059
0,193015206682707
0,191710678518499
0,198132037871064
0,198769958381737
0,204536573996522
0,210014728104885
0,214333960085453
0,223723069781806
0,205283791493585
0,237688051633472
0,216531530468577
0,245042599620545
0,226874560183094
0,303890388413159
0,251375838621275
0,242118028303849
0,260606822911469
0,248451675881571
0,297694367256886
0,265758091317147
0,272468365912627
0,277442280671468
0,279949274032711
0,283290581344597
0,296712844145948
0,298185267941028
0,304488143158212
0,309824160568939
0,312026041362957
0,315433318436176
0,361151642424877
0,346210179468208
0,346779564040597
0,337740854676985
0,354607193088564
0,356662605489639
0,35832810970361
0,359020407638816
0,379748338880488
0,36833530032054
0,41872645010743
0,382366428933731
0,403558246625122
0,395185438866612
0,412628059341498
0,412998212026391
0,421165840089581
0,448947806978563
0,424330459981956
0,445418381723366
0,435997431393747
0,456946791793197
0,446757670370104
0,474065503875794
0,473890057946116
0,471008665493545
0,488923801564759
0,487729104320566
0,495985129272636
0,498175007290215
0,504997060212545
0,508356562774244
0,532484225701345
0,551178246108865
0,603908503442652
0,569861851845657
0,525793810699458
0,555741555787514
0,537412031315421
0,56935487422621
0,561331213142683
0,572450468536021
0,574899857596335
0,552489040711272
0,574145139043005
0,580322872125702
0,582866325506001
0,584631842422507
0,598503846470246
0,589619275588019
0,588219388937575
0,6098292231796
0,566106103595974
0,655171336726609
0,579766526944972
0,584476372335971
0,584417893226192
0,58157672085247
0,583584604265759
0,591186643989537
0,57043377342065
0,594736278166998
0,567647191375466
0,569188357882964
0,553145944309375
0,565852624260423
0,577714143267739
0,543249878142451
0,541682656143264
0,538954029641356
0,523204215899679
0,526317234224034
0,526536825252301
0,553488554446853
0,49346686401691
0,49162384015581
0,491029733923052
0,484255843273039
0,478206881653107
0,468669115095585
0,466295218150354
0,463617309579246
0,442631463468717
0,448071153086926
0,438599294066154
0,428723963778352
0,424437342495672
0,415248794780228
0,419133381807609
0,408232122218266
0,400172762948886
0,394108969472421
0,382366280142281
0,379609752709377
0,378147807146982
0,369307311782616
0,36542346915137
0,365786619147137
0,36161016609505
0,353560945747857
0,349292400085237
0,339713946752892
0,340737581312998
0,334664989394234
0,333189292710263
0,330466388545317
0,323180719563506
0,323769699160403
0,322004717643432
0,312400305159959
0,312941937136168
0,309131460046735
0,310602765924954
0,301672365027323
0,301232944319531
0,302295238302607
0,30188915330104
0,309837525254536
0,282238836288615
0,299466752036672
0,283623187690198
0,286374454079775
0,279503042392234
0,281636151460172
0,288993654849012
0,270537883779009
0,269244426001117
0,26536955643065
0,26430603554974
0,273230082709064
0,260861815002252
0,262429865223346
0,26744410411933
0,251741415935024
0,302663374579409
0,256836205745698
0,303144011268382
0,249602956792174
0,255945595003655
0,248344701057608
0,260635124331905
0,244541647891143
0,243444850243426
0,256028780976673
0,24293979160155
0,253595241838187
0,23679380761428
0,244939227018253
0,237715089006664
0,237875749540643
0,247763785396997
0,243841168497505
0,237437781834565
0,242949682708734
0,235123890248663
0,240158221135908
0,250850984632139
0,233392091363193
0,229262400114967
0,223093816031036
0,23295056812221
0,224909500320128
0,23193136477673
0,235017930395559
0,218220845400708
0,22701722708554
0,215660422831552
0,229237475984167
0,221287466233403
0,229232241962797
0,212718022500443
0,219508142080047
0,224021761741685
0,210259534452832
0,237973600196233
0,221308234741511
0,23365960727956
0,210933020683498
0,217857743456949
0,210058800857775
0,235639107237109
0,213074621452551
0,206928459786296
0,209399066764953
0,210631770794272
0,213270878319223
0,214590960586722
0,20499425329761
0,217139135064548
0,208909393934032
0,216242081923766
0,222665601896728
0,207536583759425
0,204463132182522
0,200007604956084
0,202328262597803
0,2046486577227
0,195157472108579
0,208289351743754
0,187964694638398
0,209160372160874
0,193441543151989
0,208122595003815
0,205041318060346
0,197713034364545
0,195068651687132
0,199853877423926
0,196599894861583
0,213180779651156
0,202923614338316
0,205093237872768
0,189206288000969
0,2015255474783
0,196364484239177
0,195737275448806
0,196621766333843
0,193441949680828
0,194187369187898
0,197093336749197
0,196769151860098
0,194537889993784
0,19327381809736
0,2001693825719
0,191996573717841
0,205538798888824
0,198457427562791
0,187121176559397
0,2130506349515
0,188865325805294
0,209094177152653
0,190756117895914
0,199532027891524
0,200146690647843
0,194492396161847
0,200393945042212
0,200446326342639
0,204320090324419
0,201870655872733
0,195432150010668
0,203793536843671
0,192978917877154
0,208465380373993
0,190543370647971
0,215846752132074
0,191504807177989
0,213323865876993
0,193432033028396
0,195670655525281
0,198828260175283
0,198426757589676
0,199191534884395
0,194269075234803
0,198653008531199
0,201977739042511
0,197982762149037
0,20069183431024
0,193035664182493
0,198524455855127
0,192661156557224
0,194197042223505
0,195697149638594
0,194563316401379
0,196127194246595
0,19519606716314
0,19479262361128
0,206773900805967
0,196946161125719
0,205314158741689
0,188924252926935
0,20034787733939
0,193385131669939
0,197331660667939
0,196130446566371
0,193633438322171
0,196809541143928
0,194343941405488
0,193767945287225
0,196656420439446
0,194087740801122
0,201946229731198
0,190732651329688
0,204255035230345
0,187705207240706
0,203714467612825
0,185192574114363
0,21405271082761
0,199437830163598
0,199577716885008
0,198531191183291
0,19348090852605
0,194104004096069
0,193549558368021
0,197311126032628
0,193040942898594
0,196801090085366
0,194112028617253
0,19279577641963
0,191256838280852
0,193051926641504
0,196498360196892
0,194999382749988
0,198681329476684
0,191166824285078
0,196778742817171
0,188923661935155
0,196315455057774
0,193402018887202
0,197895262874944
0,195954455550606
0,191848241919199
0,193295776968044
0,198116674184793
0,192526136965898
0,192003281984844
0,185093223966097
0,19416062160036
0,187765363510067
0,192902590643103
0,193215800326461
0,189349117314492
0,198978728860337
0,190141650341597
0,192154199794991
0,190796130560218
0,193303886584799
0,192349752620886
0,195747130750453
0,193196441297859
0,195493370219617
0,190281120026523
0,194675830252684
0,192453131264381
0,192816598040266
0,193346158581989
0,193147182127467
0,193462631630595
0,188496826352722
0,19114460297362
0,191315551363909
0,191628594913214
0,190033870256203
0,190566017465426
0,192108650367925
0,189022074343678
0,198518380121032
0,186235333822463
0,195407254219616
0,185858779788466
0,194107975083743
0,185795487653733
0,188237479951251
0,187090232468812
0,187969897778469
0,188438134929514
0,189686129587221
0,186584079742002
0,189398413180591
0,187550679327139
0,188439266809492
0,189328336427831
0,187887616783321
0,187601642342097
0,189319357872007
0,188632380918595
0,185209941353558
0,185278625315441
0,188711840763315
0,185377357518268
0,188395931885225
0,188340862636488
0,19275944933606
0,187264170596712
0,189662308206265
0,18977960509334
0,187620571448583
0,186855534728095
0,184740801056645
0,187197375178607
0,1847384138088
0,186471274836059
0,182646639204517
0,187049348763764
0,184215237738439
0,1853425540386
0,186444645798823
0,186053859213852
0,185602217799229
0,186406671510559
0,18431352901513
0,187156350287053
0,183944624103395
0,185493435129408
0,183949883947789
0,187779657341495
0,18632772542878
0,183024008187599
0,185902497982859
0,182682129389186
0,184154392186527
0,184948311929947
0,187910004129807
0,186159599992593
0,183411854352248
0,185925924330394
0,185755371702638
0,18457758688806
0,181267794837004
0,182509658001163
0,184519062756009
0,186610428755289
0,184877357996818
0,183962555252217
0,181394478664438
0,18158693418954
0,182565589702829
0,184290375406177
0,18318300144982
0,183383329077615
0,182676073472906
0,18003746114442
0,181375590873865
0,182168571410668
0,183284902553891
0,183148408009244
0,181791341787057
0,181053740589457
0,181407343845608
0,181510345140825
0,18224878761023
0,18005920695005
0,182843027093886
0,182415476654031
0,181700781332816
0,181301687327288
0,180711620696488
0,182714039512678
0,182690481779059
0,180856189543325
0,183862207928935
0,181469311205886
0,181663952683921
0,182547671940379
0,184055101913753
0,181856471359501
0,18278598847016
0,183221114165896
0,182257768006389
0,181309220313339
0,184517844789622
0,182841033777917
0,181228278388742
0,18279873263247
0,184533019587568
0,182231967851837
0,181904013239126
0,184457891103532
0,183687276302415
0,185500543773062
0,1825475381348
0,182328550553584
0,182672099720741
0,184855600869137
0,18418046370885
0,182054794825058
0,181652825858376
0,180739934418302
0,179495572703703
0,18176779086045
0,183075184604147
0,180401655568892
0,182052895530191
0,180210807768737
0,181143720875605
0,183076595976529
0,181940863555296
0,182345665147783
0,183426364327587
0,181585482273245
0,180836570405606
0,181742482312282
0,182909462513338
0,180835088271239
0,182549438720612
0,181398861211679
0,181928423090267
0,182394057734179
0,181819263252508
0,181230658559663
0,181158443037715
0,182741337214324
0,180803411458405
0,180914820274431
0,179582652639828
0,182028454482942
0,18280900889705
0,178798194961828
0,179183291679527
0,18148347019643
0,179264400343241
0,180619186440388
0,181427591005401
0,180267951831657
0,17943195615781
0,18060403690049
0,181657491468738
0,178371253876341
0,179009545451048
0,178422928421448
0,177133669527341
0,177460181905744
0,177784440992108
0,178525239105753
0,176246434408135
0,177011665151382
0,177755187226479
0,175862124773107
0,176659564059337
0,177841975036293
0,176356864835492
0,178401459084857
0,177118890286418
0,176566113769328
0,174832987684485
0,17712099729848
0,1773929805497
0,177833836471396
0,176511642972358
0,176006820936616
0,174270960177516
0,176263508549633
0,17578654360209
0,17456037167909
0,176216703764768
0,177394133606878
0,175959105822639
0,176231575134066
0,175576047347758
0,174320877421872
0,175856837766389
0,1745896838683
0,176833831805554
0,1766039969556
0,174332600577002
0,176157876841483
0,177791566272329
0,175902123795403
0,1771585968429
0,177685802691481
0,17950375390516
0,179011039553297
0,180158218500951
0,180155518427352
0,180877273526432
0,182377207834847
0,183393918014832
0,184377800446045
0,184828041834549
0,185118127907542
0,186309343017835
0,188782873342185
0,188617152222881
0,188893721783123
0,189929389178978
0,190129583221741
0,191445074932929
0,192166878372949
0,192989113956202
0,190438147605608
0,192630844559698
0,191442457194048
0,191846998833151
0,192253835620297
0,193365295641481
0,189344254412483
0,191599858244979
0,192016280711599
0,189692530864492
0,189799335374842
0,189888361192585
0,190017395651601
0,188206258167845
0,187982033888063
0,189759875120997
0,189931993578601
0,187797933047453
0,190874299587257
0,18956507881382
0,186704779781377
0,191054123293385
0,193687955966805
0,190194425649559
0,192837306179313
0,193072594857539
0,192701588213235
0,191358364273934
0,195742025040539
0,193788460188835
0,195372738909173
0,197017879489423
0,199292729623786
0,196662200080356
0,198292099992021
0,201239898636051
0,203210244687426
0,201820858435078
0,203127814671759
0,2021674901082
0,20382422274197
0,201951831033293
0,202144994970909
0,202425945971197
0,203093918777634
0,20102818790471
0,199827809087948
0,202332352808519
0,200730462785645
0,200009299848865
0,19871608824016
0,200709518983026
0,201272310060051
0,199192253332179
0,200023422817351
0,200701801261757
0,201930538985925
0,201482388232023
0,203669075408885
0,203106541907845
0,203282564561709
0,208561664149182
0,206857108750624
0,208431864255832
0,20682091314043
0,208735112417296
0,211546449939249
0,212724759283415
0,214280821154658
0,212698225661372
0,215037839861364
0,214115217519099
0,215824107046842
0,217677879167063
0,219443200430119
0,220711284381452
0,21987785641857
0,222496026231969
0,223356175942234
0,225612093234055
0,225593260476886
0,226956544033451
0,228593999448115
0,231075029738155
0,230569973094832
0,233253839516209
0,23264632450301
0,234280692779099
0,237089802268098
0,232498242119145
0,232894322248468
0,229166223241807
0,230036736214751
0,231611206479792
0,22969126140406
0,224500576844367
0,226379545746146
0,227612246477981
0,222555051137503
0,226553107305498
0,224009359494313
0,222864111345086
0,221269541313998
0,226161705893993
0,224402622430015
0,225024050768241
0,224833940659148
0,222596485411376
0,221979036516118
0,22448406637601
0,223523362533376
0,226234244832514
0,226621894328382
0,228951220107949
0,226828314202794
0,228331101112476
0,229568726808681
0,230359048321159
0,229322222038414
0,229628378771648
0,231780668045331
0,231456451248396
0,2300955228645
0,230117540742678
0,233026578007118
0,232167608125564
0,235106490812623
0,232656695978391
0,230189598473333
0,232591992417814
0,233652236429564
0,234599784952086
0,232174079505914
0,23325294559099
0,235390208924652
0,233696736243835
0,23109580700788
0,233488481649935
0,229507477351733
0,229850811459395
0,225672505939082
0,230275109235706
0,230028201296721
0,230027187569547
0,228646310282654
0,228369848266515
0,228251823206253
0,227513933728999
0,221271120628098
0,224468992789395
0,224363315009024
0,224148075550464
0,224024765154349
0,21829574638298
0,216416881161884
0,215520834219879
0,21288508623586
0,215477883546686
0,211950202088887
0,211659440919349
0,212130857560686
0,209630256931242
0,210342304286248
0,211163380116069
0,214436985997828
0,213087522808112
0,211333887799019
0,213760047309761
0,214000482170876
0,215641688692249
0,21383413044873
0,21605409093106
0,217681573080469
0,213194708105321
0,215011321348619
0,216222286567354
0,217496430528867
0,214690244207619
0,217376255993948
0,215423971279757
0,216694662762403
0,216052661031397
0,21806087267926
0,213304979193916
0,215380903326983
0,214600092887641
0,214240897163332
0,213701922097975
0,218364963396405
0,215236066230504
0,218655463551853
0,21736248594658
0,216745625511659
0,215832101263041
0,218164365279997
0,215829467718796
0,218907320710711
0,215930706094957
0,219589377064033
0,219722664079786
0,218694697138009
0,219311083358385
0,221193792877205
0,218883697363532
0,219920183666063
0,223008676761401
0,221877096723087
0,226163277464317
0,224015452461918
0,22762329092536
0,225583247275632
0,226188239187048
0,22895659229642
0,232082407941474
0,229047815768413
0,231207995509793
0,231994364812844
0,230142416194856
0,232966304229092
0,232460691126559
0,234861612968438
0,240393029773628
0,23930125807353
0,239584637046468
0,24336255633759
0,2420241133292
0,241709926645265
0,242171194534875
0,245543069329447
0,244627639925879
0,244428442788058
0,247454689780977
0,253444342148262
0,254201979947394
0,25112196346183
0,252008708789996
0,253705336025561
0,252920621668014
0,258852417239969
0,261032888552779
0,257844036214097
0,257348371896585
0,26267973675444
0,260352217628188
0,261275188158121
0,265218397328495
0,272708348622424
0,271339227455151
0,27214048137151
0,270989218481661
0,273220818800838
0,276487559373966
0,274753695990199
0,275280934145402
0,282087488964279
0,27906770192588
0,283958760957485
0,290124915728074
0,291676335655345
0,290987424667946
0,291111876125188
0,289385843863356
0,29591317656408
0,292904703401221
0,292872828459332
0,304150833100148
0,305753067754725
0,303166175336081
0,307897114474978
0,307342401116487
0,30698657335379
0,30664776706585
0,312035620327556
0,30947025479697
0,311192596982573
0,319358307860422
0,325932018951337
0,324319362006436
0,326301239783259
0,335116684572425
0,333786587891829
0,336511803945914
0,339497906189863
0,335662053362505
0,345982967025139
0,337915962695149
0,348132895888635
0,346106185046998
0,357111004191738
0,353888244602519
0,359930246796824
0,356610185639601
0,358560233255281
0,350192946915278
0,359673315273425
0,370550249004369
0,363719264845402
0,367041591346496
0,379101321118039
0,380734914259688
0,376192967793578
0,387115729302371
0,395076285972553
0,38546976538487
0,386043486796406
0,393103808592283
0,392442538349369
0,389437223136627
0,407078531032051
0,409497215003413
0,404626887730731
0,398215649083862
0,41014584522536
0,419105396491701
0,420111589261952
0,423539176313859
0,417579089422442
0,420899615785436
0,425370260492409
0,433723293120637
0,432133823050571
0,439334842353805
0,442962151805195
0,427051907538361
0,443850828306924
0,443838417718991
0,459697707749774
0,444577711940344
0,457006996392312
0,466485833219116
0,462168016375809
0,458409311894757
0,46972622695002
0,463169030505296
0,473683700048284
0,480112358010427
0,48671467472117
0,4877751185457
0,484048605842895
0,491088764134332
0,489601735753536
0,495630673194932
0,50630620188267
0,493360790657007
0,510499785518888
0,520841101677742
0,518761372460597
0,521629546385109
0,540447037490211
0,526183243601941
0,532721218671661
0,530003108781953
0,539368942810482
0,520725021876207
0,546785332786778
0,527568176718502
0,536230278237304
0,548814493784573
0,547896790883554
0,555185305641053
0,561478708571993
0,560169612331366
0,564632716247732
0,562732479185775
0,569646435878538
0,559290506737452
0,572306876061105
0,586000280607148
0,575288152876879
0,552872417733417
0,570938193448674
0,578238448176881
0,596351617814896
0,596223709804513
0,619335395315692
0,597646854989744
0,615210373777739
0,612399607001902
0,600148007751011
0,610392532237486
0,618953562041895
0,623922677431295
0,610761583735361
0,624749263864805
0,63844028826517
0,609986306740476
0,639208612240735
0,629635366336607
0,666792421278155
0,673008213278462
0,664397482533426
0,658752216639293
0,679203013454799
0,648309141003513
0,657724959742949
0,670495700825054
0,701978585327357
0,665152632664858
0,689071500748316
0,691776754733299
0,693757865635851
0,677444451930883
0,686100404182902
0,678354660917058
0,695558334265617
0,693062928832199
0,744509932666618
0,717070119517789
0,683514817971106
0,705249890460576
0,75621233922315
0,706296694478731
0,745795672466586
0,74601717491774
0,775196788276161
0,76089448709259
0,76280225703919
0,763741640926922
0,741874985738577
0,750077167058106
0,792396948251374
0,743752571920909
0,799016102480516
0,798657934029821
0,771975179595588
0,793099317584743
0,814549570810018
0,776912890279816
0,785027252898909
0,719787686907161
0,755364026683369
0,794892803032109
0,827508159250833
0,86788848147056
0,823516513597826
0,73055702151191
0,785412611906199
0,82129919742106
0,880977517187536
0,824741493912143
0,849998859728159
0,776470678203094
0,767917621410959
0,797163543443008
0,871164408723619
0,943708438074591
0,908032616317329
0,883460381861985
0,922099605004288
0,84441533385327
0,841079700127707
0,946843581411139
0,862012235834333
0,90779831071616
0,875388856685757
0,811674206305246
0,883406202957393
0,910226182317098
0,928660892892354
0,920444587529665
0,947227547993382
0,82659079682413
0,923282594960894
0,94683579784168
0,866555378950372
0,857686587862137
0,936245793887877
0,817701804522508
0,961722584413764
0,927595377589434
0,958333408025155
0,915606153223779
0,972602311421072
0,904848727042493
0,926750689218015
1,0187693642004
1,03147560326892
0,850427835607093
0,847933126128428
0,928147280536522
1,04275140027565
0,973446882537931
0,84927784936242
0,90837691187297
1,11602305869026
0,815730415935761
0,838042656450003
1,05877002250354
1,02474038051294
1,03666930865368
1,06137377538693
0,884887041141623
1,10406694735106
0,993140988982604
1,06718454132355
1,12781985075869
1,03610083988375
0,98501322903118
1,10212846090892
1,07396238030638
0,850620131507545
0,893974298057745
1,15805767898537
1,08076069762539
0,99738757257675
1,1882249432608
1,85212849564171
1,03267061539033
0,990960354179339
1,15980628943792
1,18211802333732
1,18746876858912
1,20229300327396
0,926602434027828
1,46291211633367
1,18694248290212
1,3466092061958
1,28499088825619
1,44831429488313
1,4614739555368
1,52531436793096
1,34828546367574
5
1,01097583840468
1,06940570873133
5
0,923847667883932
0,897111746245858
5
1,05359489028062
1,11561349491517
5
1,19438822803638
0,896815119105641
5
1,26462503952836
5
0,68000136315965
0,586286459596203
1,65119142425881
0,846501371524328
5
5
1,08814563945848
