3596
4000,36533379555
650,420452594757
1
2
2
0,0560079231593886
0,0383455572078251
0,0461296200835732
0,0384513662996287
0,0616271962952952
0,0398009735987602
0,0536934598385014
0,0442092404652347
0,0480585285405079
0,035085161124146
0,0474914152211605
0,0375889073022047
0,0443405477788763
0,0355536534395131
0,0436115343494268
0,0385860997116546
0,051210900670293
0,0404534703839359
0,0480546349259732
0,0363157875484682
0,0473584978926948
0,0365742755445028
0,0567851788726517
0,0386614791784261
0,0457488545267494
0,0374024873270051
0,0476257983148357
0,0353744553903569
0,048471912179362
0,0414399761864528
0,0447113331363969
0,0314253847611689
0,0510398611673248
0,0385000330334563
0,0544009127348559
0,0367269622526099
0,0501907148786115
0,0390703439402016
0,0464440321311152
0,0338838865734461
0,0467377259012801
0,0318583578554768
0,0457681838853366
0,0370034823652392
0,0478616286442153
0,03280768380461
0,0527087989895587
0,0388720948940719
0,0428281203043705
0,0367539562189708
0,0649014506431982
0,0362734184283998
0,046262318685439
0,0394186146051136
0,049215015706164
0,0451990892459695
0,041712369199876
0,0313087428499532
0,0512687177115171
0,0283398382177293
0,0555580001787698
0,0523775050691906
0,041720557737784
0,0425738620950045
0,042742993488436
0,044605285433683
0,0343129299178155
0,0477953861168021
0,0448847998746126
0,0404401112853876
0,0482210706041285
0,0437594668606718
0,0547697561738133
0,0354777841779254
0,0506212955812239
0,0342977995828743
0,0433599492608444
0,0359825231966978
0,0372349208460153
0,0338695131187868
0,0514664492266419
0,0353510760529843
0,0468849669538506
0,0311845311211218
0,040428426362086
0,0527937713653763
0,04359752163442
0,0350171659670717
0,0636391722817226
0,0406421580207487
0,0459403673502598
0,0368986167791034
0,0418188124024619
0,0386951078339677
0,0414620575495176
0,0277463203662678
0,0399615345177474
0,0376758843965951
0,0395516154150486
0,0319238421209747
0,0416244335589021
0,0232742112822588
0,0884148653515106
0,00754551688326702
0,0713304690013384
0,0291692187819803
0,0320221139834601
0,0512055495824377
0,0511644371222033
0,0437762934658941
0,037437428983266
0,0407528897742436
0,0403815608277839
0,0438937197265037
0,0312677011880849
0,0293519049053804
0,0543743373323681
0,0366262084555465
0,040304721176139
0,0417325211629211
0,0316375523947288
0,0387345032396191
0,0572680722117466
0,0282730357313445
0,0581148341712944
0,0327154460078665
0,0349911511931618
0,0444791099051059
0,059148125337352
0,0320869549147419
0,0424403281545418
0,0339697149558397
0,043478531672344
0,0133104710669798
0,0676359633901991
0,0294170037755445
0,0535168636296811
0,0222122403611197
0,0559214089383253
0,0599430304073109
0,0437791856638876
0,0369653910250686
0,0356192153728825
0,0281035538409619
0,0708876379700824
0,0391866650508892
0,0300627500624914
0,040048366386227
0,0507511546495439
0,0341380544711026
0,0443279981673547
0,0229943920740879
0,045600750454903
0,0320910723925593
0,0151679752526782
0,0560717807399001
0,0714277553494385
0,00255316163081267
0,0930325424498752
0,0138778274355566
0,0596034488338265
0,0170676614616164
0,0491806451977448
0,0269854793978079
0,0592219752487766
0,0188440374620744
0,0480154789251162
0,0529945373962789
0,0292916410827281
0,026747993916435
0,0721622699907673
0,0393655123740237
0,0234096952805495
0,0633397138002934
0,0464938904736205
0,019675320472309
0,0596619833526244
0,0408737458085626
0,0377179167905025
0,025444903554105
0,0643058957436942
0,0265702818200454
0,051436770797664
0,0282372915897043
0,0530741505511036
0,0416314260562169
0,0473296846527635
0,0346168464778752
0,0443743791693649
0,0168873739339011
0,0503687049410948
0,0415353012102943
0,0727379362328665
0,0243767978862015
0,0496558247193517
-0,00174945798281816
0,0699319329676248
0,0400583844520174
0,0465035006403978
0,0283567737305524
0,0423138817341677
0,0428134674608448
0,0419414739750327
0,0287288862405611
0,0464186553533746
0,00273290080968025
0,0757514873329637
0,0391148985915345
0,0535421588897305
0,0289959261980595
0,0471382296312421
0,00813095731763372
0,0790598456662527
0,0421467782481344
0,0461258949638567
0,039958447038323
0,0290057908444201
0,0423136696718839
0,0493014641307473
0,0354259494537357
0,0515456158968315
0,0308149612398253
0,046594268755258
0,0324713466840686
0,0405444768749268
0,0385182120169199
0,046681345831988
0,0411671232142639
0,0486710927286405
0,0279849002961555
0,0512991997002856
0,040594546021944
0,0467691172632546
0,0396316111083634
0,0414731380503413
0,0431538652613135
0,0658106820166681
0,0369902822051754
0,0536719110600701
0,0318847686951619
0,0592270123327595
0,0360890007648469
0,0520370819031052
0,0342671598706657
0,0479912001374871
0,00746556151283233
0,0792579862757862
0,0299926117780111
0,0570838522121061
0,022332730156255
0,0638937602044051
0,036342788705699
0,0528555345574761
0,0386897256022358
0,055201100138083
0,0333001387914346
0,0407893672690275
0,0512779759630968
0,0541809983341028
0,0347738663854084
0,0606238984241543
0,0377283807605233
0,0528478947753441
0,0355348417675769
0,0277083611379865
0,0865441283759006
0,0510138568262557
0,0309816719978326
0,095528232494989
0,0354394290826923
0,0616983694061275
0,0362135447765946
0,0175658273060693
0,0677983938299344
0,0761104707425962
0,0458378157204208
0,0501042068934806
0,0573307250919145
0,0424940630264174
0,0444360467192568
0,0459760430421665
0,0407423596667649
0,0625349967802016
0,0485540817803838
0,0973220115431039
0,00203210646896154
0,0933834658141553
0,052207348977509
0,0609914658299739
0,042993969747082
0,0609830783540117
0,0427004146506589
0,0681204095218655
0,0415042915536727
0,0675304413274953
0,0461070557382225
0,0458486322727444
0,0749110169163958
0,0631640831633758
0,045657206771169
0,0660255295586901
0,0603718730730467
0,051543163984431
0,0523709433327119
0,0575578615679942
0,0623328759884598
0,0586981618694
0,0372629531491045
0,101054179167919
0,0632357935323332
0,0594745306510629
0,0672457573277937
0,064101360871196
0,0560628961743638
0,059931261585704
0,0558357360020201
0,0643574287571634
0,0574697549435731
0,0501770022659933
0,0741589925734718
0,0658148830141191
0,0637688474031938
0,0678560457755901
0,0634029818008968
0,0679032288312121
0,060343139094939
0,0698762960121249
0,0640874569655805
0,0773392428547507
0,0528602993357318
0,089187504488585
0,0825793651223288
0,0550132303927067
0,0925751032058608
0,0920621796024495
0,0645281433058731
0,0772456850244158
0,068386915305212
0,0842737264308695
0,0724761290306863
0,0854227895185038
0,0681254718962877
0,0778794475254291
0,0864950461004759
0,0960968131453961
0,0731320317152292
0,0825864133128902
0,0886750423254687
0,120521179278217
0,0752745708240772
0,0985080463000641
0,0580494521689885
0,127509591247016
0,0795267291734671
0,107512913568227
0,105843728152642
0,0927698112950073
0,0982998591922843
0,0999548363649532
0,107861005506655
0,102570138235184
0,0999398845259565
0,108726018138939
0,113677586645556
0,114461516111806
0,115010325487153
0,112917255063225
0,108600168048651
0,137270532553514
0,119550873673301
0,122608364476762
0,122561677233078
0,113892492020856
0,14757699425886
0,1208239725785
0,13796436275314
0,14411680474252
0,118558559066316
0,165678700003443
0,127625562982391
0,152130160774003
0,130244497551894
0,155177662478209
0,14420932308237
0,155390270891323
0,14048444773166
0,163553083719665
0,147458814797609
0,174938876294085
0,153882197760072
0,16900641093852
0,14301721830549
0,188003891269972
0,157959403662201
0,187830099938643
0,152106529441059
0,197196687791153
0,192000224359832
0,233111312962617
0,179680551447164
0,200140647046258
0,187276845549686
0,201570202679572
0,187788306705445
0,204863626597541
0,208189092119467
0,205589292102712
0,23162249136826
0,216226505278106
0,193681200538303
0,236646871536629
0,195525886939713
0,238117683933952
0,20823850322451
0,235445427352764
0,226960383081127
0,249491223444932
0,216692278499214
0,265993085872732
0,235477030699625
0,247276141681076
0,262220649285858
0,253468242610213
0,253665921792763
0,262944372652759
0,257474185904788
0,267227222050651
0,267294731015421
0,280028663405917
0,268560013707342
0,28838006933823
0,282955443641934
0,290637328365642
0,281987916371319
0,298727070574577
0,280233100346996
0,305562522476669
0,276532287235002
0,324192884801872
0,28077023294905
0,338188226788345
0,305834940488018
0,323233768694867
0,321485423863473
0,316264910684733
0,321979039320842
0,349482383536274
0,334150378987934
0,341570003374924
0,329364949741001
0,355133385746675
0,348780234562603
0,352676860173495
0,342569490131686
0,369044776039325
0,366462317433134
0,376073081718864
0,368290667271329
0,377938708286148
0,354275984700241
0,412003279712849
0,388272595268708
0,424201108834011
0,374702960013187
0,435480853529192
0,39005919314129
0,401137051101269
0,399181435956676
0,419371969737054
0,411256055122208
0,437231203208719
0,418727505194666
0,436735099102869
0,42322934592042
0,43326067990002
0,429228399782137
0,455509003430721
0,424909122771925
0,451349384185428
0,445403133693251
0,477235134994004
0,44626210545645
0,489416558645912
0,465231912717521
0,505064085728641
0,481173761125139
0,487193230899225
0,499937438889503
0,502822169081312
0,478073853788162
0,517204097010716
0,500609860753663
0,532481935967252
0,489850191978572
0,540038045321737
0,505109887420326
0,556891381459771
0,514826311202364
0,559814272177378
0,53022141318775
0,546040773434641
0,542766950907664
0,571632224058474
0,539839846959919
0,562318514412718
0,558814776876901
0,580805347865489
0,564732962146975
0,581107919126097
0,557932645205814
0,603417379994771
0,543346455344323
0,611288882659441
0,565840797897798
0,583724427635577
0,604492506756941
0,620131404858728
0,589015703064271
0,64579174857014
0,597269500706434
0,640189949253977
0,607826441948284
0,66452057352809
0,615980248278634
0,672788406537239
0,61769420626926
0,682421501931294
0,63968866959182
0,6561412019235
0,638702016143469
0,694430825720613
0,64640159381731
0,693387930345366
0,659509007247184
0,69213213411285
0,655643319198427
0,726879028105925
0,64845585029591
0,697568096498728
0,692858501106657
0,73514938435165
0,680822772621938
0,76063975162472
0,657359223924257
0,751489502005334
0,689039426476357
0,763136289129865
0,699957248539673
0,749483506118133
0,705572720632037
0,78323925531313
0,713575011557812
0,80236907869138
0,721269853177276
0,749628152571404
0,737006585508517
0,778473793404667
0,742130658963727
0,813825641604937
0,740793875506523
0,785610483234757
0,777853499086818
0,826159065681167
0,765571556639859
0,791036169931429
0,785842102095865
0,845010711719451
0,749333737170384
0,820824447227632
0,750284694439822
0,82700042104327
0,780665151459763
0,854337505719142
0,834991725162961
0,850857447367031
0,806560857289606
0,886153711120211
0,792140780697519
0,851387251747731
0,79709656442458
0,906632886831362
0,827158860236166
0,926921058634766
0,829582708536554
0,949189488400853
0,877358660807656
0,963514377469103
0,855689225391806
0,893174183483601
0,858075124385273
0,900510879025501
0,912585613025545
0,910208727616688
0,87218633194959
0,92791804519561
0,921794290079845
0,921216341406785
0,878430736920831
0,943176872232787
0,895400775088064
0,934062299085699
0,91563284895746
0,931484987914198
0,902540234731165
0,985443910585882
0,856198120831549
0,985869107764966
0,890319714917405
0,975404699724315
0,991676838014028
1,06192001886197
0,940553503379112
1,01308048999467
0,942601974375819
0,959306809972454
0,967804611014322
1,04763277789614
0,982228340174922
1,08299637951769
0,953865810555121
1,06513695291888
0,99804674030156
1,03022144605417
0,992457159624519
1,03709200984426
0,958749138848969
1,03955418254926
0,973444893838931
1,0259227228655
0,944584021471888
1,08566099006633
1,02664568231408
1,03031558958243
0,946249188465078
1,13067829656219
1,00906093363907
1,08174717227607
1,02269561806579
1,06732642551819
1,01703605513055
1,10540311241543
0,979304813339582
1,08081670494532
1,02508166542791
1,13350521565571
1,08569033186607
1,15775405228579
1,02862400306021
1,12950280177578
1,05717132773586
1,06923045082366
1,10624306983527
1,17937332359202
1,0118826324836
1,15139761881153
1,04967290535754
1,17371896103177
1,1011892975319
1,16723236570167
1,07102811600744
1,23439069473943
1,07881921941706
1,17590375544165
1,0790819398678
1,1894994790697
1,09914829627282
1,17976662736908
1,04321562101554
1,14375873714954
1,11287476158737
1,22608812492509
1,07270902892869
1,17751215306102
1,08024180309515
1,19163511227454
1,08129697912297
1,14239577152195
1,17144045824139
1,21960199509245
1,16615910250584
1,27426527507506
1,11150509689437
1,17748321133231
1,14842584036645
1,1281975601798
1,14276459649272
1,22283609797428
1,12550655848486
1,15876543610204
1,14287735077072
1,219698796758
1,14235593766093
1,2199928778296
1,08123402897367
1,16459242968088
1,11097128981475
1,14956502155118
1,21811601599334
1,21272473527333
1,10367472086888
1,19239316629155
1,20139531666583
1,2552696247004
1,2022120521833
1,27799743433489
1,08696479346273
1,1868946870711
1,21072063242278
1,33888569666038
1,17234395778996
1,21602740382787
1,16040290192268
1,19387990742389
1,15075694137039
1,23354116331787
1,16630241782451
1,27041870272844
1,13076009371966
1,19175640129557
1,20345035697033
1,22004402771862
1,11841695969482
1,20204879097767
1,19262099839429
1,19742708965579
1,12479475176716
1,24116063774471
1,15926019755079
1,30878492053601
1,13453445462467
1,22727279105244
1,17732235654985
1,26123304210074
1,18747683895475
1,3128767513681
1,16571989484555
1,22639091220611
1,1416678367493
1,27266327750754
1,14253915333862
1,12509590575383
1,15005990297056
1,25709226590904
1,1726183161322
1,25885367969273
1,12365671341978
1,24780264008568
1,18064216175805
1,2318914266907
1,1651320016098
1,20470677310913
1,20879764964954
1,2572369945341
1,1493151277927
1,19860789671257
1,13703955399466
1,18558930480646
1,24966869504293
1,21442253015073
1,18728098574516
1,25376434976366
1,20187311327572
1,26755487207647
1,1997763801792
1,21744275089524
1,10669861511525
1,22737308345193
1,19425563302538
1,18714416300025
1,10101842140086
1,19793595173954
1,15864679406951
1,19758865951244
1,18573848737462
1,24404075518495
1,20848697745842
1,29571734166009
1,1564293116028
1,22370878137345
1,16803644325881
1,23947151796576
1,16234997568074
1,23376619263068
1,12508722758553
1,29998270697846
1,21804595600024
1,28046064763021
1,14081079616359
1,24045848145312
1,22674656172293
1,20815674546791
1,14518877699027
1,23055109859085
1,15210687696898
1,23156804623174
1,18002696392992
1,15048895680696
1,17580519262635
1,21869513376139
1,15771910937613
1,19302953748574
1,17724925592945
1,1778468609859
1,13195442141473
1,2657290679553
1,13991948315915
1,1952844401361
1,22546865292963
1,18346748275875
1,11747812506844
1,1876546015805
1,19858824394342
1,16097665598003
1,15404549349388
1,23152858372489
1,17002928989249
1,19497131243058
1,09126123878668
1,16990791818503
1,13820545689671
1,16412675169566
1,14749234886735
1,17000361158189
1,15863979362852
1,14680984524372
1,10187611980963
1,17274443428496
1,10731848798503
1,15080935550098
1,13402438799454
1,18587610583969
1,11917648751683
1,19482509401319
1,1143214466979
1,18778919030478
1,05161969984419
1,14090110089463
1,08188919783279
1,17383983564822
1,08031722978074
1,12449010893551
1,08840777527786
1,15768652069713
1,07529021338138
1,15541505548599
1,09309690790978
1,13449869605872
1,07667412859831
1,13876821743133
1,0907759140607
1,13134864588619
1,07945498615891
1,09743643634823
1,0504204232136
1,11157932291968
1,05415958234023
1,06881546940787
1,04912082499915
1,10374018714303
1,03399254796047
1,06927468747258
1,03649273959686
1,08589222485389
1,04419543369792
1,08016640534087
1,01490262885447
1,04771516281609
1,03261528466122
1,07232302652196
1,00806158317281
1,04226828578602
1,04998529681943
1,03243621630295
1,0302513927836
1,02510485816895
1,02667664563446
1,06101413676801
0,977784479131142
1,03835318935838
0,992506386235627
1,03699042446931
0,993766758623977
0,981294374972681
0,992931622114045
0,986780672186108
0,970750623727044
0,976092889801434
0,95784600485166
0,972579236369625
0,956105363503524
0,978009538580018
0,92025520672844
0,969096121171679
0,950245830003348
0,979737324700104
0,92796823477223
0,92382541854869
0,910821025918682
0,953119333560227
0,9151195223129
0,911283792613021
0,918938164248872
0,910714737703813
0,880362900005083
0,922222383811062
0,913619856163863
0,924561951389893
0,862866921736836
0,916034640691444
0,877041933203187
0,893910303313246
0,854803676048417
0,894126451713161
0,875413745434588
0,874464511128775
0,853799099511802
0,874316420850512
0,844716216875121
0,863713657393972
0,848637308093225
0,874542206395639
0,84132426403075
0,842268661076023
0,807518708003476
0,823841932915727
0,816372106633795
0,838491574011565
0,808586095339279
0,824277601461131
0,791370070039184
0,812431135638008
0,786152010527973
0,804560736843612
0,794741072037914
0,816664678407333
0,786202349327542
0,795291645787116
0,768615681125594
0,782472151355416
0,763192163212842
0,790761575464089
0,749169002920523
0,765660418906609
0,740085399063528
0,747603586428228
0,736638516115663
0,749913993157395
0,726396422029007
0,743471232825697
0,711924523719833
0,761912648764067
0,722559215236221
0,739739032913529
0,725281265843786
0,718337596737418
0,70306726875061
0,718818724945007
0,68929442446866
0,715597328935635
0,681345152262448
0,696617779975497
0,700783073859975
0,685143913921266
0,681784080731756
0,688193106169939
0,661958548556308
0,695126646461575
0,676059125695351
0,669116104072487
0,665598347151572
0,669437119197141
0,660354830889192
0,668214408331077
0,662800894994752
0,643341369127413
0,628338352970883
0,648315580738127
0,630695410556214
0,648112054352824
0,636202182044347
0,641782112098824
0,620692697048668
0,630592104734204
0,610423702151187
0,631299882642464
0,610818428032327
0,624734700405648
0,608581482403699
0,613521676089441
0,603298272175608
0,602805147645069
0,594863985671207
0,599842098496987
0,584840355339996
0,600748372747032
0,581941212801225
0,596784524058857
0,58114841240587
0,579722858446911
0,570715765797298
0,582475044306716
0,573174999788339
0,567675717825609
0,567008996314634
0,561803913731261
0,558823208215427
0,55618335592889
0,547142398221457
0,554457799894504
0,54174591198877
0,545543238479165
0,537880475689572
0,53914518233725
0,526335910549625
0,533270279960758
0,518123210698369
0,539175595673903
0,508909409455405
0,528657444550725
0,511184044289694
0,520205735093867
0,514121963491804
0,51848548571151
0,511581423829191
0,5239102531703
0,503063257047013
0,509460137777491
0,491041593721951
0,504827927991899
0,4870483820587
0,496667443105819
0,486823264334455
0,49927383985545
0,468630298572441
0,486823262248995
0,472897968627052
0,483708773161138
0,461166325908489
0,485543591096606
0,461534964755251
0,472825998587229
0,47095699434064
0,466696768334087
0,45035577129257
0,465000071469664
0,459769820811518
0,451901545109435
0,448766950999182
0,456074669533411
0,446939815061928
0,455738464954016
0,444283490455725
0,45654885919268
0,441903338646
0,43990938442232
0,431865784879744
0,437404764964446
0,429094801818172
0,427830862766318
0,418640220309937
0,433448938912091
0,419768354223995
0,422401810760748
0,420355108158663
0,435466892034073
0,422016634611816
0,425526342671676
0,40464010675908
0,420475007860974
0,407413120444339
0,413656018225316
0,408080783030437
0,416081004206776
0,401990064215788
0,408964727334743
0,39792521529019
0,416426470385901
0,402237362106646
0,407027764894461
0,399639295607834
0,403061482147002
0,399604239010238
0,401900165337973
0,402694469465242
0,402475986848155
0,388595562040624
0,406845758233914
0,396452868207529
0,405890615382389
0,391189548276792
0,405884928281741
0,395635832674515
0,402015426129753
0,402343887124396
0,415295010419657
0,40300504514645
0,407398069835378
0,402744566815081
0,406985450156277
0,397969424220043
0,410430792721565
0,400885622409054
0,412898759163585
0,407912975168078
0,420529861953636
0,402644141780912
0,418708450873851
0,409971771208451
0,415283468867435
0,409993394639818
0,414993802780383
0,415932779261009
0,419192908417008
0,416176005433036
0,42122341987544
0,416605915891143
0,427088703380064
0,418624884740027
0,425704598144067
0,424538057838482
0,435292678161868
0,429366998326367
0,440731246999655
0,428393379212054
0,446320169357735
0,437394629964597
0,439778349841201
0,432837315965295
0,4510297852206
0,443398794105222
0,458480421112757
0,447741754469206
0,464037632698399
0,453668088405656
0,463515259068706
0,453649781770134
0,461899692619706
0,460257464370426
0,479517408850619
0,478095930813343
0,484037594653843
0,469169976396803
0,480222540708625
0,46684775004198
0,482823072838271
0,466878530181892
0,485075054434632
0,482833993065183
0,477206297941267
0,479261981996968
0,486317071658894
0,472615173427804
0,488384984781587
0,48123428951259
0,486204520468799
0,482097729305524
0,49227782935427
0,47345854857294
0,485110555770428
0,477714762344074
0,484653467436175
0,479471721849216
0,479137807025266
0,470961328437109
0,490720381995028
0,469734980386043
0,47614788405521
0,475222271397674
0,478596921918963
0,466782255474176
0,473759028723685
0,471451241745431
0,477006665738757
0,466098989392038
0,474291797429857
0,462957528922593
0,470685823208117
0,464673881040715
0,476760593502069
0,473889219425025
0,468958195627541
0,469009786535829
0,478480832498493
0,466375239171539
0,471273194835825
0,46799304702851
0,467578259591836
0,462058181679537
0,483300888219258
0,466256581543496
0,475125039605677
0,457785811526186
0,464798570051406
0,467956235925553
0,475822133323985
0,464507050021177
0,46892525676541
0,471972179509145
0,471475886036179
0,458323512874175
0,475011403473994
0,456826678004625
0,470726772139667
0,460381699581947
0,460029341974251
0,463782065146922
0,462807653927471
0,454131838119749
0,461723819889243
0,446682200820971
0,458988268314342
0,44492919052984
0,458607470606189
0,447904602756907
0,447022050842474
0,43060468528551
0,443142213058256
0,434398135462915
0,440861476079801
0,424693301654297
0,432039799711144
0,424549647282034
0,430048386043833
0,415909473405993
0,41847543457444
0,414509971199555
0,418907658493287
0,408846154919971
0,417177172196525
0,400975304695982
0,413537974953492
0,40594912812478
0,399831262258899
0,390337318455438
0,397835572434598
0,386580180426117
0,393990843799052
0,385261868708956
0,381802820981628
0,382382770301737
0,383893960694731
0,375569728357281
0,376159633633129
0,372889024718762
0,368128053775981
0,370404794819747
0,373505090568164
0,364520795842585
0,362635891924177
0,361652234002268
0,360769279498876
0,348887298136778
0,348875554233265
0,351918016037574
0,354260260915891
0,345951241473591
0,355288441610987
0,345272268652187
0,34990221225893
0,347019134026952
0,341605049023235
0,329571181512443
0,341393133767801
0,338884457980091
0,340095238606042
0,327241756726835
0,337413887610888
0,326304537484144
0,331845183730235
0,322922612644466
0,327245108156728
0,319090003581085
0,322807917561422
0,318998019083645
0,326510480418354
0,31836235125411
0,321015773250377
0,315755948582466
0,322426720003946
0,31013533625568
0,316179122000972
0,316772911237679
0,311413160840958
0,307332992932569
0,309590185000701
0,304047125087778
0,307699416272186
0,304713931075229
0,313245813554725
0,30244906588316
0,304353850904884
0,298184236312835
0,303581113604838
0,297672760946975
0,29896780031005
0,293599019637171
0,297122040819344
0,289073387629624
0,296853973286273
0,291753036540349
0,289837871656181
0,287484121761921
0,292561386337515
0,284353899209467
0,290096327042923
0,281058890829788
0,291188803012004
0,285742893633735
0,292110970117454
0,285378189793754
0,287573277737583
0,28232739871591
0,287941453028773
0,280784463535857
0,282366267283053
0,277294836349576
0,279124098791661
0,273026246433562
0,275431179176715
0,275393809065987
0,275087253263894
0,268653209932362
0,273589030276441
0,270771164589522
0,279635560614815
0,265145274204536
0,273897316670842
0,261597885767298
0,270143678700775
0,262117896335942
0,268586158385892
0,266515032794649
0,271471628184216
0,266312807890156
0,263870694619957
0,259592453903248
0,271262478759943
0,263299417814508
0,269505431339947
0,255360249214628
0,258781435168949
0,257879493537962
0,259977694334906
0,257345754374206
0,260540082738927
0,26033031029078
0,260316277954816
0,255777143408095
0,258772297708568
0,252935695157322
0,254964642947744
0,250236334124204
0,252576337215301
0,250265252347365
0,254676514083645
0,24900999132005
0,255717364266005
0,247957215774955
0,252917610144598
0,251890154507202
0,253783585948836
0,248307099154845
0,251603787277986
0,250905815367109
0,253936854048328
0,246858275384693
0,251726680617698
0,246256901149348
0,250545162583585
0,24623999550072
0,246142167420484
0,240379797831983
0,245472514989183
0,242661666973267
0,24561570386912
0,240474619688072
0,248241992157374
0,241207763385956
0,24714769134786
0,243865713729245
0,243688927145254
0,239172238498886
0,24612131258091
0,236868885020243
0,243710381128317
0,235935565160014
0,236526510981142
0,236457170911627
0,236883242335371
0,23108418592389
0,236031485030984
0,227680634109441
0,232551987226932
0,231379986503246
0,236045922336822
0,231539744610834
0,228820781951387
0,231267052488428
0,232205134557746
0,230269737611662
0,233078275182058
0,226004713459017
0,222787883415257
0,220426702049228
0,228339539490567
0,223248568413561
0,226783725659874
0,220153318454222
0,22380341901521
0,220105077949007
0,223286658076361
0,21679035623272
0,22052991757851
0,214375553198386
0,221196497775266
0,218727501194625
0,218101264885659
0,211773878332913
0,217507140674594
0,212504411149203
0,215770526195741
0,212714401237268
0,209391682918634
0,209242680547964
0,213938795637901
0,208143909702664
0,214238697745566
0,208079916345341
0,209775207753783
0,203979919430152
0,208823231898198
0,20203969823656
0,205220312442984
0,200402356998299
0,205112327405945
0,20170293676869
0,201783282697818
0,200472686569157
0,201092889423457
0,196823891145562
0,200359508391103
0,19276607265583
0,197807944192494
0,194380716538976
0,200329473004371
0,194784745062464
0,192612693729062
0,191478563666441
0,190603885404207
0,18894982359187
0,19062159028202
0,184659449519858
0,189087877242827
0,188973786059632
0,184618669143136
0,184788748304184
0,185456641087395
0,178954919478239
0,181958887722124
0,181928617458515
0,180901081068445
0,180661556513723
0,181200675118317
0,178802332012145
0,177716656441455
0,173328574043483
0,175720979330664
0,175710675888
0,173761193353873
0,170749316771424
0,174858088029573
0,17138014271769
0,171407107840848
0,172601214685524
0,171107553802166
0,171888849492991
0,169478948858882
0,167862796908155
0,169392839091847
0,166345866712705
0,16500533735621
0,162634858072085
0,166268303238262
0,162691731504227
0,160460600612677
0,162118173151688
0,163518071576035
0,160533650101274
0,162416293255777
0,161032003139779
0,161936782952116
0,15951363141669
0,159816578101017
0,160230701946364
0,157088785937206
0,154076584830062
0,159457140800225
0,157145024929328
0,159536713729543
0,150637925361766
0,154857064438526
0,150489186023332
0,157921995177823
0,152977875229286
0,151261424721024
0,150557576877759
0,155265009780102
0,148982856280271
0,148531049001931
0,147321595492519
0,14929434825042
0,149594337725479
0,1502083470416
0,146910128907816
0,148701619515042
0,146387368506336
0,149249415603309
0,146235791511155
0,147856353092161
0,145968593513299
0,147991541168706
0,144543467795413
0,144671278489679
0,139974243676998
0,144894732014717
0,142145108432502
0,144307947193298
0,140691382588942
0,145096160045761
0,140363245968788
0,141799397421865
0,137916282812186
0,139620399845428
0,138753958418045
0,140405625109078
0,138242568816202
0,140837429094581
0,141337441553456
0,138007934830552
0,137114312807577
0,142861157674283
0,137430045995081
0,141364180597378
0,138840129445421
0,136886745526464
0,132771482544237
0,13595897905874
0,134919932784161
0,135760480935922
0,132468579366994
0,137423667725571
0,133084584637741
0,134316534888621
0,13518132572285
0,135088255281864
0,130451983141636
0,135473231810535
0,132731866293519
0,134554462207093
0,131054314415509
0,130870640249238
0,130570282586025
0,132465910588445
0,130751375312572
0,135528313587133
0,128715756185401
0,131783819893146
0,130702642002703
0,132312280166835
0,130582425749865
0,131468080017706
0,126408584726285
0,130715164352126
0,129396298886296
0,130372225156283
0,125287095289567
0,129434152847542
0,126937139494729
0,127454522043607
0,125176335693076
0,131204403317094
0,126880431176617
0,128901523219513
0,124255558406685
0,125122827258469
0,121402314635317
0,12277180753172
0,121765141726175
0,122762215243805
0,123730827721913
0,125489169118439
0,124429830542084
0,122957354408819
0,121206531060998
0,123453672672067
0,118248372898007
0,124875425980626
0,121103861703401
0,123103901901626
0,117064001032762
0,121213754663434
0,119850321854476
0,118530515643818
0,120209451455606
0,12308983293511
0,119654268586799
0,118620779018461
0,118836413773431
0,119515487041946
0,117952504241104
0,121379353686028
0,119957790700799
0,119753353725456
0,118829635539959
0,117238315043565
0,115401370203528
0,116037954967696
0,118185368336337
0,117803193104937
0,116036856975314
0,119646580255651
0,111272147883619
0,11530766344212
0,114537122726612
0,115382299864578
0,115532271924921
0,113175584045489
0,112932126594036
0,114212177911446
0,109849113299969
0,112038002635197
0,111244126766454
0,111552812079033
0,111113619329513
0,112818939674052
0,108568819460609
0,109504075373161
0,107535680382025
0,110958777612663
0,112539419459413
0,111648635854998
0,108823232060629
0,108356579221373
0,105781832139273
0,106949919660882
0,107860427118454
0,107157187844864
0,105429299198309
0,108852440328889
0,103804007679183
0,104995217259242
0,103387911145633
0,101526247301577
0,102512240255131
0,103889599788439
0,100201498609915
0,103914158372432
0,102363070372223
0,102248949376271
0,101741689193892
0,104018059240335
0,0991612954599409
0,100686778722062
0,101374222000845
0,101632759087707
0,0999809094932357
0,0987535098543638
0,099397699046213
0,0985831107865312
0,0993151551325473
0,0991627753478609
0,0981699409633206
0,0985249778947294
0,0970250061765992
0,0949554583187323
0,0979527864246175
0,0983199961687366
0,0970113130241779
0,0971597237496429
0,0960006624544003
0,0953075911101989
0,0943192475789044
0,0961121877305766
0,0949644882552445
0,0956413701769011
0,0956594722311842
0,096479578741427
0,0931957377895529
0,0936470156308165
0,0931942441846916
0,0939054954985074
0,0947065963383061
0,0911987779762648
0,0905428859512602
0,0938774505541016
0,091172549592453
0,09244137242187
0,0932743462978928
0,0929696961582333
0,0913355383152897
0,0914137080383993
0,0899263011602355
0,0887655586490578
0,090948533039588
0,089020215284992
0,0891949278339376
0,0889482304766094
0,0902125065959245
0,0892954613142463
0,0894912962265379
0,0897270923487836
0,0865157502074947
0,0869623583652713
0,0865272888089426
0,0868624399762925
0,0868319057346227
0,0882860353042587
0,0868060640094495
0,0869990745232734
0,0851045100625125
0,0883718009085161
0,085204163290983
0,0845661780575873
0,0867569161604455
0,0867279202511474
0,0857051162429194
0,0861123858075889
0,0842332597431121
0,0869003633564238
0,0887498816976385
0,0849237876410421
0,0872704687416815
0,0883053284548554
0,086136978334252
0,0862935833957593
0,0854077414188651
0,0889951026422908
0,0881798227882501
0,0835677699045446
0,0861390578863732
0,0881674765916541
0,0829697788984669
0,0838740973439826
0,0853717742312429
0,086025157142526
0,0844655656338492
0,0846276989072803
0,0846501360486863
0,084004079957077
0,0884722788556876
0,0890963798859
0,0946324230959874
0,0885612866393741
0,0848330214639887
0,0845152557586735
0,087926060332851
0,0876812701142533
0,0827782787708185
0,0832496336549305
0,0870982579108271
0,0866257476247128
0,0882916481065744
0,0832046298750353
0,0894019942630208
0,0861335288858074
0,09106914291444
0,0843103397045128
0,0856389579016728
0,0884463011621713
0,0867270214082286
0,0877250311673266
0,0859156559903621
0,080422739905823
0,0846670802201256
0,0775149978733054
0,0888543404285708
0,0772081801734364
0,0883418949362045
0,0824865955324423
0,0936271199686442
0,0775474560033299
0,0876697879417655
0,0756617230979292
0,0893669413318815
0,0724310416116375
0,0921988340422086
0,0740124890559636
0,101199119187697
0,0710992374436261
0,102256625111101
0,0672409528924992
0,0990693437741072
0,0597213942506348
0,107442610460872
0,068351010515102
0,111031775329849
0,0620117593949229
0,105568644400532
0,0596055317890156
0,115809129881352
0,0632696471060374
0,101442221043956
0,0696281325786387
0,100649160156859
0,0728118499898168
0,0863992869755931
0,0873843605288708
0,0841111028929993
0,0899838520435482
0,0763913278424519
0,0988783520185585
0,0693652614311352
0,0999642266171319
0,0726549908246997
0,0954110210770351
0,0735334701270568
0,0923342213926652
0,0774170026654967
0,087256385337747
0,0819247727270057
0,0829479878015272
0,0862520799583394
0,0820681998644846
0,083845921774232
0,084668358785143
0,0781388621258484
0,0845297127244859
0,0777239688111664
0,0880967161872355
0,0798480016063924
0,0818544013202656
0,0805837725005264
0,0827274020133126
0,0806674148040663
0,0845980979125938
0,0831467862488018
0,0838490317467448
0,0799600176158456
0,0846993441928587
0,082010065444291
0,0839240650225942
0,0819824729998117
0,0855210412854448
0,0806877921670415
0,0865915767588219
0,0816773243599015
0,0844903476174722
0,0807686916206013
0,0862600546458158
0,0818052233190388
0,0849461906016111
0,082838974872008
0,0877946928186046
0,0860789638115709
0,0876827760158224
0,0825257308433562
0,0885163191812558
0,0839831584110367
0,0857363776257088
0,0823598978200316
0,0856998257307097
0,0867233246707075
0,0867798049705076
0,0821576710335992
0,0868752021143591
0,0863600162504856
0,0893495196602587
0,0845611463157738
0,0882335630729505
0,0845391644947357
0,0892255486166019
0,0854594160144633
0,0875879379585779
0,0837952303624625
0,0889587121905265
0,0871891394162133
0,0898895444983843
0,0870166924938851
0,090647371552613
0,0857639532390085
0,0910144090992071
0,0871237868320008
0,0883440767836876
0,0859032253037078
0,0889428659678571
0,0845896033308253
0,0888306549982258
0,0884608606931522
0,0923146367207563
0,0872590380507152
0,0915621454706211
0,0871718840757265
0,0905754422323077
0,0875026319296922
0,0908356406904248
0,0878188856654202
0,091154787633809
0,0900360162715825
0,0900150167168249
0,0888777861429517
0,0929546498338756
0,0876186206977082
0,0908348208654791
0,0883043614621351
0,0902988638089673
0,0881480186751118
0,0939027358147887
0,0913031101007023
0,0930189278046551
0,0906308772479483
0,0936887449942426
0,0930726227557015
0,0934652980662435
0,0907926987041288
0,0920748404466335
0,0882118813050016
0,0942563603824504
0,0919969893306949
0,0936216020867391
0,0927067154249963
0,0944507946351387
0,0925976105501963
0,0931858795855137
0,0923599934232863
0,0966339465890055
0,0943329553458032
0,0961151715725951
0,0936326652567036
0,0947469502882862
0,0935347055354702
0,096900548764349
0,0936667864105148
0,0957554956317878
0,0972959488906701
0,0970089929736146
0,0938728321477229
0,0943766560210501
0,0946757335002105
0,0957264070981978
0,0964163854757788
0,098695499579742
0,0947563023873761
0,0985508080227267
0,0937115140137536
0,0987104729969344
0,0972981970068114
0,0967052986456915
0,0961797456557384
0,0968712171843726
0,0974668398988644
0,0979607263660405
0,0945853399359056
0,09878100459799
0,0981057689933649
0,0955035214576459
0,0963575921372142
0,101893858327001
0,0962751229571283
0,0989764020254992
0,0979706619496334
0,0990136190254194
0,0989990260306471
0,0985329347257488
0,0988719412503494
0,101361543957459
0,0986569339211864
0,102834603608331
0,0994300630750578
0,101218969910676
0,101283091853126
0,101720531270656
0,0995225633738975
0,103122626637283
0,101401067015004
0,10265881657364
0,100345292367015
0,100760264853629
0,101173111072504
0,103227417186552
0,102870640332301
0,102343170610719
0,0998166723536733
0,103751304584686
0,102816249056059
0,103276160830608
0,101474381496625
0,102788117275143
0,101853705744639
0,105849619551719
0,102385596064266
0,103249770691083
0,101313521827436
0,102053465955924
0,0982193925600803
0,104058142282368
0,103532789178533
0,100785285875633
0,0992929100408207
0,102394052500202
0,0982746248630568
0,102331523611842
0,100024597621468
0,100763571537897
0,0994062198139667
0,102237052598398
0,0984074107779317
0,10124201885547
0,0996558218360035
0,101661380190483
0,0990370745359521
0,100271057528008
0,0991913708413392
0,101066860563819
0,0981698744538542
0,101380389682018
0,094976136226964
0,0983860336023238
0,0970759809498865
0,0981737707333811
0,098509886937297
0,0984929552654233
0,0989278981027102
0,0984841849386669
0,0954085568569496
0,0969652460419809
0,0976191396499351
0,100809883961363
0,0971878480323678
0,101135255510863
0,0977368185105326
0,0976915400090438
0,0972165727191967
0,0992024412156587
0,0965589388934473
0,100019616230759
0,098164638122943
0,0977275386435103
0,0956990405364708
0,0960405047065021
0,0971671039987907
0,0969458858730878
0,0957202666295714
0,0972569617881965
0,0952215094651394
0,0968003652922888
0,0968263711255821
0,0967613885352088
0,0928587024737065
0,0953120548872435
0,0964252618674109
0,0979297773663389
0,092719662557974
0,0963435236086278
0,0939767122917842
0,0961402606659381
0,0956249368027731
0,0954611277002674
0,0954884644022138
0,0963915215296267
0,0946588341341674
0,0957481815633731
0,0905538166055997
0,0958446709167047
0,0930139955015443
0,0964297659571123
0,0937985226537277
0,0973297218161423
0,0925699412159572
0,0943311696735661
0,092685664002393
0,0931323973407632
0,0932288802455103
0,0935288080248685
0,0921842715599058
0,0936861560440081
0,0910776666574118
0,0938346776017576
0,0938025504407157
0,0918345863788068
0,0925269582367621
0,0902087122703063
0,0901120617924161
0,0918842039965984
0,0906579538051431
0,0932749918407774
0,0902173291097029
0,0926005228860988
0,0922615668407323
0,0899128355589759
0,0876209215523553
0,0921173423960931
0,0869033770687844
0,0901008883814265
0,0870788985594153
0,0909413371258691
0,0903511136526189
0,0901665230347549
0,0882068706191351
0,0899217249038839
0,0872539779553424
0,0886430302607639
0,0874318504517334
0,0903855911717603
0,0852810994623132
0,0883475454074024
0,0877676134836987
0,0900178865291617
0,0842798686946735
0,0884273568606264
0,0858821679690931
0,0869244745585306
0,0842776983578411
0,0877420886845111
0,0865437481124981
0,08682367039191
0,0846776193185152
0,0855545749777922
0,0834004417334909
0,0831861450586362
0,0833511090049893
0,0828930537846367
0,0837523722812011
0,0855159483985408
0,0823596931831313
0,0819347044628748
0,0816464359914461
0,0853701152108936
0,0791226479561556
0,0851507301268246
0,0792922707960328
0,0828702348158
0,0804467579324774
0,0818016326112198
0,0767788571412475
0,0815792682831564
0,0795892464256499
0,0819162375273685
0,0770641110424432
0,0788864688141027
0,0763972088948575
0,0804207045788548
0,0757452695106817
0,0793293689452329
0,0756866962128652
0,0782926828198513
0,0769275912595401
0,0779601524282938
0,0752311707075489
0,0779099583387305
0,0728742837082398
0,0774454368341944
0,073733916415115
0,0775694896436128
0,0712857760724884
0,078530562020928
0,079414190118696
0,0749738873633189
0,0724753428272654
0,0758526375441665
0,0750653233432498
0,0755298159018072
0,0746261948482356
0,0761182191128918
0,0739655262270347
0,075510278807669
0,073855585494091
0,0736275536497988
0,0746294211685917
0,0714335134153123
0,073912673471824
0,0735454083012305
0,0711778959193182
0,0752424985044517
0,072159256360465
0,0731451975073037
0,0716958591499811
0,0737383971612139
0,0723071144221263
0,0732034808781726
0,0729778402212815
0,0718345881599574
0,0715125136449337
0,0720993969413768
0,0713051476184732
0,0695207505862915
0,0722386874468597
0,071532471368133
0,0717770664610141
0,0716922833889148
0,0714912005258508
0,0693544757159552
0,0700975483258928
0,070677708271923
0,0684935711179639
0,0709008320565441
0,0718063006757667
0,0705548065348321
0,0693836557386054
0,0691152094261375
0,0688167693516506
0,06802707624466
0,0689030601974119
0,0682612714526319
0,069272024684958
0,0666778252784006
0,0726276842723916
0,0651773774215786
0,0689537243665166
0,0729768607900625
0,0677998680720882
0,0685451133283952
0,066619745965095
0,0716198456227174
0,0646842102589169
0,0687942323293774
0,0683759130976217
0,0684470391648702
0,065968395248673
0,0680214563862963
0,0644733346297604
0,0686813417801983
0,0645268514879178
0,0681545511245478
0,0653323254677089
0,0677044871181075
0,0643773960635318
0,0673749462376831
0,0647823069736666
0,067716897927695
0,0689452868193882
0,0689073555618315
0,0681473406251612
0,0689756381226593
0,0595566690693225
0,0823200253317842
0,0623601160751212
0,0722298682741432
0,063426886400432
0,0688474351672243
0,0634598877201899
0,0710332002278677
0,0639225615054905
0,0699279986870599
0,0666311590772071
0,0667142617045094
0,0685740579326861
0,066722318089009
0,0669756261631202
0,0690056100642466
0,0686696684726095
0,0680027183999969
0,0638164671709916
0,0664806931800148
0,0668604662384758
0,0670474296648481
0,0637041186335908
0,07187116266573
0,0616259215911191
0,0711585254102269
0,066681403416464
0,0674670313423021
0,0638890495568276
0,0683162872302071
0,0603436909910163
0,0677477600673819
0,0678380609421908
0,0647387381673128
0,068255017225993
0,0645458635993932
0,0700032587929959
0,0665758168621191
0,0655787086822452
0,0660416987539087
0,0659261967373385
0,0658201909382331
0,0668949692542806
0,0636678510084757
0,0641329858980056
0,0654263766966422
0,0662134832353537
0,065895919531192
0,0663631609030416
0,0655312129627087
0,0664843347332904
0,0679877163849152
0,0576368323483455
0,0731621598712029
0,0657106712491349
0,0731528709892508
0,0677514783749084
0,0690773964526186
0,0650318430832842
0,067624909389168
0,0653162120931112
0,066171635045973
0,0687649735650282
0,0679126390351463
0,0662966030776408
0,0668217110656249
0,0664068261059347
0,0666780943509795
0,0678407843670814
0,0664557811068304
0,0680892910686535
0,064676516005742
0,0689749258503756
0,0639848639546134
0,0676245056194184
0,0635315383189605
0,0747244316650645
0,0651778974197596
0,0756793332187844
0,0529518171265988
0,0892943451835758
0,0695561903547026
0,0704213526763112
0,0683892258465086
0,0679125545416312
0,0688407121734558
0,0671134516793734
0,0676956826543569
0,0717021801174765
0,0684628464192372
0,0714495758329537
0,0682263117859575
0,0681740387759117
0,0708698081102719
0,0624401830635213
0,0713342327976829
0,0795338295168847
0,0686221396178483
0,0759743630528088
0,0654226446725058
0,0741147827026245
0,0799397061875715
0,0658968603795702
0,0748848969622777
0,0692778213062669
0,0740175553264205
0,069769363052862
0,073099350433011
0,0697518956954587
0,0781409988004147
0,0702435224603013
0,0748740113955199
0,0726608360251492
0,0719076665122993
0,0738234412937743
0,0720326632909706
0,075807259882707
0,0783888983066055
0,0709557389657381
0,0774652953040426
0,0717120672179776
0,0753740123642571
0,072997865967741
0,0768056625001046
0,0684487429060902
0,0791728219524854
0,0762756000453524
0,0739430079385306
0,0813458633263843
0,0776330075806175
0,0758420391949588
0,0800463085952166
0,0729426948624619
0,0881680080893623
0,0636548813199195
0,088569309575714
0,0793276651693611
0,0816923221043982
0,0890627299668217
0,0747922925353824
0,0809628946395407
0,0765760687824725
0,0833291628832763
0,0709189368951601
0,0951025702615652
0,071128921879781
0,0901730040922741
0,0694081878733451
0,0909040614395491
0,0780699698133254
0,0820484773925325
0,0786080235583198
0,0837114646727272
0,0724377946820591
0,0959631720152581
0,0788022857140554
0,081955178737307
0,0890849450816383
0,0811971119427103
0,104186751965783
0,0825920076476886
0,081575008296106
0,100634592912965
0,0818371127622672
0,0936593143927373
0,0801783578759842
0,0916138996909125
0,0806427423474349
0,0884312576779978
0,101229140192771
0,0865983318488895
0,0947339602918233
0,0898284575604764
0,0851944197065044
0,105608450805193
0,0903613590738336
0,0944062038358052
0,0886620869759494
0,0952753670308232
0,0771391399041394
0,128022155093491
0,0806637002129927
0,110343260667209
0,0962821517254915
0,103542426457051
0,0989915663235888
0,102396547831207
0,0947688185966988
0,105402489999544
0,108382372125379
0,108234386114576
0,0943641584604519
0,11489756870602
0,109538199800377
0,107236570165856
0,114342185149686
0,105423522993016
0,107648745384436
0,114877945781292
0,125195562404917
0,126512652040005
0,116911597566075
0,112972163313616
0,129079436149507
0,117695265987425
0,124447236596934
0,122304895227942
0,124475579005188
0,123762613079849
0,123995400882591
0,133020706572441
0,123858758338362
0,137239990084581
0,128814469212504
0,134177565355033
0,135787680582993
0,15083146883374
0,153332897045665
0,1327824115988
0,161762987843821
0,141357613338076
0,15794530145104
0,147304405933495
0,152079645811078
0,151325682815913
0,156025528305089
0,160768047655652
0,150270051372291
0,173004688743755
0,159911099931045
0,1810643432767
0,178901547250572
0,174899963929101
0,173900773494909
0,15957001210864
0,304265913077561
0,181401001617624
0,211797349598598
0,173573366109765
0,218460187125715
0,218549409605832
0,215260779208534
0,213203606637086
0,224848935515192
0,218058414839381
0,238573899608709
0,232266788540889
0,241758660381243
0,249067966029524
0,256894747785541
0,243013373015588
0,263172342905942
0,263434963329083
0,306377761972293
0,28213671595516
0,284671393235833
0,293945784073676
0,307066667646959
0,300233509923805
0,320241501095718
0,30586918135727
0,338784527949484
0,345257228777363
0,348330132814379
0,347287667287034
0,349340242602707
0,371967322290165
0,348952093731615
0,404160787068243
0,378888591846707
0,394219533171773
0,382457140993298
0,401138516772026
0,402605048864682
0,401342662902393
0,431235883780449
0,430477279539506
0,432119196429253
0,427495379778868
0,441636089516886
0,440047902489295
0,457659703924535
0,451656253469471
0,447830007896603
0,455077583113402
0,446401542572614
0,563552697129462
0,485571932454208
0,481761769708529
0,470282010257899
0,478351134862473
0,503530599711982
0,465907985787597
0,539291070657025
0,491782370989285
0,495985801816832
0,487055206805931
0,497919790626901
0,487685968123304
0,496732018904666
0,498174885804782
0,487561274963248
0,520452343099558
0,491052039269637
0,533695448512274
0,539063005190352
0,496852612511543
0,492654385392123
0,489179346251596
0,491097732640374
0,493395592177562
0,472511443059041
0,493299119817861
0,491878914156454
0,4726659443372
0,475424304947862
0,450860671823059
0,477730053900671
0,467207456889362
0,467008059218653
0,451613022058596
0,446859747730591
0,45068283706024
0,426072801356564
0,450511043642205
0,478608951424772
0,424325534120154
0,428485207568771
0,413020346331475
0,422849148777384
0,409951689617761
0,406230016265895
0,409284833641761
0,402188208716176
0,399562659574659
0,405145002958576
0,396119781140286
0,401242146154519
0,389625915431455
0,394571437252533
0,385852148742134
0,395713877137289
0,378356290883855
0,383344133349881
0,382856110944934
0,381296150655714
0,374965084353106
0,382261029567917
0,37064333734535
0,377960084259544
0,371704673371337
0,378636137981936
0,371141148447327
0,373542804000773
0,365130806620533
0,370050235936705
0,361091745738593
0,369581848350631
0,363898976848626
0,363747372525818
0,357099743339089
0,365423791239116
0,354597753488052
0,361631675150131
0,356276892609809
0,360975655694395
0,355694777953181
0,345335400880222
0,403907356062478
0,352112356293749
0,358338484864331
0,350013760688011
0,345209737326302
0,347459414992637
0,331311330270472
0,370553106829637
0,340368975491905
0,341334245551269
0,33115468257674
0,326937719972282
0,341971312762431
0,32911076513781
0,324868013696196
0,333130036456269
0,304262859895325
0,370356160377788
0,300677094486969
0,375071351936199
0,335133772739378
0,33145550925146
0,297856256302899
0,325994210819661
0,319411069778664
0,311157093690297
0,305831548281774
0,289108231285172
0,308963573650184
0,298572662619025
0,294345723994561
0,289172919961582
0,277099908210483
0,304627440549523
0,29869737867662
0,279191510211268
0,290812264143717
0,286004916440601
0,270945600961099
0,285770569311618
0,300785983863045
0,283376006103679
0,264008859977013
0,273204717984217
0,260851397049241
0,269018990822111
0,281631132829539
0,267359204993361
0,269176062284474
0,251787558334742
0,255559780192567
0,24749279689607
0,261411907661945
0,241559551587516
0,248882911678854
0,267607463244054
0,23763408810877
0,251436073704691
0,229842413749248
0,275901155331751
0,253026372306224
0,254821711896765
0,22910421628664
0,261619337958917
0,238571847326429
0,240376362003065
0,242631794650293
0,224320602082164
0,231524344034684
0,238538895525417
0,22151877020593
0,24362044327599
0,22335065207762
0,233696470182002
0,232559213850167
0,253889184677561
0,250600284640636
0,22604261269788
0,22483996236405
0,223684405472306
0,224979777905966
0,229271865997768
0,210928321862202
0,25200539812607
0,214601583886798
0,227719477174885
0,235616740258535
0,234101251394298
0,234717265604689
0,232819623312746
0,22596140884822
0,236635466260626
0,239185461521282
0,263690409250307
0,231835896679534
0,253984501923317
0,248851497741028
0,256223630803921
0,252234073163068
0,258231924146047
0,256464528746377
0,261036915449217
0,270323021578597
0,275202060129291
0,272823476193149
0,289904499533606
0,270072097517943
0,304402616761384
0,295848180741264
0,297612351143532
0,320409449267551
0,29727542350481
0,342749072611134
0,31999689405883
0,327381447991428
0,328316347469625
0,336486452051365
0,347470047664348
0,332190975426866
0,356940043821279
0,364581605884518
0,359940227743749
0,36128183194813
0,365091226849203
0,368950917840935
0,363373550015296
0,394934363009641
0,369851635073396
0,419164856465985
0,395483469343784
0,401765633947407
0,389693715957907
0,390334384263253
0,394158414778098
0,38594232795508
0,402336507000302
0,387268224337619
0,400981273830739
0,403016332636347
0,401686342126071
0,405778378232288
0,404198652165201
0,405532427088315
0,408189574579481
0,411998444364432
0,413487065393104
0,410553348052632
0,425810972793216
0,412139003984657
0,418826012158089
0,464772029851936
0,427186293043152
0,438039815280206
0,432194435495197
0,442467227503191
0,441336063471593
0,437169213030472
0,449666291577796
0,454544557255505
0,456149597363531
0,452160411520918
0,460501895993758
0,452011789273273
0,462992476917859
0,472877876807656
0,460775259203992
0,47846988695816
0,449713760289287
0,493417204041881
0,47799277753638
0,48502931169911
0,479383803822565
0,483122523397918
0,482819218862148
0,480640493294032
0,480265473201569
0,480122372369072
0,487564152104756
0,486366287117919
0,488031925153983
0,484515853266393
0,486940862521299
0,477858748185464
0,483442503408812
0,493235336216388
0,48251687272645
0,481328916813197
0,478236646244784
0,478992454636463
0,476956806422949
0,488703050548601
0,473668737037604
0,485464525041879
0,481744653124866
0,48652739764165
0,486606102889019
0,487282833775236
0,475034477787871
0,483573838680843
0,474611626743755
0,486771713691094
0,474615137091579
0,486906818229891
0,493065325256392
0,495610292015927
0,496544737708908
0,490740806600638
0,49801940185395
0,492187108024356
0,502293093277521
0,508388788196044
0,506573713717256
0,509041593424226
0,513493244468007
0,505884675356128
0,512299024959677
0,512374673424172
0,523230456266441
0,516250502054455
0,510077344037668
0,519890444037782
0,511504889435066
0,512530006407757
0,508713339676339
0,506624672942444
0,502363120716282
0,498692201760839
0,496819572544688
0,492725947486579
0,501597448575848
0,483335234948102
0,491257691714261
0,472471027237605
0,48289383315655
0,469391596417533
0,468293410819691
0,463258215751772
0,466399468193187
0,465561764173783
0,461644497815591
0,45968175960098
0,457138489270068
0,454587705687599
0,459298373429004
0,457164009584149
0,456543546264195
0,457744632455204
0,452921723194931
0,446881290601408
0,453682205196945
0,450974073554116
0,452332167582017
0,446786754813852
0,451043185596525
0,449333906159655
0,453145058639504
0,448382871825725
0,45422248407095
0,444321681153737
0,445145563578183
0,444490522021261
0,448675278630314
0,444375769490714
0,446069200085179
0,442700246569803
0,449088978395024
0,44500962750762
0,440476360068561
0,44047275496321
0,440520899469361
0,442601716707033
0,439533114416613
0,434430038657446
0,439233401245333
0,438939656040153
0,435248208199135
0,436763729480496
0,434436195438881
0,436283155454094
0,436763717404964
0,437042695870985
0,43388051614417
0,433813410221893
0,434171246749177
0,430626608748291
0,437356975756093
0,434753306761469
0,431855157745074
0,430723284919899
0,42898453212368
0,431391533478846
0,42563200243052
0,426986224112345
0,427627584269151
0,424421559366314
0,422195516155509
0,41993769481421
0,419120311056464
0,41385508838202
0,409907046198785
0,405577458968407
0,404378799695457
0,402367131521608
0,398515251231577
0,39414537006209
0,393248606638161
0,390717044221492
0,388541395652332
0,385163312571836
0,384464117112761
0,380189842145537
0,383738832123098
0,382235077019461
0,379128968660305
0,380806693971222
0,382329572080351
0,377623776865345
0,379134630383307
0,37763026036049
0,382415214629237
0,382594108292256
0,382714050466337
0,383065398950157
0,38469036607405
0,382341847094153
0,38330471407775
0,385627607249729
0,389691472277409
0,39014486693704
0,393070653452723
0,389955116677524
0,388422497990915
0,391832512597607
0,39326437481199
0,39559870928318
0,396672565337296
0,400953863766755
0,398737718403238
0,400374592167147
0,400717235680999
0,398364645225008
0,39937330722196
0,399934036845077
0,403794884454502
0,396058264539365
0,399650169100389
0,399477957086695
0,397172205070552
0,39876310105201
0,397343264340711
0,39041254315599
0,397566179683268
0,391579001652205
0,3881727445267
0,387365211729913
0,388115496982615
0,38820253856352
0,384641070752615
0,381596939356761
0,383215810826008
0,381088087079586
0,379728454712927
0,379911204619903
0,378089534394706
0,378757282940258
0,377034162054512
0,372959491215434
0,373680610303865
0,372092324570123
0,371246369832057
0,365700227263655
0,369221394590159
0,366843387118704
0,365148328291373
0,36374607368063
0,364283751034756
0,361978827263697
0,36461128333551
0,361400600435699
0,357647083819507
0,354372392455713
0,35756543877238
0,351305826874868
0,352116080619415
0,351264556950802
0,345214143951533
0,342664826887892
0,342504805233505
0,336927976530311
0,340049616964211
0,336290832237417
0,334775906582567
0,331195497066966
0,329205978688516
0,326934515502438
0,327722546212623
0,322481539827306
0,323824764211038
0,322031592076952
0,323244803921271
0,323583577345189
0,323174215826383
0,322160028273238
0,319371571580926
0,317711994560032
0,317423935857443
0,314232694440644
0,3097449491102
0,308903988097711
0,306304630379902
0,30412151882092
0,300262905897369
0,294143935763084
0,293259791068784
0,289469518793663
0,284375422246673
0,28024584146267
0,279437704393037
0,280608700130583
0,279077466770964
0,279464447802762
0,283542053176394
0,283897529579678
0,286131061187929
0,293359852308062
0,301216935399512
0,304869627179896
0,313895326756143
0,32485330199193
0,335674046949897
0,346272986784233
0,35837932193193
0,369901794434755
0,384924547992062
0,397464333790063
0,411022072743895
0,423821036240167
0,440591064611664
0,456179636864102
0,471244190691229
0,482445937697056
0,497873847706134
0,512095993451705
0,527265056308244
0,538059493658356
0,555234291640002
0,565900106445749
0,579324697749572
0,592852164242474
0,608075693594606
0,614700617233148
0,623977956129473
0,634740621992705
0,639817859416743
0,65114777793548
0,649973607402098
0,655078406215823
0,656813287404229
0,658042444553846
0,658330005718492
0,657054461627462
0,654217454661357
0,653280385843666
0,657335039203352
0,65512329323056
0,648133395459032
0,649211550964774
0,654880879453322
0,650958042428132
0,648915409157376
0,65165035958858
0,65177573311347
0,655693521091056
0,660671170641912
0,657908310554081
0,671619982962104
0,668851324173123
0,676053497900624
0,677074993860378
0,68766017560841
0,694859804428834
0,704506041933015
0,712653350814327
0,724382266955309
0,732764765419823
0,746276318104903
0,755077787057601
0,765775994771176
0,774330407646567
0,786051056163233
0,796984221071517
0,797735322688552
0,801859327065703
0,811967931612744
0,807056505697789
0,810893961982214
0,809753584939417
0,808249486433152
0,805819786645926
0,800446696601019
0,794709833439914
0,801387704546984
0,796904235340569
0,79174076145068
0,793748642703512
0,800902469850358
0,806114187399486
0,812351988429512
0,80809419739392
0,82658768915658
0,842241384704232
0,84530084896314
0,858495521501314
0,860284988934674
0,874505179635944
0,893210766362753
0,895792330086832
0,914101574262366
0,922032480286535
0,931993743352775
0,949616677480758
0,969486923169174
0,968161898156766
0,994994454515677
0,999800886975658
1,01962661354147
1,03858115614984
1,05252474081388
1,0819296455391
1,09852946790271
1,10783418104681
1,1464700613297
1,14402303782943
1,17896921817506
1,19290057049412
1,21513830093399
1,24009694059798
1,25177861499646
1,2528458418063
1,28787784222644
1,31031357684315
1,29579271330753
1,30478505505785
1,33377512408463
1,31527965775221
1,3548038051138
1,32418990211416
1,35078360401578
1,32586347170412
1,33402958304591
1,31245593096397
1,31178482562196
1,30425590209383
1,29619622578507
1,28924413541947
1,28056804198331
1,2936513948067
1,29754621082925
1,31146813168284
1,31363642172791
1,3174883102106
1,31483296866312
1,31326279406563
1,35147321203552
1,37072452568563
1,39795645455546
1,38692146479568
1,43355729907942
1,41654432997543
1,41947387636193
1,44414522972393
1,43223286019218
1,47395156142536
1,49341391218919
1,49734426575203
1,53793895265884
1,58243578380564
1,5100878165771
1,5786639589032
1,53322270181549
1,56653041260139
1,59536354960564
1,6014466037881
1,60407098150307
1,72942316788584
1,62320393198779
1,61757779855192
1,63314345828834
1,64131783514941
1,63247101436334
1,60331362397966
1,60065236165335
1,6906745055082
1,622227317417
1,70477432568631
1,69325658719076
1,70994642782682
1,62767806474127
1,68142749130758
1,6630880474691
1,66668547219009
1,66834807342959
1,60804648320169
1,62100318096272
1,63052310875893
1,57576231977273
1,50882605976054
1,49314896843295
1,47561861780798
1,40238987324162
1,33661077792583
1,28050630839811
1,25390206756496
1,20079183555542
1,19337132416293
1,16335896786881
1,13081328800758
1,11242300882272
1,1146340288601
1,08781354853826
1,08804741941556
1,08761276393425
1,07762291945239
1,05986484505846
1,06287539828813
1,03642794229362
1,04489223073271
1,00932214610139
1,01436214168
0,985883052404216
0,971856306147381
0,95308759507418
0,925687129400462
0,905985057619594
0,88964241591473
0,848653337950043
0,839652049893686
0,804991068635916
0,778742388581487
0,748669424076573
0,711768693695968
0,693753402516417
0,665382265692683
0,640592974132101
0,619127023621262
0,591285457624085
0,571697612147798
0,542429957771189
0,519933187276611
0,505053973370025
0,484570872358803
0,475454970404289
0,459859690760556
0,441888160276724
0,440353974255987
0,428147225865632
0,415858570247981
0,406190252686599
0,399894503364141
0,393335331816955
0,385980853506557
0,383251453007568
0,384100710573343
0,385210614710353
0,383227757365514
0,379781747142704
0,373893429322056
0,380417914414661
0,379350360235328
0,38050743982717
0,37957551084645
0,3844955952076
0,383772187028292
0,39065572113116
0,395472492385295
0,392008531420462
0,392479634357078
0,390899446899886
0,391526518441565
0,390368671134247
0,383831661729136
0,38156320392596
0,388399249846529
0,384324051780332
0,384137077325594
0,38121208696481
0,382735546280402
0,381797649938375
0,381055178520712
0,38237265448457
0,379282871652504
0,382064583167939
0,386163499244972
0,384517613048302
0,38288559849887
0,384161095051056
0,391461774978371
0,392416584849989
0,399330966833033
0,401875681903893
0,397078104284606
0,39709337972957
0,399379827844957
0,402376341779221
0,40779423433032
0,40025799137544
0,407496133917735
0,402527572034009
0,407968540514093
0,407894787182937
0,412563597975437
0,412987472974243
0,409351502957827
0,409587815708578
0,40821392686659
0,408421705278322
0,417428082064634
0,414536462735129
0,421122926728005
0,418414467259098
0,432540722355552
0,434401723965168
0,441496921275334
0,441998591317673
0,459282472721026
0,4577887716592
0,479190747765857
0,477397729941817
0,492341236363075
0,505652828801888
0,5147607315024
0,52704238689477
0,529878793219312
0,521482690768878
0,53803630235538
0,532539698565666
0,518784384879893
0,504250085541495
0,516165558488705
0,508944133096141
0,5030130695668
0,493822652018151
0,491692908967978
0,488930625165667
0,49084836321742
0,485268346126211
0,488835608018919
0,491360838110694
0,486561088416721
0,4953011563661
0,494360151213661
0,489951297413768
0,501984645552584
0,49936247529266
0,502256801806051
0,478393368296227
0,490540511643878
0,488414244997131
0,480845823126406
0,480927136916939
0,474998608116375
0,490611005002121
0,485858536394506
0,489420781732911
0,474050098000386
0,473270306366362
0,468945464443394
0,470618292762612
0,481864073902894
0,464903335010521
0,476371425746575
0,455565647584429
0,474458698483825
0,470295047853495
0,471393229127718
0,467819317073363
0,47712338384092
0,467451917974775
0,470120902418588
0,476373210846692
0,469345395041634
0,473304980874006
0,461026485182598
0,469561857505752
0,471350390560043
0,460249992931894
0,465143378010299
0,47025018545049
0,463425031551601
0,480075305611406
0,476734815691347
0,46273057556886
0,467658364129351
0,460388950035088
0,473590039198933
0,467823903292181
0,481201756642007
0,457163327167182
0,472131994146521
0,480962067759698
0,470085715742109
0,474963365947176
0,467683570163144
0,468044049248356
0,469893126544065
0,467993998407382
0,479521649468663
0,481512988602457
0,481504361017935
0,482737174107872
0,493438569708815
0,471357852254412
0,486074254949962
0,465336225210387
0,492520849014897
0,505452584167937
0,487348836876284
0,49524887403615
0,504244125685041
0,496740997514604
0,502025464545439
0,497193643530698
0,515878966887369
0,509746368870042
0,511267884037744
0,504650978351296
0,516033439826729
0,512274613523247
0,545851532607921
0,520796958363803
0,569700593017718
0,550980886532078
0,533853517921979
0,573609709748839
0,581081945643134
0,564247907498545
0,609698914064273
0,612039551879324
0,604654696376197
0,614046892335554
0,634407456933344
0,617218109311626
0,675044696064268
0,664645344726339
0,684613266503433
0,679098371868935
0,706779228247493
0,666665805832204
0,745615362641544
0,717726540949535
0,725936115112893
0,685046332369935
0,739286559882778
0,730377764086542
0,724637028359253
0,726824122004261
0,730751630319776
0,729122472662555
0,783951624930953
0,732188804015512
0,729247922111205
0,695444159649764
0,777438147388253
0,701318283415569
0,769264940605931
0,715914398265685
0,780615106483599
0,731772345909581
0,725072283280332
0,706217266040561
0,742941426842746
0,721784426753951
0,737432850517891
0,729478811928375
0,721352178224374
0,686197042049394
0,758403137007764
0,670531772935839
0,77765162644677
0,664601103592612
0,77075156936697
0,740132282961544
0,709128146347422
0,72830396834374
0,67102719807876
0,704156258088898
0,704747527318829
0,688438310456015
0,638884453830955
0,671788525590859
0,751538860157
0,753236863457975
0,75672747311616
0,694599125968224
0,735171940576869
0,686751890508966
0,743504254282018
0,714599050642619
0,689840306358381
0,736123807948868
0,792918149996864
0,791495531262026
0,766817852134535
0,773295082101412
0,782101884163656
0,741071527532265
0,719664532413759
0,741380862089023
0,739765260519889
0,687344321305819
0,793976844704455
0,680643560587539
0,731785887182622
0,737808544257901
0,801249037457264
0,684514166637835
0,813725872313439
0,76440803377806
0,82451259857163
0,71748977012186
0,923154407350097
0,728258985168106
0,890122682197028
0,761786561969514
1,03610247497428
0,743280147603585
0,949356315691334
0,786095717384898
0,921883879672018
0,851804730265339
0,870087098440671
1,01756645723399
1,05335377704807
0,860933545829695
0,995862985956047
0,86966116928718
0,912078165152624
0,804194649315376
0,966866238820379
0,824167244193058
1,01299085748616
1,04882171317457
0,999784916119334
0,742855724435634
1,07800135063317
0,872990113675631
0,965344925441329
1,06684144287586
1,06827699319425
0,913472004581639
1,25237601728814
0,9313843168736
1,07827660717018
0,78404537353135
0,855369501688823
0,80962210323337
1,00649304312362
0,88893807891769
1,05995237687838
0,899990403384148
1,25194285673766
1,5572833103799
0,839924607891097
0,774341390129326
1,0048180341562
0,846764768631179
0,76291085553281
0,793101706200589
0,955977545653211
0,719286044140753
1,65395774589159
0,909682076820784
0,973568673601988
0,911184851862405
1,28055604750348
0,747589240453262
0,850621354278444
0,735021972982474
1,33488196834236
0,841335490576142
0,809832223814317
0,847839693976197
0,897909026718468
0,906988397114949
5
0,83807101254725
5
1,22904022146772
1,07193046958438
1,18111587870601
1,21595899492067
0,794240085374012
1,18400211196482
0,739321519959629
0,872875399915832
