3596
4000,36533379555
650,420452594757
1
2
2
0,0492460003822657
0,0476945816230743
0,039615743785975
0,0400820325704182
0,0546540816991789
0,0453319290012527
0,0448981938798591
0,0427308213250464
0,0445617753669884
0,0424513685213851
0,0425327861028762
0,0445223483983115
0,0421880182296949
0,0439038147935124
0,0488414622038798
0,0475360636711798
0,0469854658560396
0,0521389627062674
0,0461561084993525
0,042434781415169
0,0424383188849736
0,0425774632056768
0,0376301849747331
0,03414068437387
0,0438424958967902
0,0479389881829108
0,0420518646146804
0,0386309797949646
0,0429404990667445
0,0445746773868866
0,046754576694162
0,0385174262684471
0,0441891566669411
0,0452324952031677
0,0452023503030904
0,0417659661174922
0,0458344532595554
0,0466926892080767
0,0485030186174516
0,0441686340040367
0,0472447097408103
0,041310774788667
0,0434743419476465
0,0460694417317711
0,0465759442050564
0,0456273907997958
0,0474433819469149
0,0457225104436161
0,0414765425479031
0,0424683978671242
0,0534746001462627
0,0402051310012394
0,0408295559958726
0,0475378849243061
0,0426967934382997
0,057411720581701
0,0448068860173607
0,0396087902195318
0,0436050579288662
0,0399438129981678
0,0503996057820722
0,0617624608608261
0,0384523300838419
0,0491636315686206
0,0379242472261588
0,0467999716585114
0,037478762744615
0,0451622896023034
0,0370351838070955
0,0419662419052162
0,0413372447466905
0,0554826425878532
0,0593867160756642
0,0361847526401168
0,0503669725500384
0,0389871419161228
0,0371582562252075
0,0411596463107713
0,0336875739957469
0,0422980151462143
0,0525404612564059
0,0455241249759336
0,0436698123075352
0,0355612380481439
0,0380453345285707
0,0573707732786623
0,0391858642404879
0,0345333297013844
0,0572387221976414
0,0546734025087772
0,0495645986347812
0,0401613599836216
0,0381980556638293
0,0400055248550364
0,0398673959821692
0,0348343105324232
0,0395745926824585
0,0422468902407232
0,0422047567329284
0,0330120862032362
0,0472084398034038
0,0226921178812848
0,09368329430661
0,0302245323511586
0,0603601486509347
0,0629608691109575
0,013463177596901
0,0740376977666649
0,0584654670958516
0,0581642442094794
0,0354687703360143
0,041047754746169
0,0472617935560711
0,0460495060568026
0,023217864124481
0,0392166623233891
0,0730411192752425
0,0441121570817235
0,0374846808045726
0,0410773216670008
0,0292044857810173
0,0293601353417048
0,083559781090996
0,0369350760176044
0,0575595332975795
0,0394504893833608
0,0314054707795697
0,0607140547239951
0,0766856272151093
0,0355285819129427
0,046810188645931
0,0352298127264216
0,0429722336683739
0,0167935601350425
0,0707526501391153
0,0437716371179256
0,0400935252010618
0,0274239835087802
0,0430753545824513
0,0938822231928161
0,0539274551945645
0,0476377055092445
0,0301045885912676
0,0216836739426551
0,0753607985169117
0,0583832825483944
0,0293892778423082
0,0385088731892139
0,0574852642113831
0,0377010160810765
0,0464873481286095
0,021069907262027
0,0470512601193626
0,050354799271871
0,000932930981400529
0,028032570944419
0,10558801276591
0,0161420964587147
0,114087886729374
0,0408440177890161
0,0551122414625217
0,0396162721943155
0,0450218968004556
0,0428963531558677
0,0472433268200154
0,0266604581581195
0,0332033806981989
0,0693190218089811
0,0270699443485955
0,0295442168367745
0,073676986124334
0,0537832252770405
0,010309350202323
0,0840654327139043
0,0586449479618686
0,0154624350422935
0,0695668424334526
0,0596201206186597
0,0332484315436915
0,0191106187299089
0,0707600520664264
0,0394293414854574
0,0435466767465615
0,0317427142946558
0,0456551907966261
0,0521120272921455
0,0498703311080729
0,0376266277236486
0,0443297166077422
0,0202619872052902
0,0409037192339395
0,0632136030116634
0,0823737795932633
0,0432208264327231
0,0454208910034333
-0,00140269727679497
0,0454283678344769
0,0770144114035417
0,0437977788075934
0,034851113684339
0,0381921347526485
0,039510706550954
0,0381538622762655
0,0356769984994373
0,0439960422516555
-0,00204849749383092
0,0674970465350809
0,0592380396468462
0,0436947766985903
0,0326869869800281
0,0389936227355286
0,0110142843629745
0,0640513930881243
0,0795167762780645
0,0410607528979942
0,0478892387230622
0,0215172993515178
0,0349783932976186
0,0573423485921792
0,0436326278297736
0,0449909458173447
0,034112897340453
0,0402304436547579
0,0370955941277381
0,0383582888344256
0,0414174759285542
0,0405224998515952
0,0389270702892984
0,0412725248086752
0,0364019160249564
0,0471434378213519
0,0469262330222655
0,0369672925156218
0,0437336699060653
0,0328973374658738
0,0300705580444571
0,0590654301326584
0,0400446572005443
0,0488667401832847
0,0297875490551863
0,0425140786568655
0,040316001376517
0,0420219397121692
0,0337731660612701
0,0422371767908591
0,00465544368362669
0,0672426191750705
0,0418144589625837
0,0411627852695647
0,0250568309198914
0,0542384676731016
0,0568769855226159
0,0332516914345053
0,0454277135705393
0,0393763207556211
0,040656270307822
0,025518853504999
0,0711646304726288
0,0505484237611031
0,0366460996487482
0,0526149993139264
0,0551959345060542
0,0387175936308881
0,0372265987550041
-0,00328808698764043
0,0952217735905285
0,0549848017209237
-0,000764471060947137
0,093496582639864
0,0583112459223244
0,0480475020126453
0,0452529767053033
-0,0176258499959361
0,123342658762457
0,0944308070126421
0,0483450402243187
0,0467112926966456
0,0606097881567915
0,0391258312354032
0,0413222099756962
0,0386319062630201
0,0188853560374871
0,0456767167790697
0,0493039150167579
0,105159566641616
0,0131695053494731
0,051181521024169
0,0817064363678914
0,0454935324375411
0,0436539759740388
0,0383976806027453
0,0423909966776024
0,0490728753096912
0,057869898585369
0,0526190983738118
0,0566124888895098
0,0289739908661555
0,0779770079211584
0,054882127820575
0,0436214578254562
0,0504617386505484
0,0597759724347134
0,04177154476846
0,0468395480386675
0,0349160106473399
0,0499555534412031
0,0421192275364029
0,0202668267066238
0,0867004644982468
0,0668696918102479
0,029950991894218
0,0738821609175543
0,0511721433975333
0,0482883590545661
0,0443541500174048
0,0440181154917618
0,0380826543220033
0,0406800643019978
0,0160230663937471
0,0607715810383578
0,0594617433741365
0,0440927242738081
0,0461975170523038
0,0384647713237203
0,0461195035116071
0,0450916510707932
0,0463568648552839
0,0426430653694109
0,0500500911183272
0,0319418847223782
0,0492263933036563
0,0818507177626459
0,0227611512494363
0,0554659359108038
0,0967134014971548
0,0483818112008548
0,0497777011053648
0,046819520929181
0,0581479231817371
0,0469107789083928
0,0522146423747008
0,0416048666902454
0,0421469433005573
0,0637653338461387
0,0669440427608525
0,0479803574958336
0,0340825427569196
0,07353410966824
0,118745442828047
0,0719638161425053
0,0565667700851206
0,0282574918255371
0,0582273184272927
0,0810102902265504
0,0588874536030538
0,0950285618216222
0,0576316967403702
0,0683614687821261
0,0571062490092289
0,0673682141293077
0,0540653791167345
0,0611967481371868
0,0660689584590964
0,0681321508395836
0,0630281301139311
0,068830070965715
0,0631085792660532
0,0533477431207549
0,095506145975695
0,0807019891417853
0,0705780647646442
0,0745259495652361
0,0564504466256427
0,0855849243588451
0,0780134668175752
0,0920859590456366
0,110033546835247
0,0696956962202611
0,127942765798259
0,0843953878377232
0,0929615183782595
0,0789853505396838
0,08292743184122
0,0833895420051662
0,0915439089617662
0,0886927612309167
0,0961261503054714
0,0847991671173322
0,102843036767383
0,0862321752677217
0,0929889349206969
0,0789389796098104
0,116562724337392
0,107388381281095
0,105146328446827
0,0890613481106076
0,0971122620544002
0,140766323817165
0,160114278214144
0,120385056270603
0,10986981933489
0,115730643551905
0,103934243992252
0,122744505637292
0,118016818420536
0,121103934444404
0,10871026952072
0,145498839239491
0,13879130449019
0,129687090229651
0,153393615925525
0,117032843631929
0,143220830178719
0,136666973320568
0,1281038317404
0,154513501901922
0,151515581018462
0,12292607734429
0,141614065136578
0,164666600093761
0,133377313183428
0,16665297415083
0,140433341251753
0,154497391142286
0,146536786371188
0,150437337096203
0,152869064227428
0,168837717255863
0,167697495188016
0,160784493347282
0,168178398978907
0,170341398829071
0,159728950460501
0,174104638350201
0,18022207910963
0,166631972198643
0,188164167721531
0,170151537569523
0,187225798390704
0,170818230632801
0,18120807268344
0,216802134294253
0,198597652354979
0,21576945329851
0,186241487757915
0,19781710628286
0,200018092450307
0,200755574396905
0,188397213004162
0,201655380243953
0,212857999195971
0,213376587715388
0,205170187810494
0,219392001880349
0,20706118256418
0,221450521905931
0,234921694720123
0,227694332277274
0,225308738049459
0,211468696816742
0,239285948936682
0,240249931480555
0,24581935975802
0,267821207144506
0,251502386681762
0,274700659693934
0,239022023760424
0,253561026689681
0,254343825516425
0,267709834951206
0,256575890911813
0,267802527975636
0,267341932579497
0,262807005421296
0,259580227428442
0,270949190830028
0,278642975849603
0,271592182817189
0,272969316261562
0,276677647917679
0,289831029092588
0,287393959223709
0,294079911915144
0,298711169786024
0,28562548740523
0,308325189519618
0,313485685519896
0,307922569267408
0,312988983885561
0,320412112622895
0,319424827769263
0,31138072692352
0,324190334182505
0,327972133949513
0,337095233028284
0,328080741083735
0,336944744870496
0,358009618000735
0,342515583745889
0,343691425806207
0,336752795125009
0,354507145968143
0,373163566576779
0,352529255763944
0,354042918201623
0,361238076957836
0,359659261744693
0,371038612290711
0,366827524980779
0,360078614149267
0,375082783235029
0,395600417009198
0,395699435083318
0,388879778059502
0,383886295447989
0,411139202610981
0,402484218723539
0,395794317153987
0,403324884271934
0,404089260679748
0,409391177855808
0,416707448168748
0,401905977805851
0,413878674124325
0,431289806582942
0,424913538914795
0,444345119249365
0,429561185909381
0,42720234316032
0,437031706255053
0,42380247544951
0,421867990088664
0,45404355566297
0,469626328354451
0,445535193214778
0,457322032028783
0,456698313933497
0,475626559599043
0,465574418911364
0,466381863042744
0,486253963681645
0,469585518692401
0,473207203504151
0,476777725232531
0,469438476702961
0,49734383173468
0,516878887878937
0,499271047736476
0,507757785278874
0,50378453315376
0,500277167376102
0,518757956698403
0,502788232211486
0,498308838240185
0,508600674241368
0,526361762747023
0,528982809810926
0,525859300093386
0,52830959054
0,543277387082954
0,540169673679982
0,54735662237216
0,549773269354256
0,554005890843296
0,571972236633387
0,589910618587548
0,550938126749865
0,574667107850455
0,561116637003484
0,560620500118793
0,572542666452099
0,580988108239584
0,608797943760088
0,61127005352894
0,572008658645808
0,584014030990587
0,586247506570174
0,597203493382095
0,621578807547791
0,60242990127083
0,596593674270184
0,608943996452726
0,624985680396772
0,633331679442142
0,631743286125588
0,636899181199805
0,615286676893077
0,627247120805006
0,637349863821834
0,641479293175353
0,651712820430258
0,641375645029168
0,654814899971415
0,676248591832111
0,654957340721539
0,663528891526753
0,65605997624173
0,667521579436296
0,651933432946722
0,648921013322287
0,650117418342534
0,671053646898408
0,681758760097302
0,673448892442018
0,657776625801249
0,674368549669196
0,710013547184106
0,720874414482333
0,725707771859293
0,736488939359817
0,692858210717133
0,68883306394505
0,689276904216109
0,692983613893837
0,697826687050883
0,714651966058764
0,730147459519738
0,735689492801439
0,718401715245928
0,744214949957509
0,740025638833217
0,743787289564243
0,760262774515879
0,737777784610365
0,714057471086566
0,747995784750807
0,755018455839348
0,747380895551502
0,736645565310172
0,741290666290178
0,76843755333567
0,785012523412377
0,739159363353737
0,74937467408038
0,769752995913175
0,789125276145622
0,783427315492443
0,786097450191405
0,767126215043684
0,755569653470391
0,744467768590047
0,765099989025885
0,7957704112665
0,783201675234126
0,794867226207279
0,807959896710225
0,819048642981932
0,813114455390698
0,786530239706366
0,820600847038553
0,796327213150471
0,804570659701693
0,795595460110785
0,798938136563362
0,80181977659507
0,805013400189311
0,795497122915855
0,809288154639495
0,821680714239099
0,787420681288367
0,815392435881054
0,863241473965561
0,843178068862845
0,858020861382103
0,828504102322718
0,818059519826017
0,838586728660407
0,833813042523501
0,829996150792841
0,869094752604875
0,869578224916247
0,838179155947886
0,842364750285582
0,845566971493713
0,820661977571115
0,829307037415244
0,822426498077699
0,844607965655501
0,840114376422481
0,861423265123634
0,887404878503709
0,907371336166857
0,875671047329615
0,880022298257761
0,876551971406248
0,864873999025025
0,862919915107248
0,874677939654422
0,839174277226959
0,85412745740215
0,880018977141505
0,87557730647531
0,90326357775806
0,903313026544773
0,867717394837153
0,849269007966742
0,880796382567239
0,880127786035717
0,881254025311421
0,917219793413968
0,89612154026139
0,91381667050052
0,892292214638939
0,878934599866482
0,892413040616486
0,8801385109878
0,854190787378979
0,878690772086527
0,87340174985651
0,918179514630633
0,921949064181022
0,870789239697251
0,90901696431437
0,918663804319348
0,909792085425773
0,919426183003302
0,900531581761225
0,891636096398406
0,868253507494783
0,900864015433595
0,88431421310794
0,891695325824714
0,894352830443781
0,879070363666866
0,90722583454922
0,915287023554653
0,903501029948579
0,902538098768032
0,893736195876068
0,88270206499302
0,902564593035692
0,903301794748628
0,891239500721704
0,922204386794672
0,90774830807576
0,923688334580896
0,886463325819989
0,880564078747749
0,933123235893146
0,883654006825012
0,891645512483386
0,876229262868346
0,866034805254022
0,945659204128315
0,926282295175374
0,90086330932583
0,895707376980572
0,901042331675513
0,906814257735624
0,891321204363254
0,883064950516481
0,926747782492938
0,919901209001632
0,880872197929298
0,89014542586952
0,899996327067179
0,914628826152547
0,932587179305869
0,90059127310592
0,88182449010205
0,902876959126501
0,899319533308214
0,88699985039596
0,909771151355407
0,877896489641469
0,877615302511652
0,904087268460623
0,895830135417991
0,880781098923696
0,896878907109883
0,901723057367518
0,915849640630613
0,914359788672797
0,886757621478955
0,894138791034749
0,898683037376193
0,904060569901598
0,908727056676764
0,88400439465971
0,915230678475501
0,913652029618893
0,87463993207717
0,871931706101215
0,89636196018111
0,898491092429394
0,899617795673194
0,896155398675133
0,882343336663892
0,892642856636589
0,881453163130146
0,881043281320907
0,891371076916567
0,862898886845743
0,89859353582316
0,889525564017255
0,860506518755449
0,864864321132894
0,881163980936707
0,889783478405261
0,887620625584319
0,875273555199608
0,847783758184407
0,854005919480748
0,857834167120215
0,871766580546174
0,861602815297226
0,857131403911154
0,872983894044888
0,852650398747543
0,844732224686788
0,856488241267446
0,878928425174952
0,869761466160753
0,864946164104611
0,848487943694862
0,85938018136167
0,843872188796064
0,824026287224116
0,847082698669561
0,826995533741513
0,823016686658248
0,84042427764329
0,842319432565355
0,849363123145474
0,84471242971468
0,829542207277919
0,821659481210994
0,842528601803455
0,8320523903827
0,820639576452672
0,804120198946468
0,821970801499846
0,827739861738388
0,801515524463846
0,819597927064604
0,812726157403339
0,815583301756886
0,824150710653915
0,819067531981717
0,799893612567755
0,780874141597367
0,800729709519835
0,812092534740487
0,795747705915645
0,770123305153271
0,768298999136483
0,781075115133083
0,775857432777004
0,791793409162108
0,821058191411383
0,787106015199703
0,767275892534098
0,77522376411266
0,768908368277654
0,767997059845305
0,753320800798013
0,759851892259444
0,778730022950034
0,753324014834885
0,743434875511189
0,741248655709939
0,741444338665408
0,749190955334532
0,749451777029552
0,734114703703634
0,727058567791337
0,746445478142362
0,746390448109397
0,732759938444539
0,721930100897067
0,734387610703151
0,73854321394762
0,714945650041725
0,727159210199568
0,721627065117141
0,71505419042283
0,726746542571066
0,7010031509946
0,70858595327099
0,698597433937562
0,696456063219068
0,696487151121419
0,676531352305793
0,69566366151933
0,693967545882663
0,669385149721866
0,685188883064614
0,693607905499254
0,683813404872532
0,691252803081626
0,672109935240904
0,661383435468765
0,669144622817947
0,655873242460499
0,668771077595628
0,657276272263044
0,639297997396068
0,655283646863329
0,641995698350341
0,646971348836925
0,643555372734514
0,637782646618825
0,638423736308197
0,621732489263072
0,633006197929589
0,627430701364022
0,634146440557341
0,625291657014806
0,613905280346188
0,620190164988595
0,612216262583377
0,611755040738284
0,614540185024195
0,610460999674134
0,614231794181472
0,609907326083018
0,595092195468939
0,583729897323184
0,587985824711419
0,583856476130675
0,576594246035387
0,578823890307114
0,575317385447508
0,570107205741335
0,571753985917363
0,57759129726208
0,56518077313194
0,557207242632854
0,557762261420335
0,561176819689683
0,557352041831659
0,550813628237961
0,547080024136099
0,539813073618499
0,5464347338332
0,540636003651048
0,533598065544754
0,52985183764385
0,534733876859819
0,52729179386522
0,53293481018071
0,53196252353416
0,529939255439293
0,53066614131865
0,521975940815
0,523960099705851
0,511033676220343
0,51095789316744
0,520691536629523
0,50082002186178
0,505004961525058
0,504199803920157
0,489163421478518
0,488050798321881
0,4942190275653
0,488343727219565
0,485123680509872
0,493621708821631
0,489387920434777
0,477368115606665
0,486223887383077
0,484663640258562
0,47096747381445
0,472250173854817
0,471097198437567
0,467163035984887
0,469170870561828
0,468313407388196
0,460014630081901
0,452701136302367
0,458413499883145
0,456623843863184
0,459287666331921
0,450586082899253
0,448734929570865
0,44563426509485
0,450772984226767
0,443683852250075
0,440276385443393
0,435757877441582
0,434404957446107
0,434631832966794
0,428247994030356
0,425473830728749
0,424429180094845
0,420119302524154
0,417313872772291
0,411943489071976
0,412050975333454
0,422877554297199
0,418243535291365
0,412993396674747
0,411927094922628
0,406616770605297
0,403099335869334
0,405792060838327
0,403770367308247
0,393514689900777
0,391388455938545
0,392279973876074
0,397058470314615
0,387991399489245
0,393666581971126
0,394349527762118
0,387356698155036
0,383747753845629
0,374712050387684
0,373515944519335
0,375031455927667
0,376034128150128
0,372016852318245
0,369693589923604
0,374404802943284
0,369916904418246
0,367286445260382
0,363880938741973
0,361445550963229
0,35745881969621
0,356644342997993
0,355793947249157
0,360131276578222
0,353276460976592
0,346144375298867
0,34630105027396
0,34489774732998
0,337773864667263
0,338829872568516
0,343268748342046
0,340919597364393
0,333587986440454
0,340812433499878
0,334447010701887
0,334278867545155
0,333268619720035
0,32391305665494
0,319614181054822
0,324545782259524
0,321100597743791
0,319919673865119
0,314937575011194
0,320918988801923
0,319852124801293
0,313474380867661
0,313538543146056
0,312267681652791
0,309863723746916
0,307436236417125
0,306977344064272
0,305846005828643
0,29818250421515
0,301374834548436
0,303476133601917
0,301800108368734
0,296419067185542
0,291984520547111
0,291734067725218
0,290950697617956
0,287821672803503
0,288101417341088
0,289365029247548
0,288926464934955
0,288168653538247
0,290308795387642
0,288889343674506
0,28234068160158
0,282293904081512
0,287198758960577
0,280477877377655
0,282026267171739
0,276606950311536
0,271537770395083
0,274267628143656
0,274829219421486
0,274064794514634
0,278837384187584
0,273800170869594
0,275098190340954
0,274774498206735
0,272399920093945
0,275483879124209
0,273630023602293
0,270961478944821
0,274776669263339
0,278137136598925
0,281280664368617
0,273362099264617
0,276961034560422
0,275565374867357
0,275271787317277
0,278019979022322
0,279606000960343
0,279341104627425
0,277365352666002
0,281769679729771
0,285955641961383
0,280187095599998
0,282358279774664
0,281080385883943
0,285936339161589
0,286888799438984
0,285032415293814
0,291317371835418
0,286663442633649
0,286130465711353
0,298043286240974
0,294469806682378
0,297615846019614
0,302073324866867
0,302684338789899
0,301384578338857
0,303797799825299
0,302297160330198
0,306803815153875
0,30567585970022
0,305166022364855
0,310811902961327
0,309834126728973
0,31147812754709
0,313580924202801
0,312059730491155
0,321851346294275
0,319463090911416
0,322424203732489
0,327057460056459
0,327221268169006
0,325712978420355
0,333004860093094
0,334473810680983
0,341581515936321
0,346387333923964
0,346184051251718
0,345650293412512
0,34938593758888
0,348382364202167
0,360124142220976
0,362735991221227
0,357566410843091
0,362662747263234
0,367924874347392
0,365966277076589
0,369961481233823
0,373779712821961
0,376003423709558
0,375661536031912
0,379882400830342
0,378053068812272
0,380750855299986
0,381558018265274
0,386993861404623
0,385459841203729
0,387340801357987
0,386958590968109
0,38420712612434
0,384190116792887
0,388553049612139
0,385877456735691
0,389070816040347
0,388955559727212
0,382340050990538
0,380910233343917
0,379984532708565
0,387578506681141
0,388689635583026
0,381933059628759
0,381840468178601
0,373517316808094
0,379328914539254
0,383050589344322
0,384866864753541
0,379210453306414
0,378922368295081
0,375663953707481
0,375095951082592
0,380808725368965
0,375959719530573
0,374039751886143
0,373034948667178
0,376062536497277
0,380130784943495
0,371555407175982
0,380075619985313
0,377085115557578
0,377003558323062
0,377628097291377
0,375818757549967
0,375906908269685
0,377312887975347
0,380555059936451
0,378188580553455
0,372400331173107
0,376872992862867
0,376496833854442
0,377732737981044
0,376825461384486
0,380757729907811
0,373697820893784
0,374857853622232
0,376216657939021
0,372937541014036
0,370443006745508
0,374382653302462
0,373326710191911
0,373255204105448
0,368626546908242
0,371828889262879
0,366164728443726
0,365983401989247
0,365808303255644
0,357997759246931
0,35881486804544
0,357817641073042
0,356606652194813
0,357264271399464
0,351686148544399
0,355797021955035
0,349356192379014
0,341395165741417
0,340288193639029
0,345255320367367
0,338180503673478
0,335352567561843
0,33495117089668
0,332959018930028
0,332104680957995
0,330420174389408
0,325652625123339
0,326055690893524
0,322848908767297
0,318734251817835
0,317287990586479
0,318071532205549
0,312568748599019
0,307033563258435
0,301157934968177
0,309264802315448
0,30261426367823
0,298050173570012
0,299997868972082
0,296913603924615
0,290174009587655
0,289684799974174
0,284221861685094
0,284323325044947
0,286240930384671
0,283696109475579
0,27902166064738
0,27903194749791
0,274370527814187
0,271682935037416
0,269998588962175
0,272119333969987
0,267605704169292
0,266324337834382
0,262910720556488
0,26609670172855
0,265409836822887
0,260570928105092
0,259734340403056
0,262386247871546
0,256816267645895
0,255892486621514
0,25283847777118
0,255469511153751
0,252292673426063
0,25173475820158
0,252541037956722
0,252736920118293
0,246788611306798
0,243976618902804
0,243012590735638
0,241760158130224
0,241440512293101
0,240662622959773
0,236905888898856
0,240250270904015
0,239106948138827
0,237300530753668
0,232308001764407
0,234177278149943
0,230239984971585
0,232459072978459
0,230675045346622
0,230299989280512
0,233094761210452
0,226248477988662
0,224176567312084
0,226569475561763
0,225256325377045
0,228341605198719
0,224559579741396
0,219756063677876
0,219519132070453
0,220278331070266
0,219146036148507
0,220149721876579
0,217757876752078
0,216461210796363
0,213079916474331
0,216017309980104
0,216652962790966
0,212036709995639
0,214244012131662
0,212166866229648
0,203099021795548
0,208877042192079
0,208412924417219
0,207619158817667
0,204405973418332
0,208067878006864
0,207334517751002
0,20709199207212
0,205629896921768
0,205278328152084
0,204790783940706
0,20279857298438
0,199252764261858
0,201089555440989
0,20170166773313
0,204898515321351
0,200882941096581
0,198321696029214
0,199539849290012
0,203684363718145
0,196978384103678
0,195660704157182
0,198220777435369
0,197800187942149
0,190573710275148
0,192869140424462
0,194048942351502
0,193526719245239
0,193301014898071
0,194360159497453
0,191417298415348
0,189937562026437
0,188633981833959
0,193607108866008
0,190618345908293
0,188932456907073
0,187714393375046
0,187864184834819
0,188431592897563
0,18976654533358
0,185701273099361
0,187687246353584
0,189737308789765
0,18361352226464
0,185193190918144
0,185499592485398
0,182182595288203
0,186769570329936
0,182022360141916
0,18429440112187
0,182765418105124
0,178835563490125
0,179727460359095
0,181189324207896
0,180762825274457
0,181321471709657
0,182161357777533
0,185081999449683
0,181160260818142
0,182416993437628
0,182516568406438
0,179499011095733
0,178103912190074
0,178960029490105
0,175664155905315
0,178943960547427
0,177084465562336
0,179204505067735
0,17654297066219
0,173390042790722
0,173881304243875
0,179368318302968
0,179012912252079
0,17410615996586
0,174549103704522
0,17910408292699
0,174348710189346
0,173993603224854
0,175888309003497
0,171021620445639
0,168378543622979
0,175698191181349
0,173905037252485
0,172642235323924
0,172263013055721
0,17172621684034
0,169044244566723
0,17172259885248
0,167848413036932
0,17019334256166
0,169413919108051
0,168795857697554
0,166265261798704
0,16451744677206
0,165441008785276
0,168224354854101
0,167320150875589
0,164898034512257
0,160434701713759
0,161428904172547
0,161694352257899
0,163298620813665
0,158554020346981
0,16171856070313
0,163627387391329
0,160571004032248
0,159467616158045
0,160576104939811
0,156634933643995
0,156970131280488
0,155624120200276
0,159646074057017
0,157153804780919
0,15656393646998
0,154781929347845
0,153296768257001
0,155059776235613
0,156110794882649
0,152872380700977
0,155081570372602
0,153925483298407
0,150974468475165
0,14824342997319
0,152151295149478
0,153018156374162
0,14783453333512
0,146198099185402
0,149414046301335
0,147047059071465
0,146145640266592
0,144852531692531
0,145756269427157
0,146550824794461
0,147050175758395
0,147900509116612
0,146936215673088
0,144598462341673
0,144803430617697
0,14341587779285
0,143398213188644
0,138195349591781
0,140217396120849
0,140444857295236
0,141330073535109
0,141267283628314
0,141501465705493
0,133662956060779
0,135241677060008
0,136793998543765
0,136416735672845
0,134184852031844
0,134380365954263
0,130703429045603
0,134368225552569
0,132940097730512
0,130767423952873
0,12980744884672
0,130773621832499
0,131914359107831
0,130207339828155
0,127351418708502
0,128290691490805
0,121876281877137
0,124000618645661
0,125376031602157
0,125469467543102
0,125060082012564
0,124677460806375
0,123761913702159
0,122716390748571
0,121202452767133
0,122604507059354
0,11919149475817
0,122520907503529
0,121222727318543
0,121802919232131
0,119494480373451
0,118241092295293
0,117593973366054
0,119762950962163
0,118060758125544
0,116925455636762
0,113448869800324
0,114726276819938
0,114291224628666
0,115562838028721
0,114903952922481
0,11201656315728
0,111279545916918
0,112856620357472
0,115297374057072
0,117488870685736
0,109483072440182
0,110853905419149
0,110847716327508
0,111435725550954
0,110643465490896
0,112821686181756
0,110934382461115
0,110774595495455
0,109150494749265
0,108272307514831
0,105951606110367
0,107963153101284
0,108520564230759
0,106425595628749
0,105303571659507
0,105993749504961
0,106915117627324
0,107202640827643
0,105329055625641
0,105163483653911
0,10482830568974
0,10432679253342
0,104626161480835
0,106052945793344
0,102462188620332
0,104620437788788
0,103647651747506
0,100872403342536
0,100728030546141
0,102283252418768
0,101471383910507
0,101203532331084
0,098542285252399
0,102011886101774
0,0986481081985835
0,0998799291754286
0,0998350542329443
0,101251647277762
0,0984923284536099
0,0989070321941712
0,0977150432836919
0,0979606889778426
0,0982078767038511
0,100521788824224
0,0984897895066185
0,098883137097223
0,0993256630832688
0,0987195148626105
0,0968653650469351
0,0983737845269722
0,0965607780101683
0,0968849745808076
0,0973473652663455
0,0963639266501829
0,0919428256152906
0,0944746183955058
0,0943622123297973
0,0931703166663871
0,0953943547789573
0,0967834845479961
0,0929338239049402
0,0944907436334435
0,0937801379634361
0,0969885971805436
0,0923980551628772
0,0927315662073498
0,092849363037444
0,092738793157685
0,09187621996024
0,0930522207837394
0,0925596129282536
0,0933150382709575
0,0926295372706569
0,091641331333509
0,0918333803171765
0,0912508795694135
0,090557550801735
0,0934449013139298
0,0902772679290527
0,0918679589860917
0,089727404124166
0,0915661755678601
0,0896602175601114
0,0879659119765347
0,0895376506104586
0,0920368227394114
0,089690604710967
0,0878021819724895
0,0891408870800855
0,0877394655307908
0,0843017347719076
0,0855580330321231
0,0873998611349828
0,0878131518187252
0,0858961409887809
0,0879186634221943
0,0863309927159628
0,0838000765324022
0,0848730783315249
0,0849159220471486
0,0837194304061213
0,0885216593157705
0,0859768146537867
0,086753128388536
0,084240736182294
0,0857222511635245
0,085299188265393
0,0866205880864791
0,083077182887019
0,0867796729245547
0,0865640804236233
0,0840530381321725
0,084269016048269
0,0844988744932182
0,0800796506549144
0,0822422556055354
0,0851334869873111
0,0834088935398499
0,0807717397206304
0,082560519395091
0,0818843215107038
0,0821424382738799
0,0836597379660965
0,0817789367376984
0,0789962143218962
0,0820505702682336
0,0787821472644156
0,0810520610631961
0,0819635652350457
0,0805523161154072
0,0794799515296164
0,0818602312093448
0,0794791635836759
0,079665320497878
0,0765471646708686
0,0788255234240824
0,0769351627760006
0,0781952365118803
0,0799720269430765
0,0779562406882055
0,0753780611571607
0,0762107017682168
0,0743068591338914
0,0770309693644104
0,0759879859966731
0,0767453186463812
0,0741782250341892
0,0761908354317667
0,0735431662783238
0,0728627645563675
0,0733667384164301
0,0732009949043181
0,0718799589948991
0,0746234898608545
0,0712003225055341
0,0718852749491385
0,0701381190285253
0,0725699091059362
0,0710561896511363
0,0710621117450335
0,0699341214752324
0,0720770127533945
0,0711326540674751
0,0709438984567746
0,071302022597473
0,0690847400901717
0,0680735411919298
0,0704281236384754
0,0678426673054435
0,0692099468666854
0,0679014031781727
0,0691688785699774
0,069116004105914
0,068787003750288
0,0668794530665966
0,067912559269277
0,0676952128909584
0,0665288222094082
0,065472031430333
0,0663925927655205
0,065494380746823
0,0674140270430652
0,0644421748769549
0,0674767426575602
0,0640610893602867
0,0628470980761755
0,0635788532506541
0,0647183902136486
0,063512278587312
0,0646780305568694
0,0654804081245622
0,0645479539291834
0,061414592080884
0,0620879682000317
0,0611376742411433
0,0633139741553224
0,0618352065126907
0,0611018577513307
0,0597569004704756
0,0634460507418522
0,0587195177273917
0,060649647912961
0,0607518828900879
0,0637914620862824
0,0607484928350417
0,0587380438930526
0,0574297018645255
0,0580395917011082
0,0582862278772033
0,0564458662457395
0,0565809200766765
0,0606986344749999
0,0586623395817086
0,059178509031448
0,0574382707405616
0,0598806296561738
0,0555669998065226
0,0560555822664278
0,0550069729751587
0,0558970736469386
0,0566885507309992
0,0576871886710124
0,0533231251351753
0,0583990201055671
0,0554105355050524
0,0556674420146991
0,0533559718096398
0,0538209356017505
0,0559689423875372
0,058140038216159
0,0532266353049376
0,0545509425928261
0,0549509379455798
0,0575070020822595
0,0545173185547215
0,055164859525201
0,0529205814897271
0,0556766973684915
0,0542849668827015
0,0578774743319667
0,0538817687089491
0,057585826494078
0,0556210199470283
0,0574972149629981
0,0535954895130936
0,0553377893402983
0,0548274868805382
0,0543236879520765
0,0521737425119728
0,0561763739155096
0,052473903507889
0,0555751592328188
0,0506836647776864
0,0531123636598397
0,0482977616733372
0,0570489419532075
0,0615557464479104
0,0657599279529856
0,0526041137183348
0,0511677285124074
0,0506329431611378
0,0630305713169917
0,0534502540970932
0,0536631871781513
0,0520345084539702
0,0568950528543974
0,0509224046691156
0,0539366076607523
0,0510223112120312
0,0580500303081378
0,0524946587274188
0,060367230842718
0,0513647331444052
0,0592274987311447
0,0585014188694047
0,0627707307231441
0,0497968518061175
0,0551946875332902
0,0459018954559012
0,0520671714733961
0,051944610259191
0,0556276632200136
0,0509740094966133
0,0605811261867948
0,0497736507394202
0,0554898472685872
0,0510078651725956
0,0543095166956987
0,0491513889705989
0,0541095237049709
0,0452121960438708
0,0487846277901633
0,0478323852933766
0,0540309083393722
0,051521103267969
0,0543242604059684
0,0524825045765265
0,0438785857364716
0,0477036051286608
0,0532407588469676
0,0659641245405188
0,0485728161519778
0,0537738214023357
0,0395972481786309
0,0686942561956603
0,0447652383861928
0,0622158611282941
0,0353498323044253
0,0710654281082446
0,0416694654313097
0,0605879836424685
0,0376573888714929
0,0687498339135598
0,0420688137723727
0,0589494691125755
0,0480631240202024
0,0548085999954692
0,0473090501484603
0,0554019547621504
0,04862825240036
0,0480364081973186
0,0481212215934584
0,0489235151576634
0,0511327760326459
0,0484914752489145
0,0460252847884069
0,0508031586863651
0,0464014215296739
0,0509654999261599
0,0454198815670971
0,0478321957634028
0,0452348523013312
0,0481274760366505
0,047874084419983
0,0509147991526903
0,0446685157676557
0,048019054214294
0,0445561058586466
0,045465303579877
0,0467305039477841
0,0468622876164523
0,0464045193520568
0,0486153212039894
0,0461269115694338
0,0483218883840709
0,0462400567986741
0,048136436538102
0,0452056618104683
0,0470838509711598
0,0449974327345471
0,0465746490789868
0,0443175302827209
0,0458411325537331
0,0459902734259112
0,0483535729285137
0,0485425583390194
0,0478461626978975
0,0467160493271618
0,0498365577116681
0,0468817210606901
0,0465147400238305
0,0455860976766596
0,0473257313522001
0,0466525468793469
0,0481937306383845
0,0456758563669371
0,0488918452002891
0,045176178228919
0,0469888379796365
0,046001396094868
0,0481840332040474
0,0480837221547631
0,0488113217029548
0,0448694233078335
0,0478633125110085
0,0474035414733816
0,0476895031436557
0,046642045791083
0,0455010664402818
0,0477178010286366
0,0489410940946733
0,0481120620018438
0,0497584245490572
0,0483370234118826
0,046602625201469
0,0471493800140964
0,0466081703803366
0,0462091671083884
0,0490684127599879
0,0458598206898969
0,0459323529769226
0,0481515943887599
0,0471459161772574
0,0465284915430149
0,0490698244785896
0,0469408588381752
0,0452076557869503
0,0462046712866649
0,0474363262747357
0,0461707301383878
0,0475066783439186
0,0465165711344045
0,0469825924740881
0,0457423897716421
0,0484157908251423
0,0494506453258291
0,046649795623713
0,0448571880880781
0,04807926738254
0,0494989983789718
0,0490002431536555
0,0488098104656734
0,0462474592079461
0,0460515659015167
0,049031646191824
0,0490657089991189
0,0484080087181221
0,0473831849224076
0,0480552074269407
0,0484521392214562
0,0494227231105671
0,0483774562899442
0,0486108214033621
0,0479907296850521
0,0497269556508058
0,0490304936070254
0,048903104224701
0,0480576190917688
0,047306478491818
0,0496311399766254
0,0487197104553704
0,0478050010101116
0,0494197816616322
0,0475752203727542
0,0513929357551065
0,0524553247197952
0,0495082638975845
0,0496842465595259
0,0514264445722274
0,0503948556509869
0,0500472167475691
0,0489253642177319
0,0486015472644001
0,049569511173204
0,0509266990085224
0,0505404426120924
0,0509583390515669
0,0499927306615388
0,0503860523295436
0,0500375387365907
0,0495660248312481
0,0501303195184748
0,051074870074093
0,0487841158069211
0,0496821840608355
0,0520274062978294
0,0496990681495483
0,0507226861325083
0,0502586841870591
0,047576920900023
0,0493551937692111
0,0512425457577268
0,0504493252726307
0,0489150748063689
0,0502821431715758
0,0508152338286516
0,0519502355260454
0,049892771183909
0,049204884607435
0,0522634314081163
0,0525244169356581
0,0500604633307848
0,0504418175401568
0,0507743032371878
0,0532532139101285
0,0505815248800504
0,050689535381221
0,0538563388320754
0,0535503477878173
0,0510380991087743
0,0515765990104345
0,0529347905213009
0,0516227282291759
0,0545174694926443
0,0537542755548332
0,0515239809613774
0,0529159201422627
0,0527794552833831
0,0529430177207132
0,0536199598503047
0,0537976381059294
0,0521742451054078
0,0521246048004544
0,0529151645893811
0,0550566563248305
0,0536775372349581
0,0516574052799127
0,0524416614524857
0,0513430674477594
0,0535392506846142
0,0536214650882054
0,0515096120439077
0,0524494428437157
0,0513393261328877
0,0520458158509195
0,0511470620443118
0,0510099411822257
0,0518022972548398
0,0510961674000407
0,0516871411351922
0,0495775223268809
0,0516057438931561
0,0518098925663937
0,0515380728708236
0,0520435536981154
0,049549991690242
0,0509410396086293
0,0499348387836345
0,0496429939966892
0,0504861737867956
0,0495028624202512
0,0487602608868268
0,0498498652301724
0,0498894994311635
0,0507147775605681
0,0501226325878549
0,049196237236094
0,0484318620386403
0,0488894372596929
0,0502354802499245
0,0506763550498185
0,049236715027547
0,04828672388931
0,0506003524100072
0,0504754179524843
0,0499832122746976
0,050002934304036
0,0487332224825395
0,0500804116882357
0,0508769364365206
0,048725192508391
0,0513680253255459
0,0489705724046418
0,0475319128082922
0,0487197746944929
0,0483163322447208
0,0494735396423803
0,0482351418302605
0,0472095528034592
0,0480853306746793
0,0489898016914788
0,049260726291668
0,0479978143887689
0,0483877135806198
0,049080855978548
0,0486967686279009
0,0477699476564933
0,04783414606903
0,0479570222459463
0,0496063335033805
0,0473810389409497
0,0469487279866127
0,0492916595280018
0,0479591082031998
0,0486395753738911
0,048174498854945
0,0474944071507755
0,0486414188111637
0,0484516799687813
0,0491970390841677
0,0469525987449525
0,0494172096178304
0,0490701298567666
0,0471619994756933
0,0458774081056899
0,0470054921296075
0,0483771481661047
0,0472732886712628
0,0478660082390332
0,0479373719692231
0,0466734203776346
0,0485903346952534
0,0472328161860367
0,0474666452131124
0,0483117010881038
0,0462245820759762
0,0466071259986112
0,046886494387075
0,0449289072494604
0,0461622432316985
0,0467661458919734
0,046793942680277
0,0465232195442109
0,0459187982906979
0,046243727369901
0,046591950385621
0,0456789614098927
0,0465092830663901
0,0459085115030868
0,0473041611814537
0,0474245363168257
0,0476417204946755
0,0465161135077436
0,0455096495450519
0,0468485361026628
0,0449480631986095
0,0466801833204662
0,0483990883772925
0,0472886969607576
0,0453618111944684
0,04601048668421
0,0467772460412992
0,046722209381318
0,0471676947718523
0,0462984880725481
0,0449618806071812
0,0440089895593759
0,0453762566771788
0,0450026042259564
0,0450211257803306
0,0445093292878233
0,0435401382541414
0,0438403138243439
0,0435112787975488
0,0442490363199207
0,0428917075384182
0,0422879394664736
0,0436740358775325
0,0441934125565643
0,042045020433826
0,0428459384497811
0,0427768881946828
0,0429596634451843
0,0449868549688921
0,0441686277970432
0,0431334335773984
0,042372330717642
0,0436583088459894
0,042569571281764
0,0427604292200426
0,0412306648139384
0,0408842033768203
0,0378842090688764
0,0410436423121522
0,0393271831932046
0,0411492854332621
0,0406602818841057
0,0407968826199157
0,0385323930055366
0,0386425212860567
0,0399933539719966
0,0430428366509072
0,0393440164079742
0,0398369741353706
0,0398229980179351
0,0400711209743508
0,0388564867586587
0,0410164711145929
0,0351644808621237
0,0467279043667232
0,0446068973027558
0,0403948307544602
0,0355172415362263
0,0413396213788828
0,0390045279302418
0,0407781993622508
0,0396291192617716
0,0384127150241729
0,0371721371470529
0,0395220011189573
0,0399534921481848
0,0382284939544346
0,0382227447829792
0,0373380187976538
0,0376803336313791
0,0396445039790171
0,0392405562832565
0,0391360968012506
0,0373731621785212
0,0387095676366501
0,0369095804676033
0,0381448375755749
0,0364299924411574
0,039250067952074
0,0365442815242597
0,0374963896952568
0,0402151607990827
0,0430181933337813
0,0409746486753143
0,0369916092326608
0,038646562969592
0,0370676125651265
0,0397812287875822
0,0391570334542413
0,0384949410117732
0,0358748136113664
0,0370939619504577
0,0364771177576024
0,0366866813327184
0,037309969814604
0,0374054836440926
0,0363535296865772
0,0362881688304435
0,0378097574539924
0,0370653867659549
0,0365077314039097
0,0384063573604538
0,0345465145957726
0,038439958820344
0,0356092605534332
0,0413991933577649
0,0308909088786999
0,0407954265172753
0,0400793775807163
0,0412373263474699
0,0362280857844305
0,0352253799030691
0,0374498051314855
0,0355151207906508
0,0348036902806779
0,0359455881135635
0,0357799701293218
0,0363465856511076
0,0354381285694897
0,034444691145788
0,0356894157198155
0,0356917014489441
0,035645613513109
0,0352814091029014
0,0346832112440098
0,0351639824590584
0,0366638511106035
0,0351032126271775
0,0349771282542515
0,0462702157086639
0,0393368428557275
0,0405327748612531
0,035062139199599
0,0329578060058362
0,0470937064667412
0,0386794402347873
0,0395014548770052
0,0327951891630638
0,0376780516314732
0,0326140785934166
0,0398873300621145
0,0301154524891218
0,0411883268400356
0,0338123102667101
0,0385622126427218
0,0343406113185558
0,0375811388942955
0,0349378977798982
0,0364747265611115
0,0349424510736115
0,0376619772426627
0,0343325872569023
0,0354077532442066
0,0345633967452813
0,0332059599354605
0,034835953450681
0,0371997384398203
0,029908253350565
0,0395598261857292
0,0370025310017472
0,0380822184377577
0,0321125418432505
0,0381502829808785
0,0263542719968787
0,0433879477999293
0,039647517409235
0,040956178585087
0,0345757334006389
0,0352753218409153
0,0346849617095813
0,0366483581620381
0,0339206330358059
0,0330352692255555
0,0348497102294154
0,0330725701520804
0,0330273861927773
0,034064260956051
0,035522066560228
0,0347571997811846
0,0350385496142495
0,0348946793570649
0,0359016108379768
0,0333884578784144
0,0359944237975692
0,0343784147576751
0,0308200665176215
0,0468021096621601
0,0405058602190402
0,0487927207941891
0,0385355006811857
0,0409989368459577
0,0317721363999989
0,0387392747429456
0,0299089302630359
0,0392761319304713
0,0348394905957378
0,0393620623369964
0,0339141412836546
0,0379798856891903
0,0315842884813913
0,0376458064664785
0,0324730502422855
0,0364397649839002
0,0312227066119144
0,0372124450617547
0,0324297795809668
0,0366884591505089
0,0323877015310866
0,0349149393410697
0,0361046613869229
0,042243587749335
0,0366152402938268
0,0254130131628843
0,0536273305586086
0,0427970019867231
0,0478154759612277
0,0326715553498647
0,0394396314850727
0,0313603442163468
0,035187349153145
0,0366613824774336
0,0417151200383398
0,03484874563796
0,0362795595263876
0,033557705701878
0,0374809772959446
0,0356238091735984
0,029054665578754
0,0436656064499772
0,0574055490669913
0,0452339452002845
0,0428936075862586
0,0260679535505758
0,0458999605116304
0,0473596721954245
0,0408495989164537
0,0364139101517995
0,0371307455642748
0,0383200020765854
0,0345347092464845
0,0349620766524469
0,0359887201653189
0,0452891297073648
0,034613877764237
0,0402549325477795
0,0338667074146666
0,0372529907907509
0,0369808866068823
0,0346656753926814
0,039001146893487
0,0431489820973485
0,0395308734749028
0,0413013357016702
0,0386875069698626
0,0390300691343925
0,0364267758232622
0,0402556408723823
0,0311869829908189
0,0442117885381812
0,0398235977427354
0,0422802279102066
0,046829071904058
0,0460920115723113
0,0423379675576866
0,0402867389615533
0,0404729810539234
0,049427869641124
0,0262415478977817
0,0547487693423454
0,0349240412002352
0,0676618686650483
0,0427601693959277
0,0493985882520951
0,0331147784669014
0,0442369264676054
0,0342524210378494
0,0391584661222405
0,0480546232473195
0,0445562428081295
0,0429783251089968
0,0328084287562608
0,04626563086043
0,0406933950068366
0,0472296538461438
0,0401069272906894
0,0434860104214848
0,0338305269978555
0,0601803262961548
0,038027536618873
0,0435081187338128
0,0468400490875659
0,0550150466857889
0,0695418061288137
0,0414998611198653
0,0476827824611548
0,0498028118489881
0,0514197512756848
0,0468050853064677
0,0399391501970436
0,0484337414423631
0,0335394905582442
0,0476894736579591
0,0607618710187489
0,0512878989815635
0,0509751251124195
0,0427562598638046
0,0478279981666955
0,0576068423714434
0,0540506194703342
0,0470246527556707
0,0464553319230023
0,0457173228436748
0,0385358137754087
0,080627957578713
0,0479940741262566
0,0711969233223931
0,051109679094944
0,0726294246450803
0,0498734596911641
0,0640700970777549
0,0441644502306848
0,0670717984660245
0,0601894802908804
0,0612792596163123
0,0373060946716841
0,0706986652883226
0,0570401963339966
0,0696459217144586
0,0574405950154383
0,0585380472520721
0,0454604345030518
0,069958959780819
0,0863596071590078
0,0893267210970394
0,0606691202644087
0,065787326501236
0,0671621272648572
0,0696676527464559
0,0626934477657148
0,0623439460789576
0,0648829525270803
0,0621561819218375
0,0648728555559743
0,068513395784419
0,0640062642468905
0,0753152920531921
0,0621970608440765
0,0732094728006368
0,0661474369181361
0,118255595798373
0,0812598442482107
0,0838563427557134
0,0762594202561656
0,0852983871885577
0,0838372289810101
0,0747899551126454
0,0767530015355892
0,075164455098486
0,0844788372775972
0,079339458294252
0,0743420798160705
0,0978913532071631
0,078578729194377
0,117042450942781
0,0897587519031164
0,10644205918222
0,0704656735771937
0,1012714392967
0,164577693138526
0,127908249321759
0,116092051047568
0,0834049179841525
0,128470702394126
0,12723835680942
0,13421436433202
0,114602017806388
0,12144914559857
0,117149318305059
0,131256151032326
0,129482949270824
0,137514795454825
0,14707548946453
0,144078934297567
0,133733312486586
0,151428117128056
0,18108277258593
0,216825300644834
0,170308334887456
0,172796877270764
0,174244881321761
0,187037646537424
0,180431608025065
0,192655776892829
0,167859492600469
0,223659984238642
0,206962777939192
0,227782836750673
0,190990029825596
0,224093446587053
0,212969833867776
0,222233969819701
0,243737952616951
0,245937482499089
0,245437907830151
0,228769253287641
0,25513014893673
0,236428402470507
0,25478210339558
0,262301679974166
0,277461182681454
0,272679688867106
0,265399568864489
0,27411430948881
0,267693830572212
0,284572304473217
0,275691237376463
0,287362286134946
0,279414128523655
0,300404376339921
0,430093021940771
0,319433667464775
0,30985030597503
0,275944312976535
0,299014264309578
0,298290816110535
0,302984047640125
0,33772882187839
0,311937207053742
0,306363554373739
0,289375644428295
0,300710280879453
0,288354470679769
0,305680098811848
0,294525392180956
0,296429426771538
0,315297655771435
0,282248986774274
0,355784644295043
0,325767064954361
0,317843771200178
0,287006278208326
0,297741803802597
0,285815740961372
0,301296157513965
0,27021338446603
0,303345001671643
0,29220631981575
0,294784116777489
0,272140110607168
0,276087681177555
0,295056279595238
0,293600264506698
0,28347969266308
0,265769275717593
0,269629848214742
0,274257238630226
0,240768010047543
0,280344929156859
0,287900831671017
0,275022920293518
0,247822724261039
0,253378029710436
0,249509555499197
0,249264170480467
0,240654048685836
0,255943474918469
0,244570079563202
0,248050629552411
0,24068100848159
0,247750303495619
0,240170163488771
0,241368145807899
0,243382048920431
0,24019583089747
0,247306202504275
0,236276294699541
0,236171480906083
0,235095917812003
0,237362686052203
0,238470424154086
0,237796359545228
0,238728234717519
0,237409750368023
0,235049664895595
0,231530016614506
0,236571047817937
0,240402594248371
0,233996965701089
0,2377575963317
0,236226035363409
0,236404812380881
0,233688485742328
0,235882609704984
0,228320505509873
0,232483757655462
0,229193583910114
0,235037407145347
0,225551324407068
0,233497748384693
0,220952187233494
0,227077390132603
0,264516796255241
0,241166737608231
0,236917251813101
0,215595685233169
0,235875287153294
0,209635150182307
0,220660454296265
0,232711913312428
0,234909470424033
0,225607071212213
0,211886332685775
0,208481293253315
0,227545752887267
0,208070723716277
0,217538648301131
0,200236632196356
0,200988800974239
0,23563730097263
0,211495846445675
0,305005363879469
0,247538101276129
0,236679828606732
0,186041158539235
0,2331268186596
0,210241904972981
0,222252915973646
0,192494579658859
0,195676035543385
0,20746960659467
0,199713374773652
0,20836912363246
0,18988171973085
0,189185168258246
0,208230830190912
0,213843635845313
0,196615874940762
0,210518556391668
0,197837305185504
0,204240297086957
0,193306674438915
0,250708196252017
0,216773079104989
0,185440215681209
0,187117714793573
0,17095714934036
0,197224826494282
0,185667745210165
0,190496058622971
0,187869604281197
0,170006315857678
0,178262633235579
0,165591624523485
0,199950227268904
0,155555796118285
0,186496693908572
0,17096728577768
0,175420150975725
0,160348137858282
0,176964117640271
0,212106411884632
0,192569118756314
0,178255248900997
0,150228601072059
0,186824778568343
0,174548248362829
0,183466985710974
0,167582988935855
0,147991787281798
0,162972622119496
0,160780219172228
0,153591911253253
0,159214649795926
0,154483906763445
0,176794857582911
0,161505365017707
0,207208421167838
0,188689567384618
0,154206862433601
0,147465800717703
0,139078572004
0,151220620925256
0,14114179453438
0,136036389077152
0,171626074564138
0,137811588739862
0,16164059738166
0,150743374493226
0,166768388322127
0,151066172151802
0,149025599937332
0,145656628411832
0,157274878244192
0,167930185302369
0,200347964422888
0,155879602641236
0,175295567619403
0,160610503737448
0,18074378856602
0,15934396381325
0,177544010578601
0,164663005488579
0,178190509766974
0,18018307467671
0,190211172371959
0,182219363050422
0,195589554106687
0,17711469009629
0,231530134801341
0,198905527665977
0,21950962841644
0,200905825194237
0,241084437184316
0,249826336393305
0,232455021794984
0,23244569722193
0,223852849804989
0,238447016468533
0,241089024847906
0,229942257881356
0,263762509910067
0,258467662342493
0,273483353728116
0,25238013432753
0,270795147820469
0,25741024751502
0,270614439236112
0,280484802368339
0,280647722443268
0,338202018675131
0,295907734524228
0,312538740230019
0,27405224041717
0,290770518845092
0,284017922086182
0,287372382752131
0,293571251493425
0,283086511108969
0,298418666603013
0,298380263850341
0,297123905332926
0,295681035312917
0,297515273621903
0,29663129116575
0,297034377582176
0,301906246175812
0,305405177652431
0,301363252969634
0,314239938696574
0,297466920412037
0,319968256588793
0,350985879995319
0,334533741476878
0,320920788511533
0,315266046738963
0,331204575251774
0,319927074440279
0,330935829836875
0,338057128373319
0,337249786221961
0,33786098702189
0,336055186728371
0,345125540177614
0,331234803711698
0,360886560069309
0,350977328568139
0,351741366439967
0,343863642630741
0,332854944243923
0,389209129297271
0,372091060912678
0,380745010179592
0,358062370483064
0,374339479163143
0,349802542102227
0,367708006218307
0,353801868257825
0,36753924307253
0,364419366909686
0,368074467197186
0,368877843711343
0,365081279356003
0,36660616994728
0,359733912370887
0,367164575234906
0,373632239379086
0,367513522952088
0,359754358872344
0,361268655388963
0,359742250462242
0,357401930716761
0,368293693732486
0,362305721768087
0,369839334999748
0,353726777221989
0,367150136657815
0,380958362179288
0,370058027416244
0,355893352109699
0,360174144693481
0,360239165456094
0,372123589208234
0,351570431403245
0,368124795537412
0,365560837703091
0,379340902751374
0,362344734618675
0,371623330901118
0,364943879662572
0,378232456498549
0,365053008675137
0,380027835700251
0,376766583736198
0,382021182458167
0,384812413184559
0,383883776691876
0,381151167590013
0,378174723866104
0,392731473570863
0,395227830786485
0,381700943018326
0,386845993650795
0,374421337750488
0,380522016609096
0,379688154839923
0,382363142848946
0,372003196474041
0,374851508818871
0,359586723341753
0,378396534507513
0,375458083970309
0,366903017273071
0,366591284279309
0,353474762807031
0,357143260406037
0,351428451867393
0,351083158790434
0,343840882025407
0,347414899235693
0,343738255190334
0,339878504812681
0,338275123346777
0,337308079513366
0,336667631481158
0,332920540126163
0,335114977312435
0,334583955810122
0,336893731839128
0,330686839197814
0,329968513423615
0,329174502921579
0,332769294548552
0,330808165989845
0,328767354956395
0,33442445809706
0,333006835333481
0,338876196870073
0,332518442982932
0,339573393662747
0,325124623797757
0,330009627945965
0,327114805164818
0,328071825526429
0,32383025170079
0,324968827077175
0,32661054615788
0,327315787653023
0,321585654860537
0,32325983556308
0,325586597984569
0,326648036260091
0,321473414289488
0,323163095314415
0,31951026578236
0,319504925274437
0,320634405290351
0,319503947996213
0,322238121767692
0,316989575225994
0,324003800724553
0,31762288532601
0,320405455906983
0,317075006061282
0,317323181576606
0,320043657627868
0,317635293403864
0,317499176371913
0,314581396536836
0,316420045139171
0,315950453469516
0,31246449283231
0,315438620862207
0,309883703693837
0,311612325042864
0,309229712895189
0,309794528124197
0,305853735562974
0,304665249276519
0,304282147763191
0,301846213949468
0,298068849298308
0,295786899538581
0,291681919086788
0,288492980557575
0,288093250430537
0,286564423752792
0,280890908736935
0,283359246031633
0,279689521279942
0,279971826849927
0,276407492896093
0,274217342735134
0,275785934327096
0,270997198154071
0,26893969236499
0,269040813114726
0,268686090658387
0,271415623578321
0,265986461330115
0,269757534364483
0,26872638438394
0,270204058527639
0,27021597811121
0,270626826118151
0,270174767563518
0,273798609988312
0,271540954840906
0,273280265308884
0,274287355129
0,277965319844425
0,277699737851376
0,279053339006739
0,278265132001903
0,277347942626796
0,280560181062643
0,280574492566475
0,280820603941304
0,28218116004579
0,285114136414713
0,284810513200294
0,284000476535572
0,283630947884707
0,286273380891035
0,287464719585913
0,285017163176294
0,282798889289015
0,285101007759345
0,282539159975249
0,280906400457613
0,284589124012366
0,280086391691022
0,282098411311328
0,28354689484421
0,280422708821896
0,2800640134683
0,277716078153783
0,277577094708647
0,278208663109464
0,274961038063403
0,276521771684197
0,274093781803201
0,273318222626972
0,272951169716443
0,271358187234219
0,270316541911854
0,271285109852265
0,269990789115991
0,267148619366254
0,266959922384938
0,268167538018296
0,262818955257104
0,26009609517909
0,261997150548115
0,261728071437878
0,257923681797993
0,258199325436483
0,257450594651802
0,257063361971603
0,255852402158786
0,255043233192677
0,255282730408211
0,251392005303857
0,252683633146501
0,248906713845875
0,247000601974325
0,245981615430227
0,245347003711864
0,241803796384993
0,242861050397581
0,240033949064524
0,23699566370594
0,236931488683711
0,235275330918816
0,231986341921925
0,229219236835631
0,229365559985454
0,22904181743294
0,227761063739785
0,227307377076317
0,226784429553618
0,225105672272453
0,225853630759168
0,22503585270248
0,223176520041819
0,225145141524167
0,223701202567411
0,221840149973022
0,219751178871944
0,221067988109485
0,217356843047704
0,213718919801345
0,213842121291211
0,210905131242896
0,206996718278135
0,204535424564917
0,20306845576987
0,199508443541484
0,196114298568587
0,194137811178242
0,194319560512884
0,191436366947817
0,194577110870332
0,196904365686946
0,198745481158652
0,201486494929862
0,204365584792079
0,210730107820922
0,21519074481242
0,221252721896935
0,230502939327587
0,238289181530297
0,247935965911537
0,257542243369483
0,267606065311972
0,280262986125504
0,292424067912398
0,30272556712051
0,312626998991364
0,323519144871459
0,339078513431448
0,349429601004383
0,36117982578133
0,371395655636815
0,386203813363154
0,396721300622427
0,40973170879672
0,421692365057378
0,432453551638941
0,440602579790271
0,455264471751099
0,465322605081889
0,475258919276099
0,485644911040988
0,490271511806533
0,50254982785844
0,506269744497979
0,511406634112456
0,51844730351803
0,519306228976987
0,519267962851576
0,521079934597028
0,525012046524415
0,525950012339382
0,525585083392309
0,523598052597859
0,522164110087162
0,519670230717859
0,520427492840755
0,514371692151064
0,514801375492415
0,515469661305819
0,515939994401819
0,516274507501379
0,514265402378231
0,517425824236949
0,518674968493095
0,524087157454189
0,523004116882887
0,522536465839854
0,529722636600749
0,534046031339938
0,536335681063552
0,547375296961841
0,54909447537724
0,558890957185677
0,568658750405572
0,573225357978044
0,57966381642692
0,589203970791007
0,600133461398403
0,602424925883907
0,609471705099386
0,618341737699994
0,616652731196382
0,625008458175255
0,628783026600298
0,630414560613641
0,631602654277893
0,634312586013328
0,639476119842568
0,627588034773968
0,630574144707871
0,631386230958686
0,622097332659113
0,623633352588607
0,626952223603918
0,630469561778219
0,633407443370597
0,634402150996068
0,642735806065988
0,650562995526271
0,662846387460376
0,659988512221209
0,678186803936902
0,684220174119061
0,694847788822195
0,698640486141233
0,711130287782115
0,716785853065668
0,716207090597014
0,73540489937024
0,747514814664
0,751554904738194
0,759269934602057
0,781914193727065
0,798957379241784
0,798823329723098
0,817652553695704
0,834498216239851
0,85982269159858
0,880793838558708
0,899699533961328
0,911754136356915
0,94071457113758
0,941957752515707
0,95542824427845
0,985371484631151
0,992412074932766
0,99626445761093
1,01711491085319
1,01880922218611
1,02667381222825
1,05594407172909
1,04843823257631
1,04512009911623
1,04572852214286
1,04682503184428
1,0498060869589
1,05403581369623
1,04156358817551
1,05189161345777
1,05526775216838
1,03489148340415
1,0378239402594
1,03379866493128
1,05062204528124
1,0414262072663
1,05772605779202
1,04502691437014
1,05945623159168
1,05263420399854
1,06067360318502
1,09818922211385
1,09908449222364
1,08361963682987
1,09748517382087
1,12967241417431
1,13034337293756
1,14249616904292
1,16226859129037
1,16035415956241
1,18687384464332
1,20350096343636
1,20566346146205
1,21046625955172
1,25718387417143
1,24093523019171
1,26278821516292
1,27679841035915
1,27503577031779
1,26807233323406
1,28713671036295
1,29948135118121
1,32823556215533
1,32700421374953
1,34345326080774
1,32835131340396
1,38985295710831
1,35952238783016
1,37470792261917
1,39963793598715
1,46033359267678
1,40995091704232
1,39292812341981
1,42471596996252
1,43025026407374
1,40373894424431
1,45011869714937
1,39846320821235
1,46939993568893
1,43619590174814
1,42870701623066
1,41233423843723
1,3718405480814
1,37449608961751
1,37580658797327
1,31837402759775
1,2662757998237
1,2452093945066
1,21208621186031
1,1750476446263
1,13274725524207
1,09004601095555
1,06225842156147
1,01468920728444
0,994904019291499
0,969045963365709
0,971630761009053
0,937550818930517
0,933360575024803
0,920267281487274
0,906521465599681
0,879009051833577
0,885602917539625
0,868049352370865
0,856037097146931
0,837726201717353
0,826379078156384
0,818720694792698
0,7901816614359
0,779505145894414
0,76695133757413
0,734112009439275
0,725833951776931
0,698394778068809
0,67679544501547
0,653390626119843
0,626362004441547
0,601760300168636
0,571266223050027
0,547827471079491
0,526197113836137
0,498250979629578
0,474377058068501
0,450001704213764
0,426425300187879
0,407559265352518
0,385618440546154
0,364551676717356
0,346765803744111
0,330763971618574
0,317499946205073
0,302433261673573
0,288725987681743
0,274319154621178
0,267765536451872
0,258978460442627
0,249618390985276
0,242599074702464
0,237042304811364
0,230226350791032
0,224735145635474
0,220924684199183
0,220983835082464
0,216934747760062
0,217885493099768
0,216345956719304
0,217558055380797
0,215323905544919
0,217339947241607
0,218953951577924
0,214231480820322
0,220960942498947
0,221246549988854
0,218679867453182
0,225544678962261
0,226004557839551
0,226505731237945
0,226288920117799
0,230470616293831
0,231203825703301
0,227865800556188
0,227828670902807
0,234080995560723
0,229381315008173
0,228287482187863
0,228610645794062
0,227698612063867
0,225534253838926
0,224935529284197
0,226061907865861
0,225818656696483
0,221028023781951
0,227822158010473
0,230566280265763
0,225312180036385
0,228151267357655
0,23391178385261
0,230744744350084
0,235746531513028
0,232401235102336
0,23965068831582
0,230189734398257
0,237441615958781
0,236561154591753
0,240651140636281
0,244071231449851
0,241660539831746
0,23703210983873
0,243398157006919
0,237661232985192
0,244858422103177
0,240698846862328
0,240039392495461
0,245122047943407
0,241475749785715
0,243201316573585
0,246798522303638
0,241834043497583
0,246174512211778
0,250044691849266
0,257274708435169
0,258087429504753
0,25780110293714
0,260720096981283
0,275748648339276
0,274692935347675
0,283609545634675
0,293043440244549
0,297046779369237
0,30397378843231
0,319435543472114
0,312244350506808
0,318757284058886
0,320646017394729
0,324435510046793
0,319343909685368
0,317737441522468
0,307971436333569
0,305271372931442
0,303935648728254
0,295461967550749
0,287320618682757
0,286594548762483
0,28206433740603
0,279148239385486
0,282668804779201
0,276763676487853
0,278700633704909
0,277310379506424
0,274536894456399
0,278905719621881
0,28301555318978
0,287556991061086
0,2790859290603
0,278818543086077
0,271223426310352
0,275772404567687
0,268107916655703
0,267378393024438
0,265462383699459
0,256931017434587
0,264507609814519
0,267566491446343
0,260467013899403
0,260039152090005
0,26779001273022
0,258198753390982
0,252327166318246
0,260558117920869
0,259207730066506
0,251489725283341
0,2554305574266
0,251846466268084
0,250392945050831
0,24614239993296
0,237951307636103
0,250850344826697
0,250208959010701
0,245549253030427
0,241044626258118
0,249052279051761
0,244476134594048
0,240539066935507
0,247007886547346
0,244909295005997
0,246520346000052
0,241120183346725
0,239927019536412
0,241149713026153
0,226706792603878
0,234267952568174
0,231069432685893
0,226391233079314
0,227127540944869
0,223246752044468
0,218426134889788
0,227488764830685
0,209703724492992
0,225929810148913
0,218983067498478
0,224678157831126
0,209321767254335
0,21926453547075
0,223677093624739
0,218391517830557
0,215497109921115
0,22339820961654
0,217518998867855
0,221319705841968
0,226806133528589
0,216262468773002
0,220328503043798
0,232376576705884
0,224134350788327
0,227823847985984
0,222258469476734
0,232537338656712
0,228241339100308
0,239287351850003
0,225878149486526
0,239020814704201
0,238121387259675
0,244754431590542
0,232791791403625
0,241644667221935
0,249914356161045
0,240837178305393
0,247009629780202
0,255874379178438
0,250677077519647
0,269931209885675
0,264011107588591
0,265945932815132
0,277143187478872
0,29448597438752
0,280931099517345
0,299498684652432
0,29519731208881
0,315973124035502
0,32206542549402
0,332623220847073
0,330756679741215
0,352987365241331
0,36149748494075
0,361874598123757
0,354931527713511
0,390531680347995
0,375671855716669
0,389008342746909
0,399040806310984
0,390767923534808
0,402178804189845
0,406563232663497
0,397768134397637
0,403407265124099
0,400515574043847
0,399080439156931
0,388147196204883
0,396358203184334
0,39512918463658
0,405138991430006
0,39143418101125
0,392750683696329
0,374586907760299
0,384014241191007
0,357579409636307
0,39227028503609
0,372480938002745
0,400411808683886
0,379795291989816
0,384751215216772
0,372710527401681
0,37248019406595
0,380732815671229
0,355650606447325
0,372177267616592
0,361676951432323
0,364715805562276
0,37066716193278
0,353701713567427
0,343785542234539
0,350514354980695
0,368428058517213
0,336005980157063
0,346771522986241
0,350091172307
0,367049285350155
0,367652379892629
0,354485960092589
0,34959069654461
0,367160799960326
0,34466644594974
0,356063851750703
0,336264027417725
0,345921946073665
0,327314579016486
0,370069456860587
0,348425006959827
0,351588710379181
0,33774321551961
0,361809194597876
0,343892680660647
0,384650335292401
0,352704467375243
0,37121395925344
0,372869337703853
0,349427164768105
0,370870847245391
0,371582733112805
0,324727264805903
0,381711719971084
0,343938163964998
0,401341733457747
0,382940946341335
0,41065158369896
0,372179536430083
0,384312916978636
0,388652738298835
0,404523238614928
0,425782401951915
0,441688770939542
0,387659843717594
0,409427018782201
0,424446176381857
0,458570989984573
0,447313224294438
0,467559026201916
0,467446139072553
0,504367903601956
0,504681103343865
0,43835269407491
0,494966050798864
0,510373704947247
0,475541965545438
0,536514112262628
0,524091708652731
0,547640583097687
0,444283777435995
0,525943874637982
0,456557951314103
0,473580651005961
0,404580441709255
0,515545535249702
0,417578439718195
0,51045136950259
0,467227120606933
0,520868421360469
0,441220276497256
0,506978529986071
0,49035098692874
0,574815975475393
0,428453221329851
0,456278082066442
0,494151095944569
0,51193557700102
0,442453228586141
0,571474408459486
0,545007939277503
0,435468803286377
0,353756122639783
0,458589982190688
0,54628620000201
0,43109222264513
0,441116071489778
0,575625985868491
0,46109938687309
0,501018413998106
0,400765667783494
0,433505226293853
0,324691355379872
0,604882515226145
0,448563729608548
0,4004118457845
0,430780285653798
0,668520502560039
0,591011920019262
0,444604904989633
0,457445114377523
0,773678602118266
0,518037870461521
0,561705631267407
0,466142326550783
0,540513505623605
0,410947925938926
0,536832828709827
0,422380557034081
1,11245733767383
0,342689993785603
0,874919179437409
0,495806185259269
0,476032597170885
0,352680659238867
0,845429097912863
0,53066056738413
0,781288492760594
