3596
4000,36533379555
650,420452594757
1
2
2
0,0680917723737172
0,0589318086084659
0,0678327890569426
0,0586421143522198
0,0726642010508067
0,0588174284111609
0,0710809204343955
0,0562801459708062
0,0680139317378591
0,059846813174332
0,0614194536838227
0,0599238376727323
0,0637002752472355
0,0487254650077696
0,0618164057464222
0,0536017743411008
0,0601713529724749
0,0557085098617836
0,0680394250856573
0,0524623366890147
0,0585720871078556
0,0522906370729295
0,0608186788312566
0,0528144616641485
0,063216211854027
0,0628356425447497
0,0675078086904196
0,0521017904645794
0,0653414065056313
0,054396308473158
0,0583577489478747
0,0548517150925056
0,0657286130052839
0,0542506431426026
0,0672470265624675
0,0578596858983525
0,0715921838630173
0,0672230035178014
0,0679731873218345
0,0592755118062713
0,0690667198159554
0,0536932359832767
0,0638534470257902
0,0585811993145204
0,0634475150428241
0,0611532260100598
0,0692316864755635
0,0539810030062072
0,0602810079130499
0,0600868430084963
0,0752022912097104
0,0552942825510359
0,0657602370054623
0,0673112894218542
0,0697322495228611
0,0714163043436927
0,0693011491322323
0,0517636209652087
0,0616748491931771
0,0542084936995842
0,0743488102325739
0,0776283362533281
0,0582619307203596
0,0634301397761314
0,063642788673612
0,0604928047835026
0,0523198786729459
0,0575349301542332
0,0622647351082765
0,06204287882219
0,0651308397003516
0,0711293136917588
0,0894035663702769
0,0563957642089351
0,068084224160458
0,0584027162781045
0,0662890698340598
0,0547585036585072
0,0523375326230331
0,0615592004620514
0,0783467216462325
0,0597321598243684
0,0631598686247219
0,0494751379071958
0,0605680059519745
0,0778787595572041
0,0646329362770819
0,051533181396304
0,086345799109578
0,0611547577676851
0,0642063048620559
0,0565144193128128
0,0644784162127264
0,0572887791629202
0,0585800995605371
0,0515589640187916
0,058298185037811
0,0563471569402683
0,0576130797154018
0,0556746970012205
0,081231795421368
0,0483153645411198
0,115698557242669
0,0493555655226749
0,109200048123692
0,0757042505088566
0,0363156330296907
0,102576826356881
0,0857441596699596
0,0691834174057011
0,0554709535954339
0,0582096500154683
0,0675293768578629
0,0609075397061789
0,0523570578055784
0,0670157972589551
0,110865781702548
0,0580704833919287
0,0590170301038225
0,060940487968093
0,0524480170828901
0,0611063090769792
0,118639998581108
0,0539293197241743
0,0776704768849136
0,0521379357972015
0,0528436367905654
0,0876929310889883
0,111140591677247
0,0534078676960867
0,0645999474972168
0,0519992398794716
0,0626228949721018
0,041028329411842
0,105550916980591
0,06106668380987
0,0625288001156382
0,0509238082004079
0,0813965436979942
0,122559600427877
0,0763815047940172
0,0606432433957207
0,0586534210257338
0,0511325118314669
0,115886625072374
0,0804651770537383
0,0512143296196084
0,0627274836297531
0,0835328615082963
0,0545858204274638
0,0615886182878344
0,0456134084111633
0,0835167437109194
0,0685664240706606
0,034679141862486
0,0652880432709002
0,145570977720804
0,0600352655165566
0,14484152982886
0,0614422493691263
0,0729930282935994
0,0536616157496704
0,0597381651988205
0,05606620195286
0,0662664734175213
0,0498434342883778
0,0686933835688314
0,0973933715339766
0,0591443226856715
0,0558530945525356
0,102234771344121
0,0800407516788421
0,0601204561455677
0,109930078477414
0,0898405843230555
0,0382445187741928
0,092096129138076
0,0784649811918132
0,0561940328266433
0,0445427403946916
0,0905413745904819
0,0536798613915347
0,0653453396172772
0,0479346086260455
0,0705319416519178
0,074649484656304
0,0688721388848217
0,0564663373418295
0,0681994186846482
0,0442269222934594
0,0752852469486237
0,103659860403343
0,113881089903768
0,0602894780198825
0,0651176769469964
0,0225392053355958
0,0901434402954586
0,10201319697746
0,059369779524118
0,0483264645692207
0,0579565347978243
0,053989410587952
0,0601580960408634
0,0497223341757754
0,0589700299304975
0,0256767395129665
0,0951475978651215
0,0810296346108766
0,0659547365670716
0,0515776462382085
0,0635500555241908
0,0472751578826159
0,112149325399202
0,0964788172018321
0,0618708941330173
0,064413406743035
0,0462638081556128
0,0733799179168566
0,0928602842486374
0,0541861671023367
0,0602256115610296
0,049149352912949
0,0590688485572799
0,0508196955183145
0,0562433470353583
0,0567988969469805
0,0584420419783664
0,0527446829819516
0,0585014369199385
0,0535850290949258
0,0649706695504326
0,0587978113204642
0,0537854552455239
0,059632835343635
0,0535818978335119
0,0534604717605237
0,0886284347448598
0,0530069191612039
0,0629228146996861
0,0527628589219952
0,0614021463235648
0,0539969859894777
0,0562033836900544
0,0485324866751425
0,0581461309109549
0,0315038159251285
0,101039745460481
0,0681510564677134
0,0561512374589129
0,0461732318612712
0,0776059595992856
0,0702522093147615
0,0537702276293614
0,0622708714951053
0,0558119506294287
0,0488044101702161
0,0498618279461879
0,0909548976270544
0,0679469207864672
0,0542385709022924
0,0759365955560214
0,0704091275922754
0,0596220113015743
0,053845416808613
0,0404807999765646
0,12905770001382
0,0861777105443967
0,0427500885254292
0,130406972113201
0,0842066852009246
0,07445836323274
0,0695531708964473
0,0204082695807382
0,14440797734373
0,124933606220009
0,0638743269965967
0,0699001621046772
0,0829174474940971
0,0610296216268471
0,0561426528736286
0,0703671456798693
0,0622387196237924
0,090826382121898
0,107200758644654
0,139609171132875
0,0404375231507489
0,0781483151608639
0,101693865982303
0,0640057737514715
0,0624269337194222
0,0569349697852415
0,0575202499694247
0,0761453078472164
0,0830658028852622
0,0791918929090523
0,0697345368924957
0,0641691422255037
0,109140466875979
0,0754551541694168
0,0610009425771723
0,074057860949481
0,0741417573990555
0,0563550597734167
0,0572209606324263
0,0620982879325264
0,073504335204582
0,0639064354572868
0,0501183522319468
0,121743483783132
0,0844171666109472
0,0571395027934895
0,102014642192935
0,0713370490556123
0,062877098437962
0,06232719392755
0,0526740231893875
0,0558110679145363
0,0518440533070317
0,0421142887207572
0,0874661826864913
0,0826351001453484
0,0621126334997128
0,0668022129054862
0,0560398855833348
0,0630959302709662
0,0603357710923412
0,0677035513977584
0,0637708462861184
0,0687617809649933
0,0533093947162463
0,0870022585150247
0,10412871555533
0,0555188170870359
0,087095213611068
0,114704563365788
0,0659826342224871
0,0729570913603166
0,0598007307813766
0,0679102767074905
0,0617610102527024
0,0700417242837078
0,062910754158934
0,0676517754246913
0,0947041885547929
0,0896806952628132
0,0699650445735282
0,0744138263254497
0,121012290543432
0,155899116415715
0,0920479932004039
0,0737413617804291
0,0575333510751894
0,0957736350625179
0,110271182572444
0,0972432726124062
0,115218870914931
0,0803916281664051
0,0813277447089653
0,0793819647507107
0,0807374400500031
0,0731689587853778
0,0739738792770123
0,0855998257850923
0,0852088500598798
0,0886562165327033
0,0866897463715424
0,0818436128682845
0,0840851307209456
0,129107913028683
0,106574761027739
0,0917347860162097
0,091455146182958
0,0914717728692161
0,115111818858105
0,128223324648439
0,13035671056366
0,138168855953168
0,118001924029655
0,155134403103784
0,114306384582896
0,110912819034171
0,0959595156810044
0,107734086782166
0,11222617963794
0,110744764773853
0,106666812452484
0,112673933927467
0,111117600736034
0,129776022444662
0,110533014111841
0,120591417252611
0,109454730266747
0,144231287747253
0,130307219392913
0,125171957755625
0,122665374243455
0,142596222734411
0,184834103632997
0,19453016123815
0,153250461586966
0,136038552597371
0,136775471167583
0,13090793906838
0,138531348736304
0,142175462027909
0,148227377947712
0,145102756639562
0,17538156276392
0,172037742953984
0,161815973685029
0,176618308682217
0,151247162289255
0,175869909901114
0,164256087002754
0,167666601357018
0,190759518138318
0,178195372621195
0,157633830991344
0,181606477617082
0,18874138644097
0,170884326243165
0,198080815825302
0,176896847219168
0,170958861812975
0,172705422868779
0,177620668288317
0,178336799640438
0,196832583638403
0,199967251996715
0,188937786341852
0,201047623579529
0,196177326615651
0,202592132933003
0,207311749029052
0,192064339310646
0,200502467882869
0,218920869859841
0,202255314233591
0,202683683712833
0,196217811362187
0,232157778147117
0,237767493256815
0,229223843953815
0,259308307848753
0,223684383198925
0,213072457829774
0,228347161979465
0,22513176330064
0,217225791924452
0,225290753312544
0,232267550682786
0,238703169576804
0,236989914449633
0,243634086197721
0,239892442554514
0,240352932503038
0,245027956946297
0,253374657363863
0,25502180650471
0,2344517895838
0,259464367407025
0,274623939522967
0,287921506660868
0,298530504839847
0,315807523145002
0,311986883701053
0,273546691767411
0,287808582106242
0,282780260510513
0,278670394623782
0,280784938040353
0,291564325515412
0,28919709991728
0,297079130246979
0,299341817575586
0,303317341649219
0,314304667703182
0,306001866760555
0,301889430853288
0,30635954803709
0,325071078093793
0,317622772327421
0,318144438580255
0,315663919676272
0,322500799346145
0,347064816556101
0,347043717628576
0,342644647467411
0,34434247382783
0,348393101094462
0,344724333848492
0,345900057906581
0,354104406635279
0,354474325730006
0,351804450868787
0,35038282464148
0,354404652397013
0,374431020443858
0,368424230387918
0,365822454261888
0,365745849846933
0,369690072952903
0,384686103202828
0,372226844100056
0,378845041139457
0,389462068309717
0,398800900617599
0,40674461636785
0,406348731714429
0,409469021409239
0,396566818810269
0,413356096081355
0,428789841790042
0,41640445399805
0,413360210768367
0,419678529458039
0,419119438174721
0,420964400768903
0,425294114683687
0,439414449133111
0,425677373376621
0,436706326915663
0,442073921409294
0,449135933119044
0,462867919953483
0,465719929455954
0,458134083697311
0,439033684227754
0,45783864081185
0,472369951523539
0,466761112459681
0,473943202935857
0,492164283406856
0,480776047823325
0,478647421030043
0,502471168004691
0,476159944466915
0,471093793314411
0,491608173636307
0,510100360671993
0,498619997710066
0,505391339490023
0,508690804384313
0,499952887913486
0,509554402382748
0,522843640329537
0,518166769772536
0,532053163444326
0,526194335367745
0,519527640544133
0,528822487110018
0,529664860368068
0,525325426189872
0,537631742044671
0,541305554550926
0,560769971442294
0,54754090239374
0,549337261010787
0,542186689090736
0,559392887754405
0,542020418507479
0,55959094513587
0,563843730183798
0,563275826855064
0,5919678267286
0,577307015985488
0,561051215066746
0,57131042191367
0,572862265458701
0,580878567381216
0,575455486626735
0,591483953722942
0,598277719278453
0,607409637261662
0,585366996754449
0,597795812703322
0,619990488199116
0,607233793881052
0,593346544355481
0,605658329712499
0,619241245568238
0,63614567832755
0,642377623981417
0,662167007916164
0,612783899157845
0,654838043767013
0,640802138856123
0,616700758536833
0,638763184016745
0,658173280878154
0,655276544306656
0,65024598888632
0,64866262168706
0,673909082235656
0,651315819612471
0,650730874025363
0,652796408677397
0,632332002677437
0,65217707007008
0,683460886151436
0,667541653035484
0,677757521775936
0,651847897820332
0,671665509023784
0,664450795216272
0,699345490508571
0,695477586669106
0,728568976198787
0,715059733382295
0,688966521991268
0,696989004397216
0,683028498188709
0,682987450355103
0,730889401586995
0,710179847662418
0,750619100699513
0,729716432544026
0,739431891354414
0,741074982473877
0,724682927859385
0,720174020629244
0,754114413935594
0,769501128483669
0,742460905002093
0,721215063036132
0,742526585046279
0,724356797143148
0,728983770714964
0,726730622643539
0,746170022745922
0,739700803262266
0,769889476006767
0,7438568843397
0,776338980324111
0,743680018192517
0,766288935731362
0,765747016272313
0,75397304025465
0,746960274849454
0,780524930101235
0,784603851916719
0,769505397085167
0,772807665863599
0,777947130985752
0,769730911875783
0,825904375210842
0,791356018202447
0,788549247764432
0,78289867147071
0,820209198804823
0,795324641586771
0,774948661074878
0,766572124274617
0,807976931321777
0,811038588326142
0,791752833891317
0,806052137445327
0,832419543405131
0,820029251765275
0,859758161376182
0,837200395735977
0,841007885335641
0,796159701766069
0,819703365677111
0,806656364111898
0,821713389700299
0,78064508304678
0,828160608380361
0,804292842891184
0,829497701286781
0,841483816737191
0,828308446734032
0,819764961916298
0,845352510483691
0,813141584569866
0,87200015271777
0,845116136614161
0,832743436217854
0,825804726536033
0,854263794862386
0,838239720030303
0,853806059329846
0,870894335701074
0,869848606547692
0,808510186728137
0,855157091738717
0,885109356122825
0,885531968152821
0,844238079115122
0,872954882705947
0,857469007734321
0,866722981940001
0,845009856591473
0,882893272397549
0,876877143902885
0,858283512361843
0,843488572210083
0,876647081582132
0,84569279037807
0,876527781018283
0,861805583445148
0,866196042332456
0,854217372429389
0,884354883832299
0,832498136093222
0,861546192927664
0,863278126041523
0,860757779829805
0,844660832168249
0,887251606391591
0,861718342141026
0,895988686169238
0,848489593031195
0,890661530120772
0,873210293931581
0,884190935745685
0,86255287606276
0,915006113772187
0,883239625677082
0,853028850543381
0,855364039789905
0,888919897597513
0,854989600034433
0,902487305349377
0,870798473637393
0,889510503607616
0,862668965632991
0,906361867070645
0,877596206402279
0,888443211542492
0,882576998644334
0,906934993901754
0,878207023688702
0,88075545939775
0,842416244005935
0,876981143049584
0,889007266740738
0,894110675350543
0,883820624594847
0,884933175271538
0,863142446734053
0,8913812876016
0,839294751558517
0,848388719073654
0,843998350818708
0,872436497995417
0,841743681622513
0,886261981872244
0,873209876566293
0,891949135068336
0,877466792799595
0,885046414042238
0,850190069375
0,859606465629257
0,853181054532862
0,885687129446523
0,871227814970573
0,897021244336797
0,855883007941274
0,878939136990035
0,856643420451396
0,892546414419898
0,861048363098339
0,870122473004918
0,850807210420508
0,864913096568865
0,851763946218469
0,901934328967071
0,842624953471529
0,883709665193016
0,861575106199328
0,892792130109168
0,859884394520881
0,859364951911888
0,853846776536344
0,835167821369586
0,820070818383626
0,850991347558619
0,841683486237564
0,864686127921542
0,845709894844455
0,854556512339397
0,857559596876203
0,87481094299652
0,856828973709294
0,873884742820154
0,868250837287188
0,86202843692802
0,844679662410055
0,862685206007185
0,825494301895933
0,834388507602221
0,838929282181179
0,83442224056502
0,827310498079821
0,837933861859681
0,827517740742825
0,839658433545234
0,816107347837302
0,862735035802602
0,831978175235369
0,837859974338854
0,805900996877301
0,806246839210542
0,823398731088336
0,841998152309905
0,79638242034605
0,803415979089571
0,817742036578352
0,841659644777595
0,803375248651894
0,822272020445731
0,806125683031784
0,809233524542498
0,792640618513115
0,829923873173614
0,82294753601922
0,826103001989384
0,799240529302722
0,807748855178089
0,789052647234969
0,831853278516248
0,798031542636544
0,80208878425862
0,791275420500057
0,812892416759407
0,780180214950947
0,794227146493496
0,772873971804986
0,790702272106362
0,801125788705746
0,797430631430511
0,75622120026691
0,783962254919097
0,773552851881365
0,781192654220205
0,776445622180584
0,773520933620271
0,748761455986181
0,774462760342086
0,771408877101143
0,764016325269479
0,740101559763321
0,756725213343961
0,743353173903418
0,74145592780693
0,723658361705207
0,76047667632261
0,72594319799741
0,751531844832186
0,732832837916885
0,724622909416923
0,735630818525833
0,761403561707556
0,733056688861608
0,723002716828883
0,714588895008537
0,745197117580117
0,709341357201154
0,719297954056163
0,710206486806496
0,709439906544878
0,708624580186365
0,717359714681412
0,696337067325981
0,716906055541334
0,690682425462582
0,68054408695845
0,697515970181671
0,690434434099624
0,671815260654257
0,690295172555427
0,680857282111522
0,680431745242739
0,67597264956591
0,690970485891436
0,663609323545665
0,643909229486145
0,664025198122368
0,66336544069446
0,664737310091072
0,666685900245356
0,647117625048165
0,656088070471545
0,635809082977546
0,639910007433362
0,631697069824729
0,639027581529665
0,62543215071122
0,633118296843721
0,627988329610211
0,626972239926419
0,619131636448373
0,621112073506843
0,602630777409131
0,632139668550242
0,618120232430324
0,607035574767778
0,60167418878325
0,616149882738056
0,597938806035985
0,602892455086784
0,592465640011377
0,599525694207871
0,587072088747559
0,59270923554742
0,569722409308863
0,581183778327253
0,570176917744319
0,581037184897704
0,569755827765837
0,5686699949023
0,564257733500355
0,558929836758486
0,560695032569916
0,565858027229044
0,544718367202109
0,551721771224423
0,543326139136476
0,546566341953643
0,538647734194105
0,534841469538882
0,523515924909199
0,533287747895827
0,52766584296795
0,532387602047168
0,514321682531813
0,5219312740231
0,513676622468019
0,5173193022036
0,507818625548136
0,511676131278534
0,502830998976588
0,502147047415705
0,492029172826737
0,499146942710324
0,495171807822994
0,49508776151293
0,483425044715732
0,490700097588614
0,484274600386894
0,483994114624923
0,47631065204436
0,479450407462963
0,464926793126571
0,479277190669636
0,464533280921043
0,471686594104218
0,4629324089476
0,460890741077195
0,453045980491507
0,455807115517942
0,450908043319211
0,451541873436398
0,44447868267486
0,443554028226208
0,434330668523367
0,439951895886703
0,432269238098669
0,435377758653337
0,428636309457399
0,436524689043637
0,419504587081836
0,428873557998695
0,422784014867313
0,423872289104189
0,415986586885953
0,421543874464985
0,404801063545086
0,41561519835343
0,405516480776866
0,403164646612795
0,402227732372393
0,405897777622987
0,396225177135742
0,401169301812299
0,388970080333341
0,391157895059526
0,385691021997195
0,387532363769914
0,376204767423489
0,376154393234193
0,365658257283925
0,379508620014888
0,375825232393549
0,369139626432048
0,362670820641581
0,369478566989875
0,361665144453374
0,36768246875228
0,353697826826698
0,365403968777583
0,352796073299718
0,36065169358222
0,35123445940355
0,343241601693308
0,344258035491118
0,348413811970101
0,340076425111698
0,343038699586848
0,332520845524849
0,338641105482142
0,337794339659621
0,340950410249983
0,327987824410272
0,32349642715171
0,317085727596368
0,323372507082265
0,322412154150913
0,321659680283446
0,311282856305758
0,322956678648837
0,31153984890055
0,308674737978406
0,304428431045577
0,312158484185182
0,303685393802412
0,308529876193412
0,304079735835972
0,303790169743108
0,301513836271522
0,295922994465158
0,286908311694346
0,297299234834335
0,289782158528229
0,294801085239643
0,289528055264178
0,291096805125667
0,283898355792759
0,287261798779451
0,279729882932463
0,285856444874077
0,278791238949686
0,280355801749356
0,274158246262338
0,274664339556974
0,269089970627577
0,271947714997777
0,262842569918809
0,264486624737296
0,261309850134032
0,261390052168053
0,265277084863409
0,263349740480912
0,260853204281455
0,25769668985094
0,246807668100498
0,252654514327408
0,254646437491241
0,255822205086155
0,250313750244237
0,255354645761416
0,249591752355336
0,250949045656353
0,242242446005835
0,244347785130793
0,237826012298642
0,246651379094848
0,235158380875302
0,246692275927741
0,236113133178501
0,239190593063739
0,23692113964848
0,243618271078698
0,234612415615971
0,23732648365108
0,23287674677253
0,23501852709512
0,238176847030013
0,235332609603627
0,226882539418958
0,23526396068501
0,230402652474623
0,232150641975226
0,22856191141014
0,233396901210654
0,231965339780122
0,234939415584839
0,227261139008177
0,232427479806938
0,226673720617377
0,231990787814476
0,23296524379597
0,233478405689895
0,230302297733909
0,236233039417886
0,234601484786367
0,237135366230352
0,234574348237651
0,242125020714754
0,237003768082525
0,239566640397766
0,231678365460507
0,246023139103547
0,240875325424765
0,245156882301428
0,239774149232521
0,246502850250032
0,243110563205411
0,247186038909841
0,244792245956209
0,255507352078261
0,249584357131325
0,25571929986295
0,254970498188329
0,252934755212604
0,252303565713089
0,262011591303374
0,255197480467669
0,268544444565772
0,259749017607835
0,264414867259619
0,261280812144737
0,268387925033915
0,269649379747816
0,277044909817088
0,273233396387261
0,281775271865295
0,277063415470446
0,277985626451071
0,280124654984602
0,288988711817088
0,284227579748394
0,289711087624736
0,289085643418105
0,302213576101082
0,294403991970193
0,302446501602126
0,301480634248048
0,313743995528247
0,308215721556312
0,314689506042678
0,314769695838004
0,327725561345415
0,317680572025841
0,323437128197752
0,324199612543979
0,336133211142449
0,33190115101927
0,338263234194582
0,333900149532684
0,347784293359922
0,338970244228868
0,346718871993089
0,343118895845805
0,347682666706529
0,344773565683196
0,354658987388463
0,343600333038201
0,360756257659123
0,352043801670929
0,359967928860645
0,34734259123668
0,352548292826899
0,347364590678022
0,365525203657284
0,352858998017487
0,358865776737688
0,355764207694627
0,350512133377806
0,340694436784677
0,352774244736091
0,342421798897005
0,344706821234639
0,338936068438183
0,34628995941757
0,335132151918296
0,347294487741552
0,337269641771638
0,346556314164997
0,333416465587012
0,337512938907485
0,329623815738787
0,338805629461442
0,332767561191881
0,333398442144145
0,323836960591327
0,334164268664656
0,327771908639284
0,335573260849954
0,332172655202892
0,326226579279407
0,323947299130392
0,336356519192771
0,323404646700992
0,335533688364634
0,327106446891041
0,332168134876929
0,324863710091587
0,332705676841772
0,328249417881349
0,329066250211515
0,321937393923621
0,327993599860459
0,326514528302739
0,325503723828869
0,317346753535141
0,321184731068523
0,32026661400354
0,324122805144853
0,31250045802486
0,318926840503505
0,316338582873005
0,316686562428349
0,309623590566609
0,310004562743473
0,300899919283669
0,312768903389062
0,300723234426415
0,303227119169101
0,29308136237996
0,30228570519116
0,287515313178411
0,298465236454894
0,283229438995412
0,292528544969141
0,279061517230028
0,283351960410329
0,278178403121173
0,27637911269932
0,267798440073459
0,279054148562299
0,26243113835399
0,271205315083747
0,260823080252617
0,267425724346721
0,261066466288191
0,262453965205318
0,26182090879759
0,258780083202443
0,255034241990573
0,257714724966216
0,242035976274845
0,248838629130457
0,238039391320434
0,24185487349477
0,239805958101218
0,237898883521422
0,230578464460402
0,242015930906406
0,230765462818229
0,231292724153439
0,230908538606216
0,235098567855897
0,224380733797394
0,226205952270922
0,221276710781542
0,226438502298117
0,214196402354121
0,222660814544829
0,217047149606746
0,216827989016781
0,212966254659148
0,215250035350452
0,214199845720091
0,2139704967472
0,208603678254574
0,218945147759849
0,207695962345058
0,213221570908047
0,203161859234328
0,20152840357661
0,20506691421449
0,206017145610165
0,196516418818814
0,202132556988693
0,196735597055568
0,202744184434202
0,194962749203054
0,196700833165137
0,191243913002796
0,193895508295311
0,189312032456365
0,197298251878791
0,188296445310173
0,193345838131978
0,185942886916336
0,19046583916306
0,188935296668523
0,187560796279843
0,183767213268226
0,18847773398966
0,182616698094886
0,181570892071024
0,17895877013897
0,181880457734611
0,17464265323698
0,182655019569528
0,181771588557314
0,181631711607744
0,176231299534722
0,177575638751963
0,174988952187837
0,179861894798009
0,173449810375195
0,178346015511973
0,171607346238467
0,177160475060374
0,171572554179131
0,176776725661608
0,171250126865856
0,168646180503978
0,166431305755632
0,171613207218257
0,165502263742302
0,169383459692657
0,165888096976822
0,170085877759329
0,166494743272459
0,166817497988348
0,163241877416609
0,169178318773442
0,162638671508217
0,166969290114433
0,160142385789815
0,165771211393924
0,157511814855487
0,164196191571779
0,163141391391427
0,166565990135238
0,160561954864821
0,16565157835959
0,156941720314966
0,16204669023693
0,159935133801002
0,163643941301867
0,155568395029158
0,160967480990893
0,150969495954755
0,161364593028014
0,155411182083001
0,159407648943282
0,15631848858215
0,156648829328709
0,148044620591313
0,16072846058533
0,153323630144178
0,154757132267981
0,152956959068152
0,154195919219443
0,149823449351304
0,157017849465172
0,153618873863264
0,152966746890095
0,15066286413387
0,154893601937917
0,148677534283739
0,152230311885201
0,14809889753526
0,149009473865044
0,14774609279397
0,151473363626727
0,141673822307208
0,150752785998466
0,144699390814456
0,148106186138647
0,141591444562377
0,150626358568726
0,144708555582534
0,147725862606879
0,14699981119442
0,142802959838324
0,145730201127019
0,149778476330838
0,14211314502035
0,149445888432333
0,141384484231619
0,148000188839875
0,145058808145867
0,148566732051445
0,142590493560747
0,144435134200997
0,13948208564646
0,144724107480767
0,139747116003765
0,143665542092236
0,141058510742832
0,147000499100521
0,138637084819703
0,145368962263644
0,140877955814192
0,144553305016463
0,138156352877185
0,142805267803183
0,137705146355349
0,141177533551593
0,138214357839954
0,139509329423665
0,137513518558162
0,141326119200764
0,136254386811791
0,139038154991579
0,132596653267912
0,138138104254938
0,131913840720713
0,136715544480883
0,131034405542599
0,136674438981128
0,129321961041172
0,136204902878999
0,128775787186433
0,136394820736341
0,126427603575401
0,135634933264078
0,125729864436202
0,130891957187562
0,126343781337046
0,132815913906746
0,125279575800111
0,131008782819916
0,126262272612368
0,129764316009455
0,122734956960961
0,130634849663505
0,126166340820406
0,128933506134677
0,123044317017768
0,125969273443468
0,120444687449792
0,128680971485851
0,128281374066349
0,12486654959698
0,124076084530396
0,124329162693039
0,125434076158855
0,125712650046954
0,118808928094657
0,121223028076962
0,120035325539941
0,123315918000307
0,116216026140796
0,118722297546472
0,118616395295392
0,119033860238062
0,113849506304639
0,123788014609549
0,11494868700312
0,117123353003686
0,112718745241663
0,119602023481261
0,114254905390558
0,114835598629854
0,113879659068971
0,1175304821429
0,111055591301847
0,116903147076731
0,113145849226082
0,116295328062119
0,112161153807933
0,112229967997199
0,109611586852373
0,114128332505566
0,108867550899817
0,112849964415947
0,10937413491628
0,110217542534224
0,1056977511884
0,10898045700102
0,100589186702799
0,109664409828747
0,10183429938773
0,106432118159431
0,103576183263233
0,105446742257492
0,10141143955986
0,101154324269334
0,101921548619098
0,105594007962222
0,096671681617352
0,103557632223177
0,0991340747969702
0,102195963530158
0,0959268938788519
0,0997280816387457
0,0981544845568227
0,100761962763557
0,100020168673862
0,104469707568197
0,0976508672993345
0,0976491886537053
0,0915218295480333
0,0981883684885524
0,0954209606232594
0,0979159792506054
0,0890833036436347
0,0955056636826699
0,0924486507126641
0,0964086397039111
0,092380323355489
0,0983152107030683
0,0935570782672316
0,0932911438352205
0,091638400924247
0,0960626787757291
0,0901441426205945
0,090449760623112
0,0906968892989335
0,0929662947455113
0,0859918018172191
0,0911957990683139
0,088638348017158
0,0947154370433722
0,0891758949270147
0,0908198687020331
0,0862536495197486
0,0911129197739697
0,0870896401411213
0,0909226108380103
0,0865254828036143
0,0887297873724116
0,084913114151347
0,0887828360796621
0,0886633457026689
0,0900515835953743
0,0811633085358755
0,0860800046579518
0,0862092841024482
0,0890704830751044
0,0823311689677055
0,087427464804293
0,0833004895787485
0,0867030696804749
0,0798568590806537
0,0883291331085517
0,0840280799274415
0,0831865750641666
0,0837058120508886
0,0837143044810215
0,0810881632797224
0,0845105589351259
0,0800626676125031
0,0850393536477273
0,0800484924076724
0,0830959787507571
0,0799237709503655
0,0821291867904889
0,0828246376431593
0,0847156784470577
0,0793570655269902
0,0844381111531119
0,0796373111783618
0,0858073283168102
0,0792786216533004
0,0836211106035962
0,083316343331846
0,0806761349329156
0,0794268432835253
0,0835085527528
0,0793722982042978
0,0809052945542101
0,0776959879011716
0,0812865591209563
0,076496829713618
0,0828106929703357
0,0776824835906059
0,0795398659635842
0,0756125553562115
0,0813862571872221
0,0765680920907396
0,0787273990897969
0,0750141656515228
0,0799530855401819
0,0750608709429448
0,0791243447824391
0,0773341070568878
0,0809802198087081
0,0771703216032383
0,0807803822316646
0,0782342438004868
0,0785629056790798
0,0751564114143929
0,0776194147741575
0,0750351314056935
0,0796043057223984
0,0750820627580909
0,0790249287251013
0,075625743499435
0,0776988776671073
0,071085727768465
0,0783213920913598
0,0768181314942571
0,077550748529391
0,070807722103289
0,0802977829827179
0,0718128151115426
0,0736807028998872
0,0708150619796742
0,0761666956465537
0,0694999524207597
0,0745337463153233
0,070177136103004
0,074389790924693
0,0683167477392377
0,0716442871890391
0,0704503367759646
0,0727165065335097
0,0720944362576277
0,0741299327087764
0,0683719402700313
0,0709293504520258
0,0688457041318559
0,0714539839671989
0,0700044599362239
0,0734870560663899
0,0701295761114374
0,0754655744639388
0,0675516316399946
0,0727722102680775
0,0697095036602265
0,0735535263471825
0,0686797944338706
0,0752476119726588
0,0699943003445476
0,0712011306070214
0,0690516739155878
0,0716897502825183
0,0676834926650217
0,0709705582557266
0,07098238315101
0,0726349402725674
0,0669002361594303
0,066662360874299
0,0677012161036993
0,0704801569580181
0,0664614087911227
0,068331750747175
0,0668597141118234
0,0716346594365899
0,0628208178561635
0,0663572867411861
0,064980860054651
0,0720939053494145
0,0649555652030111
0,0681447041411378
0,0643627650207232
0,0683772769238055
0,0637639473561041
0,0653612843149753
0,0639022286485596
0,0701141626725713
0,0647607925025849
0,0663071848895329
0,0639322929787822
0,0663496732234222
0,0589020134504803
0,0650149728819382
0,0603455291247351
0,0651657324991746
0,0633005402311282
0,0630743542192155
0,059474792860182
0,0613804626873022
0,0588113934103957
0,062986438955378
0,058905641720899
0,0628711296920358
0,0585797574178458
0,0603451728963186
0,0601430017924291
0,0642909868763349
0,0585177292716586
0,062243158136747
0,0587071298662623
0,0600865043187758
0,0589331059827668
0,0611854440763477
0,0572760092241907
0,0596998602269569
0,0568211511120416
0,061834285699088
0,0557078370122136
0,0618154129717435
0,0557829044858746
0,0611731824085738
0,0544606630118438
0,0598913303579889
0,0615245703128833
0,0608737015171421
0,0553525209800729
0,05880492912683
0,0535855082801953
0,0592335615790738
0,0535786909279377
0,0566534816147596
0,0550254615805298
0,058560148213721
0,0535940038407201
0,0568148035742063
0,0503877411921699
0,0572271889516226
0,053552614529225
0,0575413979498074
0,0501337098534572
0,0524413412474857
0,0531819765617743
0,05724034739344
0,0522934088552561
0,057138941886529
0,0531732111421982
0,0553604963384878
0,0503792402867233
0,0548302449286384
0,0499332340432489
0,0562270648469961
0,0457991827959078
0,0528291600056404
0,0496967136496026
0,0523673922428473
0,0509177675181833
0,0536167722100939
0,047994024759377
0,0510169553589126
0,0491722930135634
0,0524711241675163
0,0476029908739291
0,0535980354240158
0,0477515618309729
0,0521588492129893
0,0497955154577888
0,0506758479957522
0,0475425408146437
0,0509884630529061
0,0460844886395848
0,0520182752201114
0,0461729118292978
0,0512859823960931
0,0470216525729548
0,0515357663267264
0,0478260642482841
0,0536996403891035
0,0456411700402137
0,050976679779557
0,0481088459102803
0,0511030396497776
0,0499825864440631
0,0523410384416094
0,0494229961517896
0,0554539234536329
0,0480549325555016
0,0555284773778204
0,0523908906817885
0,0559406408269202
0,0457007204241691
0,054608802267815
0,0515877346629526
0,0571244060720104
0,0496556409664635
0,060428261785141
0,0511234351649691
0,0546325077350924
0,0471345740942986
0,058090137996464
0,0510563150129251
0,0577266311488047
0,039358801801598
0,0519117244240132
0,0487004166074197
0,0587018901359146
0,0439873822577149
0,0570902072319005
0,0441410922834292
0,0493674530862653
0,0389059528536955
0,0534418257635157
0,0427563692277166
0,0581207747139545
0,0469740695180257
0,0597832020920253
0,0451134457890297
0,059064237830229
0,0485939507153928
0,0556581725009581
0,0399954997973981
0,0527913342875171
0,0402501386509617
0,0552037629535004
0,0360742319886559
0,0585862766193517
0,0354821300095288
0,0581247510372393
0,0349054386012844
0,0616468732674759
0,0291649071628909
0,0617394540103396
0,0315015279504571
0,0653460755737329
0,0289462920976187
0,0687576871469951
0,0243767697815952
0,065352306722381
0,0244285505556119
0,0715037775959143
0,0227658023096271
0,073489002974645
0,0235375420919447
0,0780065064144177
0,0280940240865836
0,077454172614652
0,022017388001501
0,0775601552009438
0,0257787967830291
0,0739262438459881
0,0304822189713962
0,0632672256170967
0,0428861090237202
0,0533673085120109
0,0489141790657783
0,0475830596771143
0,0599188503068448
0,0381680201727653
0,0657099800381645
0,0350505121731073
0,0633389793487351
0,0364090743265784
0,0580768583762773
0,0390839222718373
0,0508473030150642
0,045081113963283
0,0458636322197894
0,0489821191698709
0,0423726745422506
0,0485929422271436
0,0427313480423424
0,0472045165034623
0,0463384781364702
0,0416258108423183
0,0459909939516864
0,041074575709009
0,0478509548300255
0,0450519610383408
0,0460527354698264
0,044290525943347
0,0412926029636521
0,0426227271479952
0,0436436264352771
0,0451788991491272
0,0418499536320983
0,043816252126621
0,0423333530207116
0,0454900116367868
0,0425425163240534
0,0449040777878193
0,0423883056075904
0,0425112096723322
0,0452504958203894
0,0430939860624187
0,0433774662613651
0,0408445286580833
0,0434099577136429
0,0430306588027126
0,0432232244544242
0,042988566580737
0,0453155539894562
0,0435463042890226
0,0426646852055544
0,0442593623957591
0,042093274383432
0,0444140650895859
0,0431685192450444
0,0441718129635777
0,0424832645367526
0,0457044868773108
0,041830217976225
0,0440641072106249
0,0439281874033845
0,0448522762046797
0,0437145046472094
0,0440792637154395
0,0431532917730409
0,0442338634230498
0,048223608393109
0,0439494448930318
0,0435114338474671
0,043470619606078
0,0437639903201842
0,044682927723489
0,0441028929589572
0,0459162353199147
0,0436724391976753
0,0430462242217105
0,0441379615040517
0,0446482308915944
0,0432185940239668
0,0437577191947666
0,0422048772656256
0,042984854290695
0,0437492276043113
0,0438566459831713
0,0443042811388095
0,0453167976951673
0,0431444387495476
0,043984820475864
0,0435957445198339
0,0453199472968392
0,0412582455468779
0,046488544856729
0,0427285516633699
0,0442251396831049
0,0444471685356281
0,0443714376636455
0,045346754693075
0,0434975676686685
0,0429052511730222
0,0444081641724134
0,0433107497203872
0,0456900813198775
0,0445291974351732
0,0460225700039881
0,0449204501187557
0,0461783911654058
0,0440107213449662
0,0469963279797946
0,0443294321785086
0,0446151202223362
0,0445524508017844
0,0462048290228089
0,0455530344052157
0,0458419403403031
0,0446028076380881
0,04541052957412
0,0456584455748371
0,0457575125311997
0,0433058410609119
0,0469009517841731
0,0462101901582097
0,0480172038163715
0,0460206688388668
0,0486299187879909
0,045726143400926
0,0484722681464697
0,0496485607781369
0,047305786540531
0,0463473552099936
0,0506205941498853
0,0468972474117714
0,0472558088699493
0,0458810483572726
0,0482036727563763
0,0452306416602942
0,0484242315413392
0,0478357401672164
0,0479239723198601
0,046687177802267
0,0480587373612162
0,0466913820068227
0,0511478291399256
0,0455682638565299
0,0479568828935004
0,0473777188903846
0,0483825362674824
0,0480844035369793
0,0484434108877424
0,0474916803623637
0,0477064943465752
0,0464792237005365
0,049448874343656
0,048038657970673
0,0488590900334296
0,0474285534091317
0,0506906210767187
0,0482833494328748
0,0483156765483748
0,045192553598861
0,0471215124176019
0,047579124262277
0,0500249221355802
0,0473182156660858
0,0497780231118688
0,0493990339926651
0,0516430798026564
0,0472185430068662
0,0501632980034464
0,0508647971148174
0,0512123263713024
0,0482329663471553
0,0519552921665306
0,0491982637829716
0,0507079480816134
0,0516928464528409
0,0515438944153398
0,0493492540237787
0,0509393506173457
0,0486386217004646
0,0521174559828576
0,0496673676571942
0,0531542469639958
0,0495978706760003
0,0522133419175887
0,0498766922378791
0,0532125965234931
0,0512314043069433
0,0514160498595057
0,0506257124188828
0,0509197209483353
0,050419679881301
0,0506645291635549
0,0492043783734317
0,0504018625810709
0,0488860242643944
0,0510232593612402
0,0477646975692776
0,0484772890170962
0,0486688762486452
0,0496643394347749
0,0492520934921081
0,0501005416316497
0,0484484365143703
0,0491784497275266
0,0483021719464757
0,0528631694625444
0,046240994637501
0,0502470378517592
0,0480561557079679
0,0504277543795038
0,0464739194208677
0,0468476303915099
0,0454253879929804
0,0505915669177874
0,0464201948345033
0,0482360427387216
0,0494061084572829
0,0488050959404733
0,0485639146087261
0,0478980594495043
0,0456375297261893
0,0483760324295908
0,0478267976994519
0,0486366313658968
0,0487734510399747
0,0495373843298703
0,0479579488841702
0,048804114416765
0,045783759225543
0,0484243538404598
0,0482070192128595
0,0500031980012481
0,047855760280521
0,0483287865877497
0,0465535570477633
0,0475729174953246
0,0455163054283107
0,0487648281488472
0,0458950023954999
0,0479614948772982
0,0457843099934902
0,0473462176966202
0,045956924798139
0,0477940243623163
0,0454759546874617
0,0486109404849568
0,0483622080182283
0,0483842572830914
0,0467390525365744
0,0489330265131099
0,0453118808768185
0,0482828473548531
0,0461501591135069
0,047910714017886
0,0471615634379311
0,0494386680058463
0,0474630857866182
0,0471633489521543
0,0473148771417889
0,0470936821670397
0,0467028777464853
0,0485327996202036
0,0468358433805732
0,0474255251313227
0,0447493601706403
0,0464346101802216
0,0447253182236214
0,0451760242167476
0,0449596708809471
0,0501029118808286
0,0455638864634283
0,046332350476152
0,0488417877285251
0,0499524728372414
0,0457050409792537
0,0480008932174672
0,0451345292291957
0,0478529801445107
0,0445063243840597
0,0456313713933426
0,0432264296041217
0,0464119726673794
0,0454472651343355
0,0460436700549522
0,043385334341297
0,046213392578598
0,0447003453145913
0,0474257880685785
0,0441377373937942
0,046572766508257
0,0442101560856441
0,0487487555320742
0,0456792546723441
0,0468380587645428
0,0449950937983951
0,0475744705628048
0,0424993912473191
0,0457822957455493
0,0465188124774159
0,0453084138495178
0,0457682174857257
0,0458084467214125
0,0449678609281493
0,0463950379547171
0,043646986927109
0,0460302008166657
0,0454127147266361
0,0449109539870327
0,0429290254404532
0,043919182798442
0,0432303398377193
0,0472838077224741
0,0411516340051373
0,0438570544332336
0,0418750414719836
0,0434035456530425
0,0408813227489766
0,0409164563836414
0,0425612052516069
0,0411594505033267
0,0407972429957371
0,0428162765558781
0,0442994375994054
0,0432687964094179
0,0469061864886837
0,0437245744967989
0,0398466141148748
0,0425782127589588
0,0385998678065478
0,0427384425902221
0,0392353583785499
0,0421061837424936
0,0397865947224903
0,0418284590096634
0,0381308977563373
0,0390443942239494
0,0380302498576197
0,0404240926162002
0,0383501681629812
0,0385144153971328
0,0363123277409901
0,0405093296222926
0,0405055128814392
0,0372018742093757
0,0382293459919676
0,0387730566159767
0,0376778113612969
0,037436781600511
0,0391364870381412
0,0392269560980937
0,0419702599393254
0,0505858412207073
0,0400095896501187
0,0381713185449872
0,0394891157613741
0,0435942566911342
0,0357447840889059
0,0403941036533264
0,0376178718346936
0,0395098765435133
0,0372706309731028
0,0413182510754948
0,0364779104133845
0,0394552965225729
0,0357240331352089
0,0387678865171133
0,0370655387376432
0,0374694095434935
0,0369142724114782
0,0377948372668717
0,0352532359687177
0,0370269403608538
0,0346565099773249
0,039340389463352
0,0359003171342658
0,0393816799010432
0,0357368814074259
0,0463086600162278
0,0408098079804942
0,0413970656247349
0,0370182305385602
0,0393455891983311
0,0357777897466202
0,0395804416778341
0,0365859773252874
0,0400343476130052
0,036662355633157
0,0380615648613354
0,0341227464345351
0,0359465784982684
0,0361198913649366
0,0394932447467118
0,0357382240366717
0,0388319403841552
0,0351952331543898
0,0397466902161634
0,0338482302878349
0,0377790833635912
0,0350001036449709
0,0396406167279272
0,0357358711154232
0,0414284434601713
0,0343066530899622
0,0401753434122435
0,056785841924583
0,0379399568986309
0,0375905037923678
0,0367860633679895
0,0387674655505121
0,0362879843078994
0,0361786139195916
0,0354310583370341
0,0346006067195651
0,0363012746907186
0,035414551461471
0,0355835159232213
0,0353963581854909
0,0366218540835856
0,0352227756381834
0,0363321100685684
0,0368075767165884
0,034936630552925
0,0339006402245968
0,0346557654574871
0,039252147962641
0,050888372648708
0,0434201743009455
0,0370044510753015
0,0389453731174787
0,0316225134705633
0,055063497860755
0,0436541637540957
0,0343799140673146
0,036572273581846
0,0335126158754679
0,0367248033105675
0,0345399509762142
0,0362854201896056
0,0350167740335385
0,0438283019665875
0,034869769148359
0,0410366119280617
0,0348097900660904
0,0379797398807945
0,0342598220603394
0,0381873635804239
0,0333665661939987
0,033878544413496
0,0328354645825053
0,0358843616395817
0,0329789382687829
0,0352220257605267
0,0364238522799113
0,0320890159298886
0,0351985356219815
0,0445578386299698
0,0348108913950353
0,0365510799164907
0,0353743080541628
0,0341433252758879
0,0368573356456813
0,0554365461307983
0,0320090655500958
0,0394719097982962
0,0318591632864994
0,0380438701131893
0,036526369033794
0,0348631223541701
0,0320034186803979
0,0357848656935547
0,0306499816071391
0,0362191747349613
0,0333506778233091
0,036338023302096
0,0321233690482525
0,0370203851024382
0,0344935053916104
0,0337677507714258
0,033043125911531
0,0352121874277745
0,0377255855155502
0,0319470143349549
0,0468222059678108
0,0596556534839942
0,0448406262775942
0,049556079640365
0,0379837963559421
0,0369066512108549
0,034006149099346
0,0356031523043567
0,0323603731328838
0,0401111059579258
0,0336538067322394
0,0381571944903395
0,0356667660893235
0,0365918028829884
0,0292453321635453
0,0377465498609715
0,0309343163930967
0,038026071320511
0,0321094722333865
0,0363587052361136
0,0295251071535836
0,03779147198999
0,0299659406090623
0,0438023784712902
0,0388454565382873
0,0428778110825553
0,0272722749847196
0,0584638947937577
0,0605316038515739
0,0395871082169762
0,0420633240306849
0,0343221699610107
0,033445121938358
0,0333464201114362
0,0342415095658051
0,0443205585388046
0,0346867989163359
0,0347571904338427
0,0346060851119204
0,0377360934458297
0,0355094309746
0,0288587721175232
0,0386927691559272
0,0679219991281164
0,0436230862120929
0,0411333143064824
0,0331127553236278
0,0383417343108974
0,0631582590479035
0,0397315219783989
0,0375636057228013
0,0379527571778941
0,0348931411930739
0,0363169399983654
0,0325635778990627
0,038235016047268
0,0420971541970791
0,0379648511165728
0,0326130081691103
0,0386624968037877
0,0341895739455139
0,040584577613561
0,0359159112380231
0,0439866629606265
0,0475584801856989
0,0382702081569857
0,0395416798984984
0,0440215039611415
0,0345085420733461
0,039048334160263
0,0349843662564025
0,0339503844588079
0,0444290579440839
0,0526923455526304
0,036765390571747
0,0529897740134276
0,0486790488023065
0,0384884527278934
0,0402712205408
0,0463183920760354
0,0484958094825869
0,0341052598073106
0,038719559801628
0,0709916011155165
0,0496125963756545
0,0632602226311125
0,0386452324363942
0,04229184626603
0,036032616443758
0,0416563956827617
0,0292048139862066
0,0520672385698889
0,0411118407945808
0,039958390622954
0,0363076207773234
0,0453623549513837
0,0504358255711052
0,0421067999226991
0,0413955942752533
0,0391424004534287
0,0346670532562126
0,0523524876011611
0,0462176572411798
0,0340602633939289
0,067407124418729
0,0678549361661454
0,0641589241223193
0,0497858647972639
0,0358404233590622
0,0770905300070594
0,0476160017816081
0,0448534511571973
0,0415380049660127
0,0427579915572715
0,0386605027982398
0,039595273905851
0,0724228038608218
0,0542237554412513
0,0426835819870092
0,0484187997220824
0,0378715540910014
0,0690159793632772
0,0576746900391243
0,0446951938753127
0,0416933111588582
0,0474120608476571
0,039845284498326
0,0787619682995476
0,0680760160766588
0,0554965640126604
0,0807513953620327
0,0620157301740729
0,0635422766149192
0,0567328545982548
0,0514732514957426
0,0594621171834025
0,0718330834886465
0,0517004474448354
0,0407339985801026
0,056449063176229
0,0751888512556591
0,0523994552834485
0,0568797070501798
0,0527035858779324
0,0440303779401095
0,0789727135417911
0,120019601897252
0,0878001224251731
0,059750958904197
0,0556858939271722
0,0800601601971621
0,0638567554980413
0,0515535329332362
0,0567624108607941
0,0518457233846627
0,0525408666622856
0,0541440320645289
0,0681269398014169
0,0553799640530984
0,0593508948734999
0,0599798991641482
0,0573196365952634
0,0821635302472523
0,118326336653601
0,0990588299685055
0,0781637304931196
0,0933991659923224
0,0872126724045042
0,0724508921486516
0,0686877676522553
0,0638781121707104
0,0745564027767953
0,0684942318685925
0,0668131527986355
0,0625948046574405
0,0897346427104709
0,0863704998041432
0,0887226283680344
0,102060509938043
0,0810335127380266
0,0767195780509432
0,0803294350414429
0,201055733312093
0,126277576038822
0,093309922550657
0,0957306209830062
0,094935409618223
0,165483878031533
0,107236116023168
0,0957594087284236
0,0967949007502274
0,0933340510434175
0,101587092309335
0,114061193181507
0,10814161278302
0,124669441809318
0,110538651577977
0,107406544613321
0,120483531631706
0,203754555048228
0,180689585375734
0,148544282048499
0,12423980568005
0,148798606713734
0,149706067425322
0,134677324115124
0,131720313570393
0,131258672453855
0,141724216389886
0,197979719296399
0,16008233792009
0,147689716259467
0,15861283354905
0,181791762055556
0,158564780800998
0,189168595374674
0,207077970676527
0,173963548500717
0,173183540406818
0,171436682727771
0,171158744699144
0,17240573871719
0,206884926910416
0,200657115360761
0,187796880672714
0,186765910361489
0,18609338479828
0,193875127510521
0,196141841355907
0,20067093643466
0,199072014176409
0,232709953075276
0,243065864229044
0,347665427268557
0,258231832960587
0,210460644492181
0,203872739852603
0,206229530896918
0,242971865534457
0,240985592680723
0,252741407219347
0,250672003698572
0,205384591878381
0,210954890291819
0,21150994651076
0,210045549871631
0,211916976771249
0,214194923475452
0,206267036261635
0,228033335033037
0,217625204548677
0,221722554805916
0,289169474096198
0,218667479727397
0,206902680446394
0,206082663867484
0,200452469266907
0,200350267464882
0,192643208041848
0,203122609160611
0,21658023063417
0,195627243460511
0,189208960269168
0,191001034126572
0,204857591928295
0,225542778813393
0,187836091252776
0,184850555947276
0,181105384539858
0,180167535133799
0,171464716353537
0,186566750403436
0,235740029686704
0,185102130373286
0,161624542162739
0,171430575965853
0,165903392666372
0,16246192335909
0,155793760032961
0,169867108058911
0,16530778350283
0,163902362624322
0,162060045205317
0,160664589141616
0,153308082531634
0,156765966614738
0,160814468166339
0,154884084889074
0,151416622430504
0,157429966159963
0,147510264540987
0,152054601112578
0,147084014463267
0,150135411593019
0,150488639840132
0,154194376047785
0,149442369594413
0,144395691845858
0,14375878423184
0,147836010529555
0,14713074015383
0,149131028946925
0,14141591531492
0,147075156916719
0,142548982218732
0,146187968791796
0,141046806325824
0,141451719786198
0,143371303465515
0,145430206544665
0,138990612552092
0,139995713900546
0,139705918885731
0,142406511099637
0,143449345168766
0,178543758033098
0,174300411221953
0,143112718301135
0,139383638717459
0,137635355402857
0,133471169250939
0,137420377936412
0,157697261730346
0,166193032383606
0,133897711065954
0,131104845336358
0,124778567454665
0,138033373990346
0,139595388235782
0,131935226271958
0,125433435162595
0,131991121274415
0,151687777664554
0,237983416747264
0,186541298810311
0,228958592883362
0,151629701062647
0,124922804519975
0,137684311323852
0,168838989276315
0,132099284350438
0,118062876446891
0,127004836269323
0,140436011967973
0,139090293919856
0,122144040542667
0,116328226199697
0,115619915916599
0,13534977080749
0,153584102569439
0,131862452820399
0,139029061754953
0,162669668587313
0,150560561938334
0,165088305358342
0,2142363885427
0,149052185801659
0,118718365937594
0,114172405434812
0,118676330578624
0,127221875105272
0,156766525413571
0,135596006460146
0,128305142421948
0,11462790446918
0,107427348479814
0,11763848130012
0,135212312868297
0,126716169701262
0,126762465871491
0,13948714067853
0,125070519292905
0,108103111496788
0,150681705471818
0,15174681385743
0,173757453353865
0,120328040758175
0,114285340590326
0,136465543962692
0,161011820879454
0,130448026125333
0,124884231773476
0,106298620077942
0,112995534824405
0,130589671143347
0,113352180598461
0,11931811979917
0,137477249108028
0,140745723078139
0,167327205242611
0,191978587105083
0,169127815872199
0,12334874906679
0,110615224482304
0,103501400752106
0,121184929814004
0,104338770053521
0,113373777797872
0,11522340055653
0,125284973836692
0,112628578910903
0,150695912846168
0,130454289231164
0,114874507225391
0,112030455494588
0,11243125508194
0,125728531087355
0,163413968211038
0,165899287357913
0,146541622879076
0,130502173188397
0,144188879663393
0,136288267417106
0,131453236684224
0,131203457453177
0,132335621431064
0,136576549147232
0,148055099242487
0,149967096904036
0,14644622899562
0,150466584978556
0,151169802555331
0,176282862601062
0,190529759331019
0,174252855752758
0,176386985619954
0,219432281306457
0,213776540303139
0,209959605431115
0,185684268455799
0,186640232827421
0,191561965081659
0,196466735661311
0,198477863681311
0,212668457746304
0,238436501123512
0,224034937066831
0,209477908970961
0,222871321017098
0,216008957928838
0,234608626933855
0,241776417613073
0,266697714940091
0,265534826728061
0,293877557638537
0,260182979864732
0,24500210620284
0,241687931022617
0,241325975813249
0,247520778944645
0,238336981207043
0,239496285535893
0,248442168412391
0,266484240432539
0,252362468595923
0,240006388519237
0,246194969985281
0,241019834346493
0,246738590093828
0,248477571789053
0,247738820507837
0,254208804406937
0,252788115719903
0,250909509556092
0,257597542663333
0,304929606736493
0,298885349908991
0,255494423704373
0,268418365478091
0,269383898199675
0,268958109219979
0,264686451487123
0,27752483907569
0,288552910998983
0,274789245402921
0,273526715775754
0,277203141288812
0,274767604175063
0,295753523631777
0,299388936289226
0,291941052716186
0,275971008813738
0,291683672869038
0,291403769813919
0,342459891717379
0,313446245595282
0,306668727837553
0,30656235879459
0,295507714311761
0,295333259634894
0,289101637416962
0,296899185856495
0,29653646397301
0,30074156756665
0,294891490170844
0,29335220474194
0,288841503479327
0,290517999082173
0,293308605142021
0,305512927786768
0,300073233609225
0,284509093988938
0,289843683479557
0,282177554438502
0,286926301744897
0,298215081197369
0,304569655196792
0,292057933136295
0,286975280972839
0,290058555661681
0,303502858290065
0,298568240056947
0,280740023865561
0,276261645054999
0,286306972763945
0,282957048193607
0,281870457548191
0,285623205564245
0,30397386990006
0,299389964279398
0,285981173967254
0,292497222891867
0,289718297392293
0,295103637145468
0,291761989642792
0,296757667292125
0,299734616827578
0,307225329724439
0,305962463732897
0,306543848244367
0,306748669716285
0,320015160136166
0,321140386656262
0,323639843779043
0,315497469438331
0,313592481341255
0,313331259380273
0,315881580330963
0,322399031605581
0,315579916321501
0,313151692760351
0,312869360428177
0,304954079043526
0,322348667148919
0,336872613933465
0,325897223139739
0,31230070765146
0,318572044039043
0,300016417824308
0,308179942630415
0,299837305052727
0,297957919406743
0,300841755241163
0,306454428299409
0,295005382505849
0,295896294046274
0,293794506952722
0,294383626279158
0,290058901546709
0,292089728118766
0,291588001248811
0,291282100124086
0,285073824706647
0,286183392999581
0,285429088056027
0,289718044470354
0,280706482640141
0,289866552722235
0,296754778752044
0,306850631358783
0,299055573563568
0,29602623947501
0,290171991897211
0,291344628173818
0,284711921491615
0,284283005656133
0,28058699524781
0,281512592508795
0,27638336117063
0,276362670640148
0,280741634685862
0,273813004398787
0,272587806888825
0,27316734410186
0,273217850460034
0,268418296552348
0,267712225893089
0,267280875469309
0,265856251658063
0,263264089638567
0,267671186358707
0,267836511077621
0,263353739020534
0,26071735568607
0,258563570102411
0,257966602309457
0,25694954132685
0,261139596467463
0,258366107420336
0,254140727767142
0,250255601547645
0,251089972198355
0,249688406337229
0,251316092274435
0,249197531823762
0,25110323064636
0,249886498583528
0,246450385978862
0,245087662071108
0,245765772363754
0,243074095222039
0,241436846380313
0,240370767892965
0,237782453665784
0,237931294445883
0,235812048904046
0,232277883311205
0,230015183566457
0,22825010359263
0,227719520171433
0,22350797309879
0,223348167847136
0,221952924483655
0,2197007912533
0,219424773001679
0,220644104850396
0,214944777979537
0,214132737009754
0,212762255623431
0,212313253981837
0,211265245467225
0,212353524412883
0,211441750924752
0,2113978028715
0,212657451671194
0,213071072488234
0,212379878719655
0,211310011950485
0,212376218482882
0,213158152257241
0,210447848340572
0,213912925093582
0,215075471149149
0,217830166052779
0,217589808880756
0,218605483790506
0,215237326784436
0,21925015028104
0,216316015545505
0,220376257778167
0,218532382314992
0,219780643978776
0,21763035060043
0,220097328863003
0,221097199540342
0,221368189592518
0,221243038420731
0,221797637835644
0,219933906944715
0,220176749398887
0,220302194884919
0,222068330549017
0,219005655509841
0,219368323964301
0,219122503032758
0,221395896067702
0,222165100394712
0,21637417781395
0,218657994287158
0,218170163466684
0,216713433521229
0,218459985571194
0,217333387954343
0,218095630162391
0,216421232144697
0,214041191523547
0,211842538253711
0,215095336308206
0,21453639928107
0,213511521646977
0,210953057320076
0,211490090262653
0,210218936847501
0,209868892722096
0,207156903301635
0,204501964892373
0,207053541402134
0,20548203050626
0,20239741951359
0,200221590147944
0,198890915293377
0,198341765969684
0,19618611391829
0,194686125129661
0,191890672722034
0,190141393868106
0,189421953437102
0,188897683552083
0,186367304159972
0,184471135034459
0,184627692880979
0,182133946629314
0,178691211322663
0,178454708476193
0,178239740640211
0,180532768060085
0,180398681525179
0,179093035860697
0,178577363209098
0,178440744727133
0,179209709696133
0,179259148019695
0,180953513965606
0,181440642430862
0,179335925280692
0,180032582981402
0,178748152583122
0,178354099090003
0,176999639504465
0,175496865385844
0,175002259466704
0,172748197027091
0,171463254466634
0,170119307796409
0,168725712730221
0,165195290618789
0,16162933988035
0,16026044468552
0,156531757276445
0,156471544898182
0,153418570436152
0,149207668500668
0,149004202631241
0,147997386276792
0,145500538029254
0,146745879347637
0,146702350563591
0,147869497059591
0,149573871230616
0,151927023106408
0,1533913574917
0,157511884928918
0,161966023266575
0,168292103219622
0,173279136776748
0,179130553802888
0,186329745403046
0,19302988017543
0,201539731003428
0,212264170510887
0,220428226939511
0,231218103551105
0,242941415418454
0,258320579240812
0,270696169689769
0,282358345242124
0,298151443311792
0,317243407186658
0,332445248110453
0,349240435418522
0,368794227212218
0,384863065038666
0,398386521723728
0,417661415518682
0,436251305314631
0,449392710769513
0,463337352941934
0,479280029184083
0,490933305963418
0,50115165557361
0,510056091024399
0,518286083279666
0,520437629852618
0,524853646735842
0,524818004359656
0,524119004792473
0,522823343444862
0,522006674293869
0,515236462443519
0,508638851226036
0,503777260815843
0,497197012097713
0,489536122651214
0,485314367607797
0,477200958976256
0,469522605437403
0,464360849380999
0,459230775166247
0,455751700671516
0,453184248418383
0,452678353974395
0,450244356623637
0,448543230122492
0,451965814980549
0,452177774251498
0,451850404306783
0,458577393587358
0,464307715053847
0,46813021813068
0,472046338605068
0,476696145997941
0,483715853095126
0,486063118752998
0,492050316788345
0,498325661650019
0,50094118352135
0,505490542999639
0,509869296998169
0,512078041736177
0,517179837662667
0,517322670939778
0,521652975417077
0,528536609668652
0,531282809179651
0,529808108658027
0,533683130010304
0,536453951796586
0,540153465419569
0,544110487807892
0,546008330887136
0,54833826185224
0,551747672743574
0,552935780800829
0,553474425514272
0,558858300094757
0,562039270697184
0,563907616789967
0,566156715716887
0,568295220199762
0,56883207683908
0,570551673589279
0,574322380297127
0,579579342037169
0,585607310806541
0,585283274838154
0,591450208120365
0,59973798510291
0,608532578432815
0,620178432790325
0,631680173099987
0,648459095500497
0,669233289288767
0,679523356755099
0,702046145319318
0,727644012465302
0,745060982894183
0,766528124811013
0,782404818044708
0,798201719386691
0,812955950002772
0,823897468284173
0,836914398806861
0,841528310079168
0,850544578032671
0,847769151142163
0,843389797862778
0,83725321554273
0,833840715209892
0,816036601124702
0,815652475730284
0,801315492668802
0,786619218374067
0,794897326176582
0,782806853377383
0,779162471712771
0,782802827523183
0,787601489374491
0,79692752563961
0,793916660984032
0,799819220705736
0,810243642739947
0,819527725719575
0,832679905655833
0,842442263588003
0,84330941530283
0,864597695313637
0,876320436692915
0,887931793559666
0,89909274176474
0,919792048146371
0,922923946990298
0,934192087062054
0,953636458057106
0,956525540916617
0,968811605992349
0,978731887804026
0,975594934216243
1,00955988246416
1,0304968300443
1,04138849564024
1,05514883824758
1,05580824895171
1,08695404865009
1,1093265742887
1,09762928226236
1,12112527504869
1,11089619731038
1,14616928787913
1,18015876864805
1,16587218608897
1,16790715923688
1,22058479927409
1,21936531806111
1,22384553627488
1,22822304859214
1,25328676256664
1,27843422122006
1,29312727457179
1,29284724419313
1,31914141091785
1,31772282792033
1,32987697717351
1,34049164099869
1,35981774471933
1,32982736141148
1,34529967299058
1,32412907364306
1,31646995262165
1,31409842587295
1,30484642804394
1,29120196832688
1,28608563511033
1,27121259391058
1,26943119128472
1,22853027169742
1,218719288308
1,18662582450513
1,17773746101725
1,15106606145882
1,12395093617229
1,09712058500978
1,09559703812589
1,07737473061593
1,07243608712792
1,05683526844958
1,05265409171801
1,0328484153422
1,01499687453206
1,0078417241918
0,984398071707434
0,980840164065577
0,963140123010941
0,933735880940197
0,91003414138248
0,873291737924962
0,852372260006608
0,807097765818589
0,770687950071428
0,72990638251031
0,696777704653908
0,658965605741443
0,613393184759765
0,575775833744368
0,539673152202654
0,502303608589975
0,472494054703482
0,436922853002843
0,410485285525547
0,38775957881741
0,365296192874811
0,341717622413108
0,321142285788845
0,304520414758776
0,28618315128608
0,274569692011402
0,261278437974243
0,246171427957709
0,241081722376196
0,230016290747773
0,219244230973287
0,21445169717186
0,209036407269019
0,202097033563104
0,195366955495841
0,192881014025015
0,186314988987772
0,181861337768892
0,1840249324254
0,181692908620616
0,180644783480876
0,180186249783381
0,176945527272005
0,176300489062762
0,174839856697801
0,175875009118923
0,175531737605233
0,180031723386844
0,180416151401392
0,183508126660483
0,187183877023965
0,186400252398735
0,194475390621329
0,195041304818934
0,201065739905547
0,206152333361442
0,211372022377493
0,214381137958642
0,218771693274858
0,220016438240231
0,224972934467356
0,230181974225038
0,233060332286385
0,233745070954721
0,234935899606723
0,236544827141078
0,238057234034797
0,237787946974675
0,241208901188879
0,236588195231201
0,238920044573434
0,239971125078434
0,237941256720839
0,239296682195201
0,243784827822065
0,239862323656277
0,238643008224273
0,233009486066597
0,233569662509592
0,237180693438379
0,236308478250473
0,231098215828167
0,235420640877441
0,225206235099828
0,226837490855053
0,224348611947737
0,221197411190005
0,218405532458812
0,214909617138218
0,215492773522315
0,213673427300439
0,212412743037985
0,214070062364027
0,208823038489892
0,214262518144027
0,211202099643427
0,211862982950219
0,212164050603484
0,213270185250991
0,213772866332567
0,215518464149735
0,218146790163156
0,22402790895194
0,224760697361443
0,224683725618744
0,227986439267694
0,236249977080394
0,232093702771105
0,233470523907371
0,23253593893077
0,228210500506663
0,226399259798415
0,224770780288484
0,218968699497143
0,220547010386874
0,214259704842204
0,211056200070427
0,20648559344636
0,203409479677216
0,199620628860382
0,198626206638004
0,199326526885668
0,201250519869202
0,197221680849031
0,19426701154258
0,200940411669592
0,20855338668372
0,211332357403927
0,208347768461206
0,204591138368203
0,210115164496321
0,212086488695225
0,21277148726898
0,216847093064232
0,214827635092986
0,215935305285942
0,213868104371598
0,221014278577002
0,22823137918533
0,219818392012303
0,225462539301774
0,229429072570651
0,226874697784572
0,225739488498421
0,229012536393973
0,235714319596133
0,22866931669949
0,231525956691112
0,240548953084423
0,233240970713142
0,240607216874897
0,237484562481301
0,234726840052012
0,231456479396533
0,230777176441897
0,230917838035286
0,235391480882784
0,230684675651709
0,229291837444001
0,230676518884167
0,228149559624074
0,223564609429618
0,218555849670902
0,236213111399699
0,227794783730799
0,22280143653374
0,225486653733825
0,218009930131684
0,221630342014566
0,213442911677885
0,216389247852394
0,210445389547476
0,210081093428216
0,202967660648744
0,20971926296939
0,205790155103376
0,207843124746475
0,197359207341635
0,193019152966941
0,195581589457581
0,199485736635048
0,204530077809484
0,200261678809867
0,197664910763325
0,195330434456111
0,206646578164753
0,200037042377503
0,195764172039719
0,202016655034125
0,189813549172719
0,202266113608431
0,201409218838605
0,209663174761075
0,204985723189611
0,213585421199935
0,203467950180864
0,205712016955717
0,211061387645008
0,215880321678128
0,217750291768364
0,204838261216384
0,214715622282023
0,221723641849852
0,228461767601713
0,223095521033833
0,227918053123773
0,235121069029334
0,237259909160867
0,228237264580743
0,239672410461294
0,245776870715
0,242972155095499
0,262775596185183
0,261286899786987
0,262534436402845
0,272952361358428
0,28567922277211
0,272724972430193
0,289942682765786
0,299251167811924
0,285821536949743
0,28853604287381
0,314107081784076
0,30749842170406
0,312963875584792
0,310082718351494
0,314436589861954
0,318959751592569
0,30485484945503
0,319808223342512
0,31099818738837
0,330559695265488
0,317510071080365
0,306666655153679
0,32507007442173
0,327463330727116
0,341940033412907
0,338969331946693
0,327691300159636
0,324366430531968
0,358737536136094
0,335111298313708
0,338191579414313
0,339372782563411
0,35875910336773
0,355434889065747
0,358892642435993
0,352261046741052
0,350287518243572
0,350232337938124
0,353133412456822
0,32826046985873
0,343956881807952
0,333651735929571
0,346350287404174
0,330056430638795
0,312369902380157
0,338454822532785
0,338385531141797
0,326373791648543
0,332075509600853
0,298261472434042
0,31590542133838
0,342486598574064
0,330051535232611
0,316973332975057
0,332259469209566
0,288644319634748
0,324207652264667
0,328014465492054
0,315685711253316
0,316452062855576
0,310035037640226
0,29796986168996
0,317118785283211
0,315363373405929
0,323671576953254
0,317971810967091
0,338223367864047
0,330808094727354
0,310700850439688
0,313853781421487
0,329848440017366
0,318413686059748
0,303697493292282
0,321950909537171
0,34337194380674
0,328156297569916
0,354863041866483
0,353722236581753
0,350769798214456
0,386025693527812
0,395180654750912
0,354559494025861
0,346193513340232
0,362058399124299
0,389865727491402
0,333837110857683
0,381657958016285
0,405425832658858
0,400165033038139
0,405331036741396
0,428813513935357
0,389289383086137
0,432515038386857
0,43512266424877
0,427003706968307
0,399254034115362
0,428151310529591
0,409821500596601
0,461942838167216
0,45693732879462
0,462423749537907
0,406020664278479
0,442675255015354
0,434742191825935
0,394978364631796
0,383633757518075
0,465529221552585
0,408510869998143
0,366252700637291
0,398242594599308
0,44079738127173
0,357435616299813
0,395847445580526
0,388402270064358
0,425718958254616
0,44281695061383
0,385118980421118
0,389604935720913
0,415258681520565
0,364011719809359
0,455409274818789
0,483977697909848
0,484544538513906
0,465259667419373
0,390168843256409
0,41077487223482
0,473720754645314
0,460208974423884
0,533089331226144
0,440500608095994
0,48695954983446
0,402063410581703
0,427906817798909
0,442175807918894
0,496799124978826
0,404181394803267
0,378507324639873
0,408564843479247
0,46925363265009
0,473679718028831
0,424288235575547
0,485838902725649
0,380193301718693
0,548522462044611
0,418457487205936
0,399102254302559
0,719554345564986
0,372053634837668
0,49148705002932
0,28773825537376
0,286195908724146
0,259589236394436
0,689504596237171
0,678880300191896
0,510412623448094
0,210209891450382
0,3971498975337
0,394662705866877
0,602016118707442
