3596
4000,36533379555
650,420452594757
1
2
2
0,103852741837935
0,0968509377459591
0,104486276023345
0,0928037367827114
0,110887710231889
0,0940265862361157
0,101975636847709
0,0890167365338731
0,103731086746097
0,0966442564761229
0,0975053981621058
0,0881003833265975
0,0990033049575747
0,0854481240604989
0,108486408633349
0,0918713717943825
0,0993916725215309
0,0915129099779598
0,101419358362327
0,0861377112603134
0,0965591113402014
0,084306723568507
0,101903744487572
0,0904773832807663
0,0996576096910754
0,0951460130464801
0,103536271926465
0,0876240531837883
0,0997145211772222
0,0898934936365206
0,102575196821517
0,0893398189754438
0,0988092537751456
0,0875780176417111
0,103172205180875
0,0897980713682456
0,103100492285835
0,0935872478505018
0,100121052927609
0,0931999384108858
0,112795213037471
0,0879036207525053
0,103674413539133
0,0916957753045881
0,105137278419057
0,0891028368159774
0,100049661945442
0,0933258087500722
0,0986285980543318
0,0891423330347402
0,115627880759119
0,0883295252800544
0,106402272862463
0,0975996374451606
0,0998689533202726
0,102225721050989
0,104667856024109
0,0854683409545335
0,0999389618035063
0,0919146528458607
0,109482368789193
0,115136852583094
0,0967114769726816
0,0964699824903476
0,097500545854385
0,0968462782212794
0,0867850181556265
0,0986377290983486
0,0911118370024592
0,0949119177999943
0,102305571311825
0,103731994851018
0,118605362217321
0,0985654579467582
0,111951533242242
0,0917593040525187
0,0953913749599621
0,0819094610245222
0,0882277240843381
0,102247598159338
0,108582951937707
0,0991033702872548
0,102822003842175
0,0834982786612399
0,0980797571074374
0,112321974804502
0,101058260639322
0,0905018735166143
0,127154427151111
0,101672338522497
0,0959487706295167
0,0865722629210576
0,0940877664647466
0,0870356124506579
0,0927523531195459
0,0807011240376169
0,0927077695862997
0,0892745079263518
0,0939091958781829
0,089841526139009
0,114272644185783
0,0744948736323332
0,162362251057507
0,0804521938171813
0,155063679245933
0,102995864500701
0,0725576830082234
0,141360445997017
0,107803160999945
0,10280838835706
0,088813269826381
0,0925635915888801
0,0925244882098452
0,102917862354221
0,0890170775909791
0,104932871087915
0,139407391139126
0,0918504263791205
0,0923918553748794
0,0891523288195654
0,076537206194338
0,10216408655372
0,145333423207043
0,0744296556224507
0,108744664149003
0,0827207302625985
0,0921793103950987
0,124747070013592
0,144324003700444
0,0819078073548233
0,098247613299232
0,0807212552566496
0,0979359360052207
0,0671123872887802
0,149682799892947
0,0933085376263158
0,104344091082272
0,081236285134207
0,11673582485072
0,147050288630411
0,106824377796499
0,0957814137994046
0,0914197534416954
0,0774649695964581
0,147231509822215
0,103598229961988
0,0895865740815575
0,100381979129705
0,11570867845052
0,0773362507555847
0,0957631167405201
0,0719101638653979
0,114180157328014
0,095162378860127
0,0637944244472291
0,092712820809086
0,181384405776946
0,0841514080073661
0,185570374179488
0,0806305936341817
0,113594973706961
0,0754815786485044
0,0952889422846773
0,0816612229723432
0,0982335808051826
0,0696507376331836
0,0907219980444277
0,122042905700504
0,0815091906444042
0,0830936470934223
0,137573185470679
0,107368388873503
0,0875537240997395
0,158026024426552
0,121157947576604
0,0638005684924605
0,131098643480104
0,0996052513027246
0,0886900473437577
0,077838049270846
0,130450751490217
0,078692679297063
0,0994305005476495
0,0808569291263887
0,10539447865979
0,10075736700273
0,0974921538928594
0,0830034127885378
0,0999003625661404
0,0669904187081257
0,119617051348748
0,124113336147338
0,138442362334341
0,0828184395429913
0,100463586068342
0,0428593547472917
0,130486045690223
0,131900131807361
0,0888684065924163
0,0770793905778287
0,0890270572424295
0,081836547318072
0,0927994756128929
0,0756976103099043
0,0881796614105568
0,0484906565829222
0,147612906095394
0,102292840233688
0,0965878150817208
0,0812856951558052
0,101096505988575
0,0660088034205025
0,147380425099439
0,128608368875131
0,0946170948887363
0,09731088232629
0,0842714856343985
0,0965878048169237
0,113075226960191
0,0785686451238532
0,0993834601611966
0,0765025264338229
0,0899847004623936
0,085284106824667
0,0879925191615168
0,084845517977441
0,0905781351288454
0,0852384107408582
0,0951187327866522
0,083720167766815
0,101573705230083
0,0902166485639712
0,0938490914142365
0,095902926953313
0,0841835576954344
0,0856547392841766
0,128534025779427
0,0830003554941088
0,101200680820024
0,0764607356226376
0,102070588061573
0,0831796500004136
0,0996604604713186
0,0780071889487041
0,091264831585011
0,0656017445950831
0,139132816617826
0,0890978025029078
0,101411856064831
0,0771396085586143
0,115605019874349
0,0992310928304504
0,0969552529858144
0,0925002433277778
0,0870958959702188
0,0782754246252721
0,0838309862289455
0,132336812669691
0,107035232399665
0,0883829978025341
0,11673347433574
0,101953016496053
0,0877064521002442
0,0920063502689428
0,0801445570235944
0,177679613456406
0,122781018217518
0,0775039870982412
0,176247171013952
0,115668831343282
0,114063336297361
0,0979145523930162
0,0557940288771133
0,213535906244183
0,157372331372101
0,0958203211822141
0,108609718526304
0,119668640011071
0,0946659909074946
0,0968339427998983
0,107069967304177
0,100179476459929
0,134536425146043
0,138538113616857
0,192975559464035
0,0692778763201349
0,134321340250758
0,133681167886843
0,101311275306144
0,0987792660923394
0,099000824750442
0,0952478243833119
0,125850924340758
0,114311859642995
0,117854069361105
0,110853985216039
0,0939276712661447
0,1455483511986
0,113023941792654
0,0983361780167307
0,111185500058238
0,115910484036315
0,0981898212058763
0,102081124737706
0,0941348637286724
0,113021119794383
0,11046597889536
0,0905874932162511
0,165056465247966
0,120496312843019
0,101051855060858
0,147717124109586
0,108417523367299
0,101145961348347
0,103490476635848
0,0988788797796019
0,0980529554149415
0,0968946630504334
0,0878858637429739
0,138893888768021
0,12176071149529
0,103809772969706
0,112906918758077
0,094709010533302
0,103727572905659
0,101324864689503
0,109734574022876
0,102067959770581
0,11732599517882
0,0997807631824677
0,13242765724604
0,158780036561716
0,0995464914846292
0,133432140725742
0,167291487293666
0,106735498414922
0,117494732647042
0,110160323697819
0,12848521401517
0,109602372862326
0,121730199288
0,112569446951957
0,119805936645278
0,141632227931173
0,14290787143084
0,119074863167058
0,130821512830024
0,167341393965862
0,20830897739117
0,141880540536735
0,132149315016774
0,101653093236895
0,164035979151527
0,168099506773366
0,157053499805087
0,171799963848799
0,130983359537443
0,146060946003462
0,142584234028675
0,143652496890787
0,135030180547664
0,14347763777662
0,153625625889133
0,15051085962737
0,154024775714122
0,159107029608907
0,155530660840571
0,153794627631352
0,206217223940973
0,168268840947934
0,165232365744395
0,169173715261937
0,159795666628069
0,199141435235209
0,218162490059489
0,212224319146758
0,232069605734928
0,184913392346033
0,251565475228613
0,18590909007237
0,199974989037767
0,178157084615343
0,200952596651557
0,199503726662523
0,207467686345582
0,191324919193622
0,205859319132127
0,196470977073649
0,225089747015354
0,196205957006775
0,208778065173123
0,204061783693706
0,251406359395322
0,223712897121972
0,231548173040972
0,217192266748526
0,251355399659086
0,303806308359029
0,322886801300591
0,25703455281108
0,248940245641915
0,25636920273042
0,236729978305438
0,253483789577131
0,253381453274617
0,261090872397343
0,271887580214025
0,302367525056561
0,294138176143256
0,277359965464704
0,306640887638853
0,264038326735014
0,305577006177101
0,291953970136967
0,297183216912894
0,323482500010953
0,314442462934147
0,285967548958434
0,330775650966647
0,342682927636753
0,316400102512618
0,34794553658293
0,322159443342627
0,319467443190254
0,323150782421409
0,330782860966777
0,33808418603633
0,348621836217221
0,354887340554206
0,340631045997634
0,350721601944732
0,347411911581456
0,357712657997556
0,366725270234264
0,381483364996359
0,35773660316943
0,394247865666848
0,367641111391614
0,384052186856736
0,364895569682636
0,400680862211738
0,416741487877412
0,39257839429073
0,436130443983136
0,421491985161996
0,406174843529355
0,413468956103751
0,410398711285547
0,417086603886117
0,428345990210032
0,437028573804198
0,437144777657241
0,435919215994128
0,437157541269671
0,443181181739246
0,440282645843369
0,464297169268657
0,453586789155785
0,475235671173116
0,463864214054754
0,489894446349458
0,500241217581495
0,509692063668198
0,503229035768019
0,528698355567921
0,540768988838814
0,49838363030761
0,493335047033738
0,514901336048945
0,52162596999985
0,523571513541093
0,545324627247558
0,548374636374056
0,546418090338237
0,547048378233315
0,53645668319878
0,557020828096615
0,539729942267442
0,550431906751821
0,554282068959363
0,590760206030642
0,56398238331396
0,566369538756637
0,571757379370287
0,581385167106809
0,585748990581915
0,614014493358926
0,608989140383562
0,627491633956556
0,615187613302576
0,608798607463906
0,603491676361654
0,619485689313553
0,612635156217671
0,652394183583526
0,624381734009333
0,660925080844296
0,673179920298558
0,652134408348589
0,635209696548561
0,663578481077165
0,654223535182625
0,712386979771314
0,701667597450556
0,684350163046657
0,67665293203697
0,7181079350212
0,730578031489998
0,741536809434721
0,716573163934105
0,726021192680418
0,729684375283288
0,756359487928815
0,739424637469401
0,704206200923512
0,726081662033431
0,7773818452136
0,74043695990332
0,7535581595003
0,736059257302586
0,745669660702579
0,722900519103798
0,786203118871451
0,795916341648451
0,779671191659947
0,805530715125498
0,807952029821101
0,800465996573322
0,81645955490365
0,805488658102223
0,803842527832319
0,822627345746606
0,853206237541133
0,839390802700403
0,873922446172442
0,851944979732899
0,851266176537111
0,801668164092235
0,871867531351494
0,836144555399888
0,846433107441512
0,890927913225262
0,8787945512205
0,891443594982516
0,880791886154839
0,916656531738658
0,927836466875584
0,863124237390995
0,931660492326981
0,92250071336515
0,91136148333411
0,941485157820534
0,94514167790186
0,929309933959206
0,927232277100628
0,930396143764702
0,974756350632671
0,957693771217404
0,948119269840442
0,944170597777475
0,989076647837308
0,923075251036137
0,967781641343185
0,965991721076978
1,01037515190399
0,973398808445527
0,951627014606709
0,963225467712959
0,944325962063737
1,00892409797518
1,06168553377982
1,02533558282525
1,09766194412493
1,07245528057734
1,04193882192399
1,03556241645913
1,05339542288657
1,05213897643505
1,02266237652912
1,03354595699838
1,12132422974024
1,05993133182858
1,11633355014738
1,09781857152563
1,06706721949142
1,06477466514937
1,05303156240054
1,07292336636379
1,11305948575412
1,13391407459826
1,1413463707129
1,09749955508636
1,07668933635135
1,12388969674728
1,09544756394359
1,06134135530553
1,10052121129379
1,12723690386826
1,17191697156093
1,0915590789988
1,09205128780958
1,16667921130184
1,15247999500085
1,20021947100651
1,14239418237321
1,06104055565986
1,16389018157418
1,1645795228454
1,21068028818193
1,21897598569067
1,21114344578611
1,18234403352152
1,20999700006043
1,28145926966032
1,38953419846138
1,25608800573557
1,26973060440609
1,376598953177
1,29636269930907
1,26959865057974
1,26825645219606
1,24481505294048
1,34971002236465
1,30818036336359
1,24091965826251
1,23273485450976
1,22162311974255
1,23519120406897
1,23410201741771
1,20854559687642
1,3316402698832
1,32687803218108
1,31618864946628
1,29411787247554
1,30484102069385
1,35024006619748
1,33308746866778
1,27560441333231
1,2937414150656
1,28527886932716
1,29047982406152
1,26898050911526
1,29517480062136
1,46623931030853
1,44233988344387
1,38932954574049
1,46323874567915
1,36629527364343
1,2918323549646
1,44819448706693
1,32786245967402
1,26872444640889
1,3571814103519
1,37848724214373
1,45331854904311
1,36018793602702
1,41002325526692
1,37880672674321
1,36853500342987
1,57678040103485
1,36182005916885
1,33582995893729
1,52351296080666
1,40855458122
1,35648151979909
1,47707871912214
1,4581862295756
1,46709594101907
1,51716051638287
1,38022271942127
1,37211694244816
1,50684672410928
1,4687470063313
1,3331933108737
1,36617131735793
1,36700411274133
1,39929187604133
1,48466866511544
1,37919348975264
1,37239237289372
1,48386115291293
1,44404761825668
1,45389839863116
1,40284054214826
1,32831758730214
1,44042240136851
1,44017000554327
1,54358502259586
1,47762825777301
1,40981669571416
1,56171888598159
1,68493055222378
1,50088576542288
1,41275042259956
1,44931630718438
1,50717849060693
1,3990192907478
1,43731151017393
1,61774168178472
1,51656816973604
1,37785986793812
1,45239281293658
1,54838616970545
1,41081716325539
1,42609137011044
1,65539738831636
1,57091237406793
1,57359090807323
1,50279818703658
1,39941135565763
1,52468985486794
1,6148939914358
1,54023427535655
1,67942262601964
1,67095494943876
1,52175348665849
1,64409693373305
1,55449596300114
1,34367847898727
1,43289985853289
1,48566035970315
1,42992588684121
1,42211708764434
1,6064568616451
1,59317798853025
1,56747901922319
1,52908189765998
1,53491840601813
1,47947079187521
1,53067716610592
1,737385393194
1,6372802354949
1,49899448800357
1,67460704824049
1,63703245390845
1,45477386784998
1,44756687376972
1,55500261201941
1,43506725802475
1,45975088435288
1,59521180367073
1,54560523692735
1,56668715418064
1,47712106194547
1,43366326002552
1,52835871510814
1,57748353634852
1,64672073318583
1,46836954068518
1,45651122973582
1,53656796173882
1,61167965968014
1,52964788103399
1,53092344508278
1,6133722670767
1,5124149427906
1,43136222143499
1,61742957059493
1,55104588058466
1,55279072458764
1,5715398889528
1,55550213389043
1,481156711756
1,61627821967305
1,59516231510908
1,46827970312066
1,51490027811661
1,6837433509242
1,55612391855331
1,5812270087294
1,5834375960507
1,63488075507291
1,42514620487358
1,49152404558305
1,6505326174902
1,58047100354753
1,49152035984052
1,55541079108219
1,54532479123339
1,46861154687906
1,39859457651893
1,43408604741266
1,52628182071621
1,59685964201141
1,46835864719264
1,46633089751433
1,47780769449598
1,48349151675958
1,4741084062036
1,48033159196383
1,5110656956192
1,63148924223842
1,44988057728466
1,48113914064727
1,55496273215132
1,51133304730031
1,56265505596098
1,6823864458295
1,52547702274096
1,46923271785819
1,49456901262226
1,58902170399994
1,41818843376572
1,42333026873367
1,52170819824766
1,50854886934093
1,38228096484307
1,42088531218413
1,54619741963643
1,59315272920739
1,43483213712862
1,48664443381253
1,43491643723699
1,38044708122588
1,42285193534615
1,46774840267811
1,54239024710779
1,57271896365047
1,46385965334417
1,50047687042658
1,45772276686441
1,46823876557971
1,36849957677861
1,42362653912701
1,44687539995612
1,43395154209027
1,46007647440149
1,47028145777289
1,35183876955213
1,44360286551972
1,52558076248856
1,45425272980827
1,47767503511281
1,51563109819231
1,45082323242769
1,42831572606884
1,42483314240871
1,56921683636134
1,415508760162
1,38633048624723
1,3944273277013
1,40965175830215
1,38894058615298
1,34887855149873
1,39778493539382
1,42491727928289
1,34660579744475
1,34087649314517
1,34730834221409
1,40484687927923
1,31439686269636
1,36639513020683
1,45538940611658
1,39269583212478
1,31715837192721
1,40358794405196
1,38455014852557
1,41238249022548
1,33828295533351
1,26565631744944
1,26421542469704
1,3122797142675
1,31392523148722
1,32704422294916
1,28746604764497
1,27200460360356
1,23983970962154
1,28283366870341
1,27460662977366
1,29217582981953
1,25517820117851
1,26992176869597
1,2416820080937
1,26544810925504
1,26564701474957
1,28104180884626
1,24308917670582
1,2626352599626
1,21747070832268
1,30071057156716
1,24661662031317
1,17706099525395
1,16749466537348
1,21861847953572
1,18317453441183
1,18048005907057
1,17499852804004
1,18650599702996
1,18850781493001
1,16692587899831
1,13781047004714
1,20629898037946
1,16248658537509
1,15796380432069
1,16042014452712
1,14866369179605
1,120222977265
1,15294678528153
1,13958174140767
1,13912668664766
1,11817141994687
1,11365148223329
1,09978041923925
1,11982462654851
1,12891922820115
1,1317399124026
1,08873668368446
1,09742717981158
1,0535708596013
1,05696282777117
1,06993907685615
1,07549666451959
1,06506192602446
1,05855836610089
1,05704334893973
1,08299862426752
1,04246507998267
1,03115211503842
1,01749338443405
1,01854884516671
1,00371720809244
0,991563006131491
0,976829502948969
0,997304101322034
0,965849438048089
1,01408165772862
1,00391389418681
0,981814850899582
0,989691207692853
0,986451369835039
0,97147949248996
0,966241935810784
0,930013297390223
0,952492573174067
0,939357625913325
0,955904717237721
0,933097015103283
0,922454075112292
0,910094313004946
0,922385712569325
0,922001124499256
0,924064924036599
0,899814587531848
0,9060349434333
0,89676837485601
0,899653567654561
0,867651850100445
0,887542547974868
0,861910749534822
0,884433512380424
0,891165215002187
0,85047735813938
0,852232310915643
0,866471529730369
0,857235186940845
0,858039542426123
0,833215597191087
0,855022357127635
0,827842683267977
0,824711331997809
0,823580240663215
0,822360353596412
0,810787487754792
0,821259060333471
0,811639047034378
0,79515412593974
0,788890371916657
0,804540416085205
0,797304845789974
0,811201565506431
0,769815641136858
0,776959243982673
0,783982283254856
0,757169566741161
0,750120186134791
0,765311938116781
0,738546295207977
0,753445319285571
0,743979332999009
0,727065267823947
0,722663280044264
0,736828012600172
0,716521423971205
0,730660035289287
0,721666413491765
0,720093906098758
0,709959479744075
0,717450628427956
0,710681886338495
0,710602516037516
0,693237970773329
0,704609578490465
0,687113911331486
0,690206443965944
0,681692296846845
0,678295327239462
0,672047510237651
0,670756437599317
0,654237029971498
0,668686617088899
0,657602272741111
0,657530671316598
0,643624468855926
0,655706413143233
0,646798060226778
0,650776059326811
0,629340582893287
0,635440083453101
0,633771082188328
0,636193591269868
0,61109700558113
0,617412965623283
0,615244869110812
0,607717908118862
0,602182014130936
0,61877987518082
0,608631626219075
0,593730908025309
0,589172723300667
0,597856475143825
0,593647475421206
0,600167641035919
0,579713445857937
0,58513646624405
0,565345576573387
0,579717514843747
0,574355113118659
0,568297542559622
0,55829837406907
0,574732944475714
0,560351898941078
0,559678195988997
0,554061929192911
0,547905760976844
0,545035872272855
0,553352376216832
0,53673296056401
0,535524988609249
0,533174961333834
0,538827804903016
0,525941565620264
0,532274266559547
0,529768400987205
0,530449459362717
0,521094965747333
0,519229148890711
0,514780124222541
0,516106387838844
0,511584034176546
0,513554463608396
0,50584117167055
0,514280581199086
0,509672261644141
0,508172223639599
0,497278364384821
0,496352710302174
0,48886284766215
0,498454944994414
0,486477828543672
0,499405894665806
0,492605083360517
0,492461731656816
0,480897708660402
0,49159283274614
0,481500709934367
0,475224870787353
0,475204676892179
0,481792729386178
0,474819094656905
0,477368038199519
0,471673876094746
0,471672385307797
0,471702397797905
0,476279456560202
0,469098220440559
0,469359267013876
0,471103283588931
0,480235469265087
0,469235108764879
0,476606440260357
0,463272025824848
0,472408186593469
0,475217985908947
0,479689518527073
0,467126223376682
0,47678477678224
0,478294974936854
0,473067301891822
0,46886379724191
0,483684178028646
0,4713984181625
0,480171502605231
0,472502554168054
0,4802185443013
0,473318560295057
0,489120628824863
0,49090557811503
0,483218691698157
0,476043022465128
0,48347707613286
0,486692836526625
0,500977109193336
0,488117724932282
0,49426478438904
0,490120759998873
0,502672476276266
0,492376443263171
0,503912782319644
0,504946842451972
0,510028101812476
0,504235095940989
0,512923479094908
0,509341631586111
0,515980334524663
0,512399934999868
0,523490037747363
0,517229489708067
0,524248258697472
0,524371774461211
0,547672283675633
0,53485769352418
0,546487112430406
0,541365700017053
0,547249160444611
0,544738166652575
0,561068993760779
0,561092332434297
0,568412778234466
0,576496940499108
0,580175238899466
0,567901588769768
0,593470791924668
0,589123997971126
0,604496629476436
0,600905091354732
0,599593104276342
0,607613482875666
0,617950150747669
0,608717078527697
0,626758154139684
0,628850547323132
0,629556293716245
0,616209410459879
0,642965510475643
0,643514333772945
0,637237603743055
0,632525532159418
0,665541407619519
0,642735256091427
0,652715209258254
0,649360681283498
0,655888609157363
0,637863667842176
0,657056349673511
0,637840530104776
0,645879368149757
0,645987652531035
0,650131074695177
0,647781698345063
0,64629447690863
0,639037686662093
0,64220992008259
0,626338075697324
0,637396152421597
0,619482520254186
0,635565263863917
0,620678461576003
0,623682244496928
0,610921074162927
0,619519065311104
0,603465192648334
0,619180602953886
0,615182189514227
0,61997213432039
0,603537117664423
0,62639100831718
0,612328599863699
0,609471755812361
0,603812059091032
0,608853020947899
0,593806941703886
0,607152593883106
0,593099186034006
0,606678695025896
0,601438503648051
0,606186318052996
0,587335667183328
0,608327422256626
0,591118324530289
0,601890468870902
0,59372140292274
0,596345944016452
0,595121578060659
0,606386888832214
0,599347343463313
0,594635431895439
0,5855468190696
0,584563301631041
0,576663176310897
0,589373923553423
0,586031678467949
0,590851811113071
0,569669618187326
0,581988999115522
0,564939836758122
0,581337110599093
0,571879420112125
0,563564528222727
0,547428542668223
0,555320439764428
0,542822605963353
0,541172152639939
0,53638636153904
0,538199525597424
0,531189388566109
0,5402770154041
0,52398764007022
0,530766672239885
0,521756524736224
0,523749479070704
0,503455343809198
0,51591065808251
0,500352207248157
0,49949587353257
0,493623305008059
0,509871962812195
0,495987868813742
0,494098483879663
0,480682131272268
0,492321014641368
0,475930310501588
0,482981192991819
0,47358407488882
0,474470063356931
0,477749715606672
0,476159768989389
0,463912083226787
0,47001368988018
0,463958555442248
0,468867738114359
0,456224113627363
0,456556901998624
0,451029983439207
0,449680162275599
0,442243175880252
0,442215872026502
0,442515637381396
0,445325719348341
0,431250418558686
0,44473696084076
0,432472198514805
0,428748393258811
0,422472665193583
0,425894124975172
0,42343962376718
0,426653063287494
0,418529397895012
0,424473338958356
0,420995407326422
0,417500766933446
0,411688388244335
0,41320753028394
0,407883153762643
0,416983339452385
0,39885364412366
0,404776535649909
0,398980937292585
0,406469965860407
0,397065923049431
0,399589101942321
0,395980087509004
0,397509683335974
0,394737856040777
0,396980399924386
0,386939011764649
0,395201305483321
0,387023512915905
0,392426337245595
0,390440889866328
0,390745499492537
0,37989891327237
0,382059865083775
0,373748429762604
0,383667652066393
0,373203859689202
0,369977018775023
0,371980490902556
0,382084318117963
0,371154795371869
0,379019705898527
0,367687270944708
0,369868354011805
0,365308156598127
0,37670232082882
0,365598285687279
0,364796598343529
0,360617876355977
0,369611146405484
0,360463619121146
0,36667434336942
0,35616170085789
0,362982916168675
0,355175383510526
0,358663102870993
0,356919287190048
0,356563569171628
0,352299481368231
0,357622336456826
0,349275716506563
0,356862920326251
0,3539469443792
0,359225469218198
0,350485850137947
0,35215658593507
0,346519458452743
0,352886190357355
0,346466694561745
0,353052894749289
0,346618906441208
0,353021508235687
0,345670556169449
0,344865027599259
0,340752024238746
0,349190330528621
0,349449767077851
0,345793510887155
0,334456368029777
0,345695049611023
0,330429886529477
0,338635767867866
0,332921216420898
0,340845212118199
0,338213508799715
0,339164719951687
0,329427356128104
0,333961926810154
0,332549452657295
0,340014540918054
0,332641352751953
0,333070419045092
0,328689104539701
0,334937095943239
0,330086883283628
0,333597610711717
0,326444235492773
0,332070076981384
0,329010566872664
0,335753655324145
0,326937207828868
0,327025667745496
0,322328348546812
0,323529448118946
0,325060668938371
0,325549092713438
0,320912193572577
0,322143606627601
0,316765113758848
0,322475940138846
0,319057142422309
0,325385081510489
0,321855006317756
0,326843363217635
0,318404195023967
0,326536458515134
0,318089706073888
0,320643187232976
0,318306251380088
0,319621992259054
0,316101377951163
0,31994247964487
0,315042960946144
0,319941272647293
0,305577424642365
0,315143096866419
0,309934519997871
0,317215673869277
0,309016248385621
0,313906128117169
0,309666876558074
0,316383736108561
0,307869474120926
0,315399073112983
0,30707194680665
0,308214448630852
0,30700833447295
0,307932573719016
0,30500811143411
0,31189096012083
0,30188444633877
0,307073523611658
0,307689539739635
0,307117291616696
0,296418914884243
0,308947208382176
0,301622184867415
0,307328536309548
0,294892482937008
0,304995117422755
0,302097459885912
0,300287281133715
0,293180843897631
0,297453774791
0,291850970244135
0,290331276354982
0,290746932763673
0,296621973958395
0,293799959751538
0,297456671590086
0,292161379987911
0,299061603235075
0,285254863981907
0,29391451016618
0,287388680605788
0,289621340388899
0,286877617130031
0,292835482433843
0,287123939476399
0,292219525432382
0,282357707454926
0,294921986067392
0,291238657019205
0,287432206815048
0,285864466429282
0,28737792207747
0,278388924194106
0,289002617706234
0,277475476641423
0,281194966668624
0,278341558713215
0,284168845812566
0,278188090187999
0,278547442474049
0,274159360288382
0,279542118587008
0,27545275956351
0,279550433287881
0,276303759383722
0,277177681859282
0,273004759440643
0,275367586299104
0,271588315726988
0,276643898394892
0,268845611318795
0,27130729197574
0,265349850014316
0,270075426230744
0,267155471792029
0,272133257573718
0,269293945248594
0,265754760401405
0,262432234691756
0,263963508384517
0,257927272651279
0,263543407672924
0,254846112085003
0,259796154145082
0,254697244855241
0,259835485867525
0,255033424347026
0,259442150089824
0,251421618943707
0,258734376241442
0,252103443697058
0,253357927217823
0,249273680836124
0,251507812324459
0,248985153556989
0,249218120851651
0,243381039880957
0,248115676779308
0,243305208797975
0,246027962787729
0,242435470697678
0,248518946077726
0,244609198260397
0,241544033916055
0,240769085695341
0,245632055647546
0,240337713406837
0,241709000036813
0,236926177424796
0,240258912235736
0,240002551163553
0,239013429946953
0,235842553296077
0,241114066424164
0,234956338331535
0,241118858643774
0,234211522798769
0,239852674332263
0,232883692910713
0,237219678577743
0,233909409934385
0,233888458856516
0,230397517259223
0,234209840550929
0,233853743555507
0,232374925795063
0,227360441807868
0,230324638509336
0,229602368539479
0,229387398525447
0,22810358587381
0,234771795531173
0,227846710146406
0,227651454977001
0,226573583345467
0,231465835689272
0,221214523081967
0,225056698998413
0,222857941747299
0,227455309325714
0,223980698577603
0,228275142431714
0,221501585926029
0,227263017246921
0,221902018085363
0,225500008684681
0,221643436483913
0,223902096507924
0,214931257088843
0,219927569233968
0,218331175789487
0,220134575306642
0,215312869366309
0,218492213290986
0,214619034629628
0,216395987243463
0,214198248730156
0,218432055017909
0,214128846243715
0,218706413608659
0,213209791297251
0,219730721524563
0,213803993915848
0,214415204753412
0,210987178179586
0,219250296025937
0,213144569937007
0,218102716550773
0,214263451802642
0,216434855599371
0,210507563235056
0,211913747581599
0,212480306025027
0,215480384334587
0,208117002680913
0,213689365301971
0,207600548241857
0,210707823060556
0,2090253891767
0,210344996519493
0,20356334156621
0,211882542452485
0,209066462089332
0,212484435980939
0,20937417056038
0,210191239030841
0,204119031809038
0,210357333417915
0,203226290778826
0,20751803302773
0,202089215872926
0,207686809726396
0,201983727439078
0,208733364090789
0,205652806395992
0,209121736121944
0,204843126107382
0,205828174543792
0,19986586079717
0,202473889600446
0,200315262173287
0,20378244590338
0,201148067956162
0,202609446200202
0,199218500819146
0,207317361785442
0,196765605040718
0,204436771864118
0,200668681911595
0,201297254358506
0,197443166479491
0,19995633416358
0,193824674732493
0,197051227831153
0,192518195536453
0,199250614556784
0,195313305640767
0,196397296764378
0,195244442976895
0,196728362176604
0,192286443083668
0,193973145050008
0,191443666579576
0,196754593612595
0,195364135917405
0,196598582049489
0,188008812326695
0,194853067037688
0,188828429451173
0,193525716237602
0,18823241657274
0,195718096728741
0,190293903441058
0,194986122506149
0,193079210403941
0,196713626109893
0,190677117833159
0,191153677334594
0,192874936482895
0,192209703515645
0,189773271357245
0,192456065241708
0,18803500924902
0,187419820810671
0,186824432065039
0,192244924718019
0,184643238586412
0,193079209881804
0,187066173649366
0,190503497374391
0,184426205936849
0,189943067277449
0,185998506752149
0,18783084433738
0,182527540137499
0,186191473630677
0,181617935395175
0,187072737958701
0,182920061588035
0,186805158310644
0,180734449717605
0,183134664379118
0,180450725948677
0,187838483790496
0,178289260961415
0,183017144950069
0,179255722043989
0,18150478275263
0,178939390502628
0,182900349582863
0,174687987206642
0,180161495854356
0,174218139502317
0,180365195538872
0,174066631375683
0,177659414115796
0,175814150756324
0,17844388653587
0,169704135244135
0,176816391747265
0,171076345846897
0,175215581041947
0,16973251824188
0,176538857314957
0,170416169814381
0,173081733698113
0,169405603438978
0,177118271929047
0,170950758122092
0,173117806020325
0,169379963560908
0,172931596327414
0,166986684803671
0,170975217081629
0,166528302022642
0,172651409007101
0,168381692526273
0,172811243756229
0,165257287410901
0,169708049574151
0,162942288137336
0,170272467378415
0,163868971265531
0,167687218293135
0,162573730292326
0,168140067771917
0,164108653238593
0,169144901371655
0,15918929685881
0,16302279197186
0,160471825531655
0,163611305960192
0,159586099763553
0,166223131586552
0,158344621114558
0,164288380666164
0,157962627609894
0,162122307916543
0,158961635917194
0,161041392026325
0,154101798911889
0,159764582191312
0,154916679701777
0,158482162083741
0,153591641967299
0,156378793594579
0,152939532110571
0,157841991434515
0,150442664263449
0,154499571804104
0,150721302488459
0,154887576819019
0,147805862818596
0,157704326713003
0,150133689187328
0,152946860342013
0,152678581665015
0,152454594299923
0,14741086725951
0,150835836233131
0,148396385855479
0,152349890592563
0,145393440074794
0,149844498466018
0,145285139865799
0,149447135201136
0,143859296416932
0,150635980853241
0,144513990326838
0,148543356256846
0,142835589024861
0,150574154219571
0,144576348885742
0,147641464272496
0,143940472607516
0,146835093928179
0,143045426144238
0,151371553416527
0,144532453941156
0,149186537300396
0,144010806174502
0,150105329819727
0,145233729226708
0,151016786705037
0,146207204460382
0,153353238175248
0,142901222652663
0,151433554568638
0,144998584374562
0,152122642084134
0,145073897641986
0,151049219023658
0,147176010656051
0,155105111176423
0,145676640916593
0,153425995047979
0,145119707950365
0,150709400209066
0,143223951792024
0,154550358057564
0,145399690217388
0,153052860253503
0,135877211718563
0,145485526521063
0,143364141419905
0,150480754786554
0,13261764632446
0,151140463148256
0,145916459804957
0,144282168850997
0,139484961282618
0,146922112838553
0,135397439814639
0,151714182762357
0,137735404420422
0,153123079350768
0,137280181248371
0,147453008898688
0,141846697721473
0,14586892765287
0,134778127117407
0,144618939007178
0,131484950493179
0,141281714393447
0,131165709943375
0,148713000642946
0,130666592791546
0,1491665984205
0,127836506881151
0,152263705741109
0,127120217265036
0,150720317892116
0,125033570691055
0,153381018665027
0,120032219942871
0,157766561410289
0,119234741794448
0,158324101654678
0,117398887068005
0,165229829897088
0,117751524157973
0,170727991607909
0,112763950761613
0,170830168351389
0,110156964453719
0,171625118262113
0,111384872171917
0,17311487131457
0,109997360042848
0,17103040844251
0,115941080810173
0,162371785995843
0,121602502447192
0,151987458729719
0,132602900286957
0,146009062968928
0,143501795095444
0,132511171087788
0,150885004380805
0,127240203373255
0,152530754564554
0,128461298158878
0,146203999603693
0,127156931945348
0,142377958580433
0,134220195113331
0,13491909012724
0,137575985382357
0,131865716378192
0,140109875425452
0,131527264824179
0,139218572906092
0,134690904654135
0,13290551392766
0,133838287788869
0,130781548594423
0,137046016139329
0,132771051755472
0,133136544155756
0,13147949666313
0,129911087055072
0,130174860886172
0,134091882231375
0,133856931819309
0,130706186980248
0,133782661897388
0,13158194442577
0,133137378275544
0,130746220351661
0,131587049810606
0,13103659348907
0,132218099170441
0,132462241428255
0,133675220847591
0,130081799936746
0,132098439576397
0,130697173753443
0,134340509136551
0,131903456514902
0,134120412266091
0,132488640398417
0,133253149201485
0,132240184793244
0,133532459707616
0,13146485085686
0,13296128724743
0,132745474615346
0,133379907487877
0,131689284236525
0,136261648886441
0,133643981966612
0,135871835507864
0,133515170032879
0,137035140437974
0,132674078438726
0,136190427697557
0,132429756520782
0,134764099924466
0,134633586734029
0,135429020285238
0,133137905957628
0,131753938095168
0,13358998566322
0,135340199757428
0,133307040403849
0,134297530005125
0,133144115440729
0,132875334716205
0,135613938325187
0,136577634926453
0,131647250946442
0,13409063634101
0,132750649419787
0,135879704375843
0,134684663133081
0,135918132483891
0,135024347237999
0,136459570440723
0,131864172213114
0,136627387660425
0,134093306647557
0,135173157204714
0,132682955409087
0,136966298575444
0,131131471009409
0,135561049257986
0,131009502736214
0,135021721994507
0,13341597877613
0,134867010723992
0,131322661537742
0,137184880624557
0,134465365647055
0,137752959271623
0,134831205901585
0,13867106085896
0,13497274033992
0,135427766263085
0,136619868185267
0,138101698388193
0,135975574739965
0,139554675171339
0,13447561954776
0,137797419494755
0,136311028111094
0,141327366967973
0,137446164602225
0,13984597227973
0,136929380573496
0,139161248643611
0,139177215654372
0,139419791202075
0,139464154286207
0,141662974060346
0,136374520982821
0,138945166106668
0,136387448007359
0,143289719381041
0,14233964831179
0,14110071222981
0,138128800225036
0,143451657626023
0,141076324092883
0,141534176610218
0,141279388170236
0,142219686739751
0,138848453053642
0,14159962060327
0,14320547756637
0,141770584779404
0,139267758434992
0,142392446113452
0,142001610979386
0,144822971031124
0,141821877182026
0,145687750061932
0,142846320565066
0,144593304835042
0,141824393608763
0,145309230046615
0,143183067123588
0,144095336782301
0,141508185284979
0,144666654671232
0,146015899152578
0,144675319964311
0,142990343786736
0,145056448211914
0,142993539595608
0,146460001220014
0,143040663321888
0,146440415742924
0,143497861467596
0,146754996401465
0,144132405161775
0,146305024001899
0,14547048940939
0,148642672450829
0,146144024611701
0,149228572231649
0,148948824127612
0,147479606889098
0,145831658425096
0,148588354235594
0,145997340744049
0,149889400380661
0,151120689864547
0,150431983872832
0,147267051050936
0,150941500916207
0,146577499356744
0,153444211472044
0,146593475976089
0,151262439973264
0,148955006178219
0,149913923673153
0,148841955663064
0,152026242933528
0,146545556593656
0,150388864650407
0,147199555260466
0,150568529163549
0,147000634098305
0,15004392491346
0,147268387392519
0,149209218024084
0,144858849329617
0,148606703070191
0,145463048285579
0,148817741445396
0,146221128127752
0,146405426504643
0,144877076252641
0,147988001947658
0,144105155456385
0,145848731861871
0,145450544718747
0,149553731354914
0,14444444729377
0,146793259104847
0,142663637973673
0,146539498213175
0,145344230628775
0,145702041633743
0,142709318602314
0,145562472699406
0,144880057427088
0,145404383091497
0,14377394333455
0,147485783282382
0,142759331723367
0,145320767369791
0,14073557061271
0,147969730983773
0,144018165043533
0,14316181171287
0,143706285737024
0,145698711228415
0,142511778118419
0,145344432582356
0,142866500263851
0,144797596100692
0,141696227674626
0,147039857389168
0,144886165076769
0,145499268274361
0,142993324424384
0,144218025751785
0,143882388384809
0,145532388912361
0,141420445549149
0,142833352365261
0,140948222606877
0,144623031008221
0,141478840287447
0,14275837824102
0,140071509986704
0,147401407008925
0,140805524407644
0,143222552796702
0,140458398983213
0,14588549902015
0,142210277302284
0,14276098270479
0,138639213527915
0,143972625555388
0,138948837239348
0,144383263835962
0,139362620496453
0,141785401881282
0,138835127250453
0,140911091767483
0,139693472392722
0,141155486899919
0,141808500100752
0,140808069934173
0,13826840914224
0,141458016592532
0,137588275995882
0,140129143086088
0,138768171966243
0,140674671405066
0,137692907684881
0,139648319971177
0,141535933198391
0,143533675928753
0,137673072810351
0,139803939040082
0,135554184131235
0,139175734316036
0,136737809281321
0,136957037216368
0,136721953495618
0,137541895582572
0,137095257410527
0,139955519904797
0,134287006735998
0,13636722385084
0,13629972137699
0,13856131009677
0,136011950351064
0,13779816317482
0,134538360923398
0,13865038924542
0,135658938063577
0,138175539017956
0,135075349589152
0,137481818355757
0,132276820884236
0,137865643766493
0,136469035199134
0,132996158320199
0,133035305863101
0,134814811524409
0,132116438586456
0,135308141719413
0,129540482365001
0,133972746044825
0,131132977031865
0,132959608890618
0,130034057382288
0,132586212677467
0,128897067552667
0,131423574308372
0,127518358574223
0,130996063887136
0,127132557886698
0,128722802804108
0,125553860320133
0,1298137444319
0,127167250425846
0,127457622616719
0,124777696715202
0,128159424453775
0,12682076858368
0,124485671502547
0,12968699753821
0,124659741703869
0,121357753909196
0,124829173671287
0,123146866351339
0,126205534705648
0,121979682962879
0,122277606620797
0,122072858631004
0,121713870969699
0,119591578611458
0,118807521342572
0,118750083348298
0,121003123398029
0,115536045026352
0,116572930075871
0,114743583709065
0,120425787006745
0,117849994248388
0,118543205125959
0,117293960704929
0,118624937751035
0,114687910536563
0,116738432844254
0,114439249288229
0,116484327361156
0,121098644150596
0,128138211749872
0,114120297170563
0,11508004177285
0,117164416170824
0,121352994835742
0,112261215752377
0,118113153700758
0,114119210346041
0,116354862177685
0,11276946937083
0,117757834739972
0,112297437495167
0,115339130004085
0,111503482155277
0,116138652882099
0,113062342909299
0,115480352956307
0,111426680687301
0,112956023907372
0,109510233455085
0,113522612257136
0,111720053128359
0,115497236734269
0,110565213905542
0,117656541110895
0,110355571807792
0,121069580765917
0,115830049435589
0,116502728600313
0,108557368220458
0,114343114080706
0,109458026616143
0,114905639023241
0,111936179355797
0,113443303156048
0,108379147468168
0,10993057016888
0,108635823772829
0,108802586529563
0,110177072003026
0,112621524096769
0,10682809050094
0,111792249289527
0,108887890952506
0,111389801310474
0,107088006801635
0,111891742100974
0,105476267424046
0,112057602938059
0,108135928163454
0,116488161981291
0,105065995778341
0,113791887886998
0,128886814349757
0,109901346443498
0,110329520786619
0,109469522487308
0,110901163933635
0,107197603167636
0,10538328605424
0,107523829509166
0,108357851518028
0,108339768224528
0,10577701611576
0,107868140513028
0,108085138100719
0,106410008669395
0,106276248871449
0,107927350313576
0,106871595054128
0,105402419075146
0,106131119117845
0,104793281633335
0,108946757166859
0,124252659377212
0,11232488333739
0,109181605493358
0,108728159284556
0,0988303539754899
0,127837393564548
0,112941376790437
0,104869928491984
0,107071757479786
0,105543464057884
0,106677776953515
0,103290216668059
0,103202440759854
0,106688139044765
0,113139714879917
0,1008461066962
0,11245833872646
0,101620116383654
0,105724012172678
0,100844914898011
0,103804453445745
0,103608147565765
0,10526418906819
0,100587186704932
0,104152285134428
0,100189771039431
0,100196141287717
0,103746580439137
0,101158192270017
0,104978541555735
0,110274187865656
0,100984664001187
0,101235488467225
0,101939122873298
0,0991053820687384
0,105860433642137
0,128275877715214
0,0974446372170389
0,106545952714473
0,0995148138769722
0,104293350774135
0,0995987476536657
0,102741782829438
0,0974640869059136
0,102583610540801
0,0988821796404257
0,103967212814382
0,0987499118870755
0,101485597028938
0,0975106397765656
0,101745951431986
0,0981257343830138
0,101290889457919
0,100358741016095
0,100700385940612
0,103248711564075
0,100178246945797
0,11575101023966
0,128332396392136
0,111257833713331
0,115809528982077
0,102443351618496
0,104168587485179
0,0968469909444936
0,0985152917251156
0,0982351434627986
0,106239598786282
0,0982047109064143
0,105147168517218
0,0993940921637011
0,101124041853641
0,0964745572643632
0,101786168116968
0,0936247955849917
0,101622286591316
0,0936188259591703
0,103243188650949
0,0945200369912829
0,102789295067189
0,0921913364187093
0,11093665639264
0,104115052811177
0,107947244287174
0,0881567938526359
0,131359253703992
0,124178453351057
0,103462477584377
0,106028526617762
0,0993493316133023
0,0973738022041444
0,0964650397099045
0,0998029276204385
0,109610569675708
0,0996217190772981
0,0986139998942553
0,0986784849781583
0,102444065936756
0,0983848893123508
0,0931981819521799
0,104708963289211
0,135958436388298
0,109502929068096
0,105390654603699
0,0937529613962374
0,10443003419388
0,129336658106639
0,102110443125799
0,103449039895275
0,102566363742049
0,0994010344929584
0,0994288011130656
0,0969022125773858
0,102474179585854
0,107004411945124
0,104465939682599
0,0971518489571689
0,104181532320899
0,0970648676099925
0,105576530387586
0,101534986605692
0,111381453566773
0,114493806274961
0,101808556501357
0,106467457456921
0,107807286854411
0,101155848794547
0,103943826001423
0,0993649933357274
0,10090127300487
0,109748005108273
0,120239838010209
0,103100326605588
0,122194606617015
0,114817725703704
0,103755253361689
0,109023608826925
0,113303661344444
0,116111555390495
0,0985202871836784
0,109916351545963
0,140321805013243
0,118028399633383
0,131628657257675
0,103065442817616
0,111440243222739
0,101910434368228
0,10864465209554
0,0936902840347508
0,127035038579162
0,107773311834101
0,112316874381758
0,101683184190962
0,119133314342263
0,120101520879722
0,113719175513014
0,108885790788335
0,108300917528114
0,105015798076862
0,125422340053865
0,114502209248592
0,105919135692132
0,141708479227038
0,140708884064459
0,138128811096611
0,120839521280353
0,106937927847138
0,155514210843971
0,116867877269197
0,119518712540096
0,110421383526138
0,116285452686289
0,111045983873593
0,11446466590167
0,147474553831115
0,127184052425883
0,116697453639784
0,123650919127956
0,110911847571287
0,14932977403276
0,131554104704596
0,120340602347571
0,116669728490873
0,126665852106945
0,112505790872892
0,166361335605651
0,143835539151824
0,136773077507978
0,159619014024718
0,143372632072807
0,146624917918061
0,135960251219815
0,129304179912293
0,142697461040783
0,156784720832891
0,137723644304418
0,124620121712578
0,144204135565232
0,163094852294506
0,133979871569811
0,144482701851494
0,134539851396268
0,136606171174373
0,170992142532657
0,207963784781325
0,175328684743029
0,148579777629253
0,142786557682979
0,170433344938712
0,151708776185697
0,142396860052882
0,144707932744332
0,143153737768136
0,146909999624677
0,148502922164259
0,164043877020871
0,149133071881764
0,153433642324565
0,156059839163165
0,153539562795894
0,179565727755034
0,215239139743157
0,203645941029029
0,175584501213772
0,198966413892654
0,194347139337039
0,177303857640718
0,17588929417394
0,168516034930987
0,184168844298155
0,179624323314207
0,179684436715938
0,173657920350816
0,208115677053585
0,202236686744378
0,202349997507634
0,22479579519487
0,199751671261612
0,20242821313389
0,206044219435211
0,399512872789541
0,247160927851392
0,229043408570915
0,223641067775192
0,226354495450419
0,306573327512967
0,246010191485545
0,231709375100098
0,238328276351506
0,239136822291478
0,250137268589023
0,261468900421129
0,262453201834583
0,284795665926352
0,272194579427114
0,271512094514609
0,290302890442627
0,372290747073534
0,361260991482201
0,324225838154777
0,302320735782292
0,327189290494777
0,335618639140221
0,321688563499875
0,323431785266736
0,324668141002807
0,337339120780903
0,406393925606832
0,361414401858064
0,355311441382043
0,363857651270561
0,396216461423332
0,365028764931947
0,423094950272189
0,430163022607396
0,400358484411031
0,398497126907474
0,399406772172854
0,407709321065332
0,404981170503338
0,450169503915203
0,445618971716183
0,42949510444163
0,437432222120326
0,438172100040903
0,446483962320492
0,449418554386076
0,461398283830823
0,452899587163761
0,501679931105521
0,502334181801636
0,636594199209901
0,532357659165545
0,48393524742117
0,479345478044637
0,48109911999766
0,523417782304857
0,516506984680835
0,542083799529315
0,528976261554865
0,488689129644538
0,497781054573061
0,496456562011273
0,494944105164253
0,490318853520099
0,500223026228515
0,489727917237233
0,514812536064948
0,503680915598718
0,5152368515269
0,585164810921371
0,505097334156551
0,492048246175527
0,476368282433936
0,47482408185446
0,478760151789066
0,473943978397744
0,466129929306498
0,49308637247212
0,456718380772129
0,46060659597548
0,449214634001636
0,480003167960653
0,499691021555347
0,444539152094221
0,437795955056316
0,426039487404183
0,425384130918463
0,410401807037954
0,41949887942011
0,476041475153019
0,419849744225403
0,397527075929057
0,399826308050461
0,391813573332508
0,389855236181895
0,375008596375352
0,384944227006062
0,383439592029182
0,369951420311846
0,371140457038084
0,364344347129693
0,353664541089385
0,354423438735575
0,354400880840426
0,355278058029947
0,347388756550086
0,349052249647523
0,33708399154587
0,344780619122882
0,332860776105738
0,335148881418177
0,335304271219997
0,343833200716268
0,33373330702994
0,323665784454995
0,320976845613634
0,326068669634809
0,322233375504595
0,321887207662363
0,316968391621771
0,322728917271305
0,316366088704746
0,317085879549834
0,313128623411895
0,314538432102639
0,314652542548939
0,3128455575319
0,30632956736241
0,311853166504694
0,302679570086249
0,307468747931413
0,304810516388121
0,357299814809568
0,3446971446476
0,308292489505617
0,306681425506807
0,298637626047531
0,29734677666059
0,298811190748147
0,324306503929711
0,338598023215009
0,304110983758923
0,294622055321466
0,289279530270327
0,301346427872246
0,29993313547028
0,290067835484599
0,283251023450488
0,282086781267409
0,307724238460699
0,389294298411194
0,344544971375672
0,405398063371549
0,310398743888962
0,281532862243431
0,292088482037201
0,328020971757711
0,287446571276376
0,273901168256994
0,276651587902313
0,303682473866373
0,29659733143403
0,273453768284058
0,271113128053274
0,267478616604028
0,290083322923052
0,306690211565413
0,281969968611686
0,290477966407047
0,3204123253789
0,297355233853804
0,321914567062322
0,366853926000013
0,305414027826423
0,265950400125551
0,260615415575332
0,260449497321624
0,269123130304466
0,320578714823465
0,282382182219823
0,275863559022155
0,256979189270495
0,251654681278144
0,260629843147522
0,28467548256486
0,27546206707836
0,263351764034572
0,291788901204005
0,261990586247847
0,253123371022752
0,286641260394739
0,295040111012693
0,329027809845668
0,26630696499745
0,252722018022979
0,282368588657828
0,309848231091579
0,273727180493348
0,272434087111748
0,252307546031835
0,251407189268411
0,275187941776366
0,25555968772455
0,261292518263014
0,274724612071553
0,279568365197158
0,311331346382026
0,32509736519414
0,318110663405443
0,261514287943927
0,248660714416967
0,24884118395997
0,263086785076966
0,249604246564484
0,251984448509588
0,262593703020458
0,272909196950865
0,258227713859725
0,3026161669125
0,275688407581837
0,265789961020121
0,265363111447497
0,260265870223852
0,272883245648614
0,312471799434727
0,320649207632041
0,307089723143893
0,286427846477202
0,307010552480653
0,294369006281059
0,296832671456324
0,294356423032536
0,295918087556169
0,298619971632021
0,317218708519224
0,318988538403096
0,319332496567688
0,324553901086352
0,331373383987609
0,360710589083292
0,38399482034242
0,360627982011231
0,3792740534285
0,418279533815207
0,425684298246073
0,415888288353046
0,393311565874421
0,401333365762467
0,40816311536691
0,419915462405996
0,426439775029491
0,439129566281451
0,479130711823143
0,460119212495412
0,453015224826603
0,462142976024507
0,460711610922587
0,479505508112994
0,506834756152288
0,524812394590842
0,529533532183036
0,558773573761153
0,516868310322963
0,508127068806002
0,503602591422224
0,510828490134929
0,513808294457656
0,505949316560866
0,507268242857578
0,505777740237709
0,528826478230736
0,520025872348366
0,506284762890068
0,510571776604703
0,506400715163178
0,512563011609898
0,515379291262795
0,518889752237174
0,520426533566242
0,52124959255213
0,521867659665719
0,517067636822491
0,598649123947589
0,575665595577572
0,533466192245298
0,543562571819685
0,549834536669928
0,554839735127982
0,546505022287715
0,566800289490991
0,569721433025953
0,556657000810798
0,562643613904056
0,567151593037329
0,562971400392461
0,58320916357589
0,594098243416341
0,583379219123576
0,579554718638011
0,575198679025975
0,584100262460983
0,651822537659856
0,611079063926143
0,609263766625208
0,604590017937861
0,594740830906578
0,593427444539913
0,588136422126787
0,599786573711602
0,600311234126624
0,594812126549881
0,592430589064116
0,596368111162605
0,596747014425504
0,594292358487795
0,58813051819833
0,61242577633591
0,607268470835632
0,579543486632841
0,583506947141275
0,579640908828698
0,573643701404256
0,596784384367243
0,594771103292749
0,579848193259115
0,582522180811751
0,57655557277227
0,59425330619523
0,590589609114286
0,564637703946989
0,563173742022302
0,57328680085076
0,569865761493074
0,57253032011169
0,570942713002328
0,602134005007129
0,593074278039524
0,57987986271017
0,587401061606838
0,587665053809707
0,597060101201072
0,601746653358722
0,604512549626499
0,616407827883207
0,617874796867408
0,616543753626669
0,628722814874119
0,624157614957831
0,644843362020343
0,652494658298498
0,651666163564548
0,637643466590123
0,643520726958983
0,648468113292219
0,645006621946416
0,664379869221018
0,663933691941319
0,656636190889955
0,647427967909654
0,645031926090654
0,654941969080806
0,681140617482578
0,666361889217611
0,646970551768393
0,648721434413336
0,633408817165921
0,642155221290265
0,636748678971824
0,643223764965058
0,627814040573037
0,636171243950183
0,629002756817669
0,628496190900017
0,626296525134999
0,627887657919151
0,624218155830175
0,629997447417922
0,623616984360255
0,623844079720767
0,618852832443849
0,615658818889081
0,61514257212572
0,619825775711659
0,610230315904703
0,610508181818625
0,622984664644368
0,637373829658214
0,626591324368043
0,629804240874785
0,617355657884168
0,62000080239842
0,610389524808399
0,610130736391483
0,607632367326775
0,607752348685768
0,604660594530779
0,601918531679765
0,594461547068224
0,595564355869695
0,59542848390697
0,596598105176932
0,588287913037881
0,581018285809267
0,582611229798962
0,570065333681535
0,569044605254197
0,567913207418716
0,564385938240922
0,567039806535222
0,565215086587202
0,559762232297888
0,554234579834985
0,550962618251866
0,554461328390262
0,550743803427433
0,546229829141319
0,547534892581997
0,538050546735024
0,536512438758007
0,536671924231978
0,531973390968232
0,536356606082198
0,536725366493144
0,530392169061675
0,534011477193568
0,532723861667143
0,529699707480363
0,528216818055603
0,52595743910002
0,523179229490876
0,519889023588341
0,51717298740884
0,514611359932527
0,507131352114331
0,503057186101534
0,500769098509821
0,495769879178767
0,49098139207116
0,487337161491886
0,488261605084446
0,488010497456449
0,486654735380526
0,486423353012257
0,47475020126267
0,470191265162201
0,471140032803154
0,473925731501385
0,470557180110354
0,469347222238157
0,467918074979975
0,467028258266467
0,463662051813043
0,465319601923873
0,467614080055459
0,466975971160028
0,467573024622278
0,467496099362058
0,464671871171544
0,468030064071552
0,472513084590056
0,474179821124501
0,469647139280069
0,47564875388457
0,471609300416175
0,47201327288365
0,472416476353661
0,473575297499241
0,476271551795092
0,481545950948458
0,476732727791669
0,479282294720258
0,480171529856296
0,480515898852946
0,48116382468695
0,481468942698517
0,477821740237445
0,47988824401194
0,482407818715887
0,480231308701082
0,479205414141582
0,47895881478691
0,476975024642153
0,477790225774607
0,476522688966633
0,475061375873016
0,475480440884244
0,47957242646471
0,474041341825382
0,471365439403333
0,473167560353402
0,473137753099438
0,472651717292309
0,469910651825122
0,46886785438785
0,471057093525112
0,468495412598824
0,465864955758876
0,463543625145334
0,463319812705884
0,459922124165823
0,458514178593641
0,456148390445051
0,451715644084318
0,447637912568683
0,44816995287927
0,443652574263258
0,440434586759097
0,440471902700426
0,434763506827331
0,429521580347161
0,425689420113769
0,419448505732722
0,418971943906668
0,414866225559779
0,406793402404925
0,406903791217343
0,402226421908759
0,399010402871578
0,3984842134197
0,396105958895405
0,394400759769567
0,394057651935218
0,394997266367142
0,393904773006654
0,392275812603261
0,391481230109453
0,394364552047839
0,394058509394523
0,39504168017644
0,399805748042558
0,39994708990774
0,397051730026097
0,396759709187202
0,396866126721258
0,392363852953924
0,390146801588475
0,389482678923135
0,382733219288086
0,380367251781419
0,378121282972083
0,371874785150197
0,366085724059957
0,36047816080154
0,355206004539662
0,349902129817995
0,343995414303075
0,340537251473009
0,332268686194659
0,328616776205208
0,323713438932316
0,321981466808477
0,321110407477994
0,317014064231979
0,316936249717844
0,315928799459287
0,316223144893787
0,323296672359555
0,324378487388884
0,329791381853677
0,338284106368582
0,342894139945899
0,35122517256688
0,363861973049266
0,373995855022157
0,382484539985406
0,396650403531087
0,411641589145624
0,430188997257893
0,453199818160578
0,471713345642675
0,496675618257717
0,523010224491388
0,551924391089872
0,5774143128774
0,60898272827578
0,644444485604897
0,678779547273052
0,712838865259112
0,745445887209277
0,784874522836475
0,819473571149352
0,852176220244
0,890417526571065
0,915345026207671
0,942802979999523
0,970272392531752
0,9927004673104
1,02142245209343
1,03668696871064
1,04242870117116
1,0645585133749
1,06030018776423
1,06963425125374
1,06482440303062
1,04859666195043
1,04601670298275
1,03699597255956
1,03173639895653
1,01828752461996
0,99012641490756
0,980676866751566
0,965919410368013
0,941087052947417
0,932136412439803
0,923839569437071
0,911939571263206
0,897189169084567
0,887816085967197
0,887190343576506
0,887715293785514
0,882787086565481
0,882516246195006
0,888649658301598
0,890532209186018
0,897052758316764
0,903840278553346
0,909456141667665
0,920685880269837
0,927709719753792
0,934339236391742
0,950932990554732
0,950151770449168
0,957841930024766
0,976140269231116
0,974043288893058
0,975424747486112
0,982654737974205
0,994291968137087
1,01125276028057
1,01367920495744
1,0137302186944
1,02939983548336
1,03263249542188
1,03634321216054
1,04309214482045
1,0495709274115
1,0559286293612
1,0455429767627
1,05930295165405
1,06273266094095
1,06488930141761
1,07073311924069
1,06792919471156
1,07897538049667
1,08402352664706
1,07023785714427
1,06578877376255
1,07323377687742
1,07351735245174
1,06977762050123
1,0760900905124
1,09347341195743
1,08711663397993
1,09305907394265
1,11294347259157
1,12628669442979
1,17566333993742
1,2058490329236
1,22049816479296
1,25994685389324
1,32754308327294
1,3443516166278
1,3779955849278
1,41299941654721
1,44000318716046
1,5110576924338
1,50312558179841
1,49923253035552
1,54210826882098
1,54988721948536
1,56813606315708
1,59455793066507
1,53599974307778
1,50553286205922
1,54917711796987
1,49484951321775
1,48142101135559
1,47782673516824
1,42641212038052
1,42628239042315
1,40792900638224
1,39026152816858
1,41909328885596
1,42426141875547
1,42067438192237
1,42000661433503
1,44545480170744
1,43987085189364
1,51054405162951
1,5222385990557
1,52730205475402
1,56548282596248
1,56424379843641
1,59110060311581
1,58914895117034
1,56246060300327
1,64100729232192
1,69849708538829
1,67517194357052
1,75680076993769
1,71986929865737
1,68682133006503
1,78738980291572
1,77938968384322
1,88180965040969
1,8586716516779
1,86309755061318
1,94917961334153
1,85705718957293
1,90703108698116
2,03442922812397
1,9870467730418
2,07532253853343
2,26175755109517
2,14229536797878
2,11892710111859
2,37348634283865
2,56300585280508
2,48313269311912
2,25108905410985
2,2982950216755
2,47212348881428
2,3812046763849
2,68326668692403
5
2,22202254382184
2,15877230214135
2,3770446692305
3,46906334443109
2,75913677632743
2,43139378034455
2,35372134842315
2,85239241575084
2,47367833078597
2,44556072091994
2,77173633305377
2,41575764199571
2,25133767644653
2,5832902990959
2,55795962168275
2,35074453032121
2,44347887302875
2,40687212497789
2,29663900432713
2,35055151590649
2,29663538822599
2,23734041590479
2,39651274271054
2,44315696171969
2,09541047783815
2,10375433227097
2,11893141963972
2,43295887821184
2,48893903387145
2,18043812429152
2,14053011437888
2,19368193348452
2,28816871938243
2,08779740919314
1,9116612418955
2,0530896051778
2,00238582785469
2,0329289043126
1,95787390458892
1,99267220672449
1,84369416529645
1,76873320211108
1,74788586774944
1,72780104956663
1,62002965884947
1,58375153584673
1,62558237392468
1,60228217770191
1,49682554569078
1,49094990994919
1,41660405846408
1,36517382559021
1,30639639169486
1,2579147965995
1,20938353597886
1,14601555873426
1,11126464298261
1,06766852963874
1,0113566165469
0,987990422634904
0,948858002381284
0,918211194660728
0,882461330582792
0,864963733480836
0,836286917883961
0,801085826190466
0,780402482954275
0,763899586267935
0,744220614303168
0,728277993757403
0,71364714626567
0,710251617684311
0,694823333773016
0,68567663144685
0,671084545677137
0,661210423452797
0,662952689520591
0,655635257960249
0,652896062673891
0,658746458528351
0,653616194413989
0,649149303174751
0,659153384922838
0,668498622439068
0,670197518292491
0,689309711258329
0,695737510074748
0,696334940733206
0,709416702825554
0,723753225000665
0,726350790989347
0,749675289934426
0,749344128544631
0,761178789937129
0,762527094909519
0,77479858695454
0,769722219211777
0,775639855581393
0,775120611187783
0,766694401827583
0,78373691021364
0,783911497335873
0,78398707281174
0,802903054180361
0,790105611145477
0,797330211407333
0,788654982429459
0,775476440231515
0,780383806141084
0,771548756879773
0,764129144582923
0,772075718317297
0,760050272031331
0,755165259354253
0,757500776880559
0,744664527218592
0,740224732368611
0,741206097219654
0,711966455729988
0,708588437864969
0,71107697800388
0,699471389471302
0,69732882635398
0,697889057760762
0,685904433034629
0,690492001313751
0,677369599567589
0,68357544052898
0,686738679996181
0,666164893104968
0,679215164192121
0,691260188932465
0,677827698203386
0,687164659716395
0,677099305362825
0,699471396834133
0,690694246307174
0,695558182641101
0,709386108427296
0,707074524648853
0,693885282666802
0,696755108977367
0,698292871096217
0,682060386159796
0,675876054638466
0,687865167025784
0,659025469148613
0,652407857999465
0,646993238657282
0,644240616686906
0,628640010000776
0,635849705029078
0,631640260914813
0,620956710554554
0,625892750569453
0,6366782130319
0,62570537582969
0,649760059773785
0,644715080128709
0,649646910056627
0,651389341925825
0,661527171384606
0,657077659913098
0,671630008164926
0,687582812669299
0,685181484456344
0,676697138531507
0,690239703812448
0,701289146199488
0,685558252818528
0,703236220236067
0,73096846210328
0,717297357786011
0,719923178559683
0,725572714836748
0,741862975971035
0,737585917511459
0,748917377878862
0,746639099177928
0,746404810125444
0,740408079289963
0,74495129858043
0,734247620915351
0,755431286786047
0,741493364072809
0,743510006392828
0,756242433094236
0,762537253989949
0,759630038366761
0,77556384702451
0,776163312537139
0,763206607954088
0,74946596134602
0,763831191060556
0,757095981885346
0,779364296895264
0,75978171674098
0,740755226826822
0,724750450374842
0,746236066315747
0,73758646004529
0,74729976097486
0,722475574714051
0,720383789942659
0,723719019167582
0,716207819840029
0,68549517247817
0,698165233195611
0,681014837627712
0,676606999677013
0,695857642639485
0,72645541406441
0,710614852309313
0,694311742625221
0,673212421902564
0,670412451666812
0,693388930236928
0,708590476981428
0,69641657677298
0,700514114136092
0,684263839854979
0,701143132024863
0,708315186431023
0,710792919019214
0,688180545369235
0,700911149536668
0,693921518335362
0,71732107466667
0,703538375305314
0,734928494386714
0,721806953123063
0,721837153031734
0,710586527147509
0,740592277817269
0,729243552082036
0,758210355101891
0,73856853427199
0,733769503536478
0,733243481956938
0,745961834221224
0,764353224315748
0,781872267005094
0,771156342769343
0,788577172527744
0,798605183060576
0,807335380556345
0,814343345100806
0,875527737948191
0,853405919448379
0,88759988688525
0,866985407331107
0,838798326796871
0,82656842736135
0,870744991507802
0,867975343921706
0,929106217226932
0,877782519486989
0,916528685456662
0,917334204038528
0,942543734422103
0,96494009479582
0,978013921006558
0,899725553453653
0,971130208483808
0,929975127105622
0,91603566645305
0,908348693045012
0,973502962201417
0,996207440678356
1,1131247625574
0,978366357303207
0,976609418099793
0,983594727921436
0,997064990805772
0,916968815764236
1,07227815231503
1,05132797929101
1,08613637867993
0,980874373320583
1,09173694962881
1,11825770160353
1,04049352244024
1,01417781834164
1,21441456814986
1,03782730201855
1,01322848312282
1,04995657297563
1,14598997053346
1,06520419872075
0,979926193300643
0,95456766579482
1,13973928336418
1,0066161717712
0,998243350780088
0,973164045396612
1,09052813910554
0,970326317833067
1,07607767955864
1,05730831010306
1,07701862126225
0,965450971590475
0,994212248570552
0,938486054310024
1,0014307022832
1,00971401148269
1,11177638954425
1,01780364446792
1,00780947223272
0,974045876902121
1,09434725518811
1,03024267552333
1,0120637075936
1,0778685855994
1,0728151465279
0,950055025016332
1,03050849322265
0,989217725433342
1,21283163264384
0,990831410332153
1,25299953373475
1,10077125342966
1,25581785477626
0,95172947568658
1,22194291655206
1,19899545154164
1,22499302496091
1,21648980343436
1,04027369205553
1,04544130348559
1,26781899242312
1,06764273063454
1,20632487412044
1,12737578647351
1,27348846987719
1,06696029773201
1,15600499259136
1,23232057014506
1,20258719512018
1,0502988112485
1,26066532397552
1,15967859992662
1,12548712481131
1,14228792212719
1,28297168870035
1,42059915612591
1,26138769720233
1,07209645762551
1,21446636995812
1,11687902032343
1,84315462871671
1,23006167773714
2,86975509786346
1,26285908798286
1,19148799986075
1,07587537349001
1,21963414222512
1,09725490128415
1,27061371654104
1,2126034886209
1,58949788486653
1,24973093220046
1,77355544653238
1,4198515978344
5
1,04507796000709
1,34918568441206
1,45742023390869
5
1,0394674687833
1,01663380831726
0,915941749017535
1,09681322297627
1,31176374546535
1,49767578604253
1,47227305198519
1,18015091770681
1,16072089716964
1,35330767115952
1,87384227864354
0,984866589966764
0,940378988086954
5
0,920488572928878
5
1,40452052234308
1,4345159871949
0,763376174192748
5
0,914661821988367
1,09414293283214
1,98812543917493
1,2280049475456
1,01839351702062
1,06835086493758
0,595003877696478
1,59416589655657
2,34244064366269
5
1,45393025635589
5
5
5
