3596
4000,36533379555
650,420452594757
1
2
2
0,0349530079808284
0,0202821717810454
0,0207524773128898
0,0238127602426189
0,0301411768526944
0,0176503621929555
0,0316734601974904
0,025575799931414
0,0306518794247889
0,0213507090143389
0,0283880859605095
0,0226998591759981
0,0233440795059571
0,0154982670728759
0,0248501573352146
0,0250562890828846
0,0200758406384415
0,0246363035322935
0,032895213104069
0,0182189045985518
0,0242887332106183
0,0204813460688035
0,0261643186436753
0,0209625429868803
0,022187479521033
0,0249202599433486
0,0311428377670283
0,0191592671996845
0,0309689207823382
0,0269080120288954
0,0267211375214654
0,0205065726870513
0,0265789304760623
0,022484492876454
0,0321246436181028
0,0197688983163467
0,0281424244109296
0,027262797594391
0,0315925523559894
0,0216128977834648
0,0240775304759498
0,0208500149255282
0,0253762093056754
0,0226965745526299
0,0271146367086994
0,0191015521486094
0,0288571923176686
0,021088513832861
0,0186877052865285
0,0207530191945167
0,0400410712554908
0,0227219143323292
0,0221588555685698
0,0247201734843297
0,0269359973706745
0,024771480524999
0,016252408253113
0,0151388516758746
0,0239802922032953
0,0213014803973602
0,025353302567739
0,0302091552104226
0,0212323340963375
0,0242455947750663
0,0288015760429961
0,0198899985026493
0,0166048125738467
0,0190007390852452
0,0231809521972273
0,0216422873367652
0,0304276136733174
0,025212074818758
0,0308701025685249
0,0212796046744771
0,0284416929424098
0,0147198519708226
0,0191946872352655
0,0192408278361573
0,0285247508744778
0,0195282359229576
0,0308605140711143
0,0201645762181812
0,020512114676674
0,021291892855539
0,0235625789156673
0,0228502454676594
0,0229325468056558
0,0186348527729693
0,0335258436297945
0,0233571967108258
0,0276036206058426
0,0178369138081494
0,0283623544830011
0,0199066434688853
0,0205741749180803
0,0135408465381652
0,0193066797466548
0,0157845613931101
0,0251233363028277
0,00960193992160238
0,0265858614552223
0,00922890680462421
0,0446051165644006
0,0175416059114747
0,0305019668528478
0,0170600533287869
0,00199017982318828
0,0294329609571938
0,0244050622217663
0,0245041986283214
0,0243870116320939
0,0176470212123073
0,0233678043785001
0,021412751456911
0,0228277972897005
0,017740884733303
0,0388920408841762
0,0169557972772993
0,0232065949022273
0,0214716416115878
0,0261334908217421
0,0138973932429338
0,0355777644601452
0,00862148765079412
0,0314520052022988
0,0154038219837044
0,0263293678015042
0,0237405954469266
0,0380077988269969
0,0188148148737516
0,027917295109362
0,0116325760139591
0,0278701763203371
0,00970063815740463
0,0363207650194485
0,0160431236259881
0,0212109916109522
0,0206726548005854
0,0328735577600271
0,0271017787154276
0,0176175226024826
0,019651374877368
0,0244427274439669
0,0120088611508154
0,0339823467701781
0,0237827993152552
0,0233250660682084
0,0235258558214277
0,0248835902766683
0,0112633058875489
0,027745032773147
0,0118966149035802
0,0265524752770535
0,017138233766281
0,0181569272617323
-0,00133077761711825
0,0448068188930182
-0,00702147739981884
0,0479716744614197
0,0102287278101048
0,0223749467609721
0,00882557048750598
0,0248983963667864
0,02312265379757
0,0297203082442875
0,0149074590742853
0,0197809440443014
0,0258653980247581
0,0111963147490752
0,0163133956480422
0,0333163085282038
0,018221659104642
0,0155042607616771
0,0277481594725002
0,0322337662265005
0,00841722234012246
0,0334237933419224
0,0215869896678447
0,0239751585298547
0,00333441271789743
0,0326414799083431
0,016193350913715
0,0274922560819781
0,0175968720845215
0,0307505236708487
0,0163272616480016
0,0234888120402093
0,0158247899363071
0,0237699848678794
0,00915878609605563
0,0288929852003286
0,00941046817288294
0,0375646297021792
0,013695356533178
0,0213637540051171
0,00291044358495251
0,0252433867928161
0,0225872385267579
0,0225427640123431
0,0137470390493034
0,0220118272732387
0,0193661166424196
0,0242767357490895
0,0141512639818736
0,0312299172540247
0,00755920451013622
0,0369908334440684
0,0229239039002692
0,0283543841465
0,0198510250360283
0,0254891504847377
0,0135735468772736
0,0285526663207795
0,0271061485093657
0,0247587535907686
0,0200714896138258
0,0166497701925236
0,0191373213784915
0,0223822609477283
0,0154536751426598
0,024420293528813
0,0114074248794561
0,0269308702622472
0,0171711643335976
0,0191789665137499
0,0219369179497141
0,023422097699076
0,0211355179955288
0,0268755022911654
0,0158130634205246
0,0225999350950882
0,0214186110620981
0,0205663229299848
0,0231006196067369
0,0213926673018194
0,0169388515562994
0,0364503589025362
0,0152335962636137
0,0273118465037207
0,0151128847164071
0,0272837216982449
0,0219492854276248
0,0269875665307815
0,013223700635361
0,0290768355950203
0,00171844901756482
0,0345499476531801
0,0175635216886664
0,0203957471856531
0,015464396775212
0,0314213741083702
0,0207332382687994
0,0229551235875242
0,0256788006938983
0,0158417849076491
0,0177447885272937
0,0203515765535878
0,0333538093987739
0,0254542789820354
0,0176848981803772
0,0203516931988886
0,0224183238287248
0,0161873779850338
0,0165336966861381
0,00928613030349055
0,0353448449510664
0,0304888131715844
0,00717594752709595
0,040721696833346
0,0202109749516366
0,0237000479814177
0,0269599016538575
0,00408729308805212
0,0365364860593906
0,0245995506502253
0,0198016659876795
0,0238114706454762
0,0185312819409879
0,0220952328888284
0,0204089353364378
0,0252697774983057
0,0122423110967596
0,0387430341417345
0,0048693412588881
0,0346175507430688
0,00503452631141972
0,0331562412824794
0,0292524993592575
0,0242492963394157
0,0232029065452046
0,0236954274188137
0,0240672790621092
0,0246059301716418
0,0276475613125584
0,0268334394803452
0,0288760073238243
0,0215337657753775
0,0364849544138142
0,0296775770826658
0,0269033291706659
0,0240002118018201
0,0313018564019111
0,0215753997776964
0,0217436515775591
0,0251697763546278
0,0260076433919715
0,0304685466166967
0,0179830072718241
0,0368218157147618
0,0269626766561989
0,0221288456169255
0,0329716593729129
0,0236341831383043
0,0279220094818833
0,0253851099839268
0,0283755925499232
0,0221323336938854
0,0269822234715291
0,0201026581644495
0,0294574849649591
0,0296677962282235
0,0238843395762704
0,0329366510090365
0,0246195380308863
0,0296168795857174
0,0258850167671019
0,0318584749414485
0,0250952857334071
0,0331193896800553
0,0238791200282286
0,0327912386919735
0,045769069573186
0,0291221739584519
0,029961232584295
0,0454558142287518
0,0212834183833485
0,033988463536362
0,0263467083000124
0,0407332654448547
0,0315618092919281
0,0395943712745494
0,0320699172947794
0,0332064306407463
0,0377752420800711
0,0429477037362394
0,035411801369137
0,0319897952816467
0,0278062236322031
0,0542049374928426
0,0303404319120489
0,0432143774917122
0,0315708226431424
0,0449833884742127
0,0510141184572733
0,0421230790673957
0,0541940454782557
0,037710327131846
0,0471625964546642
0,0463644802535725
0,0506477351012513
0,0491141417314274
0,0473995113737318
0,0528255190786374
0,0526147997370099
0,0587031108935274
0,055747259886359
0,0550603025206602
0,0504813582978783
0,0635024056554242
0,0566280947271986
0,0607814339926277
0,0590872219998479
0,0551003693620589
0,0707404189291474
0,0690232015115655
0,0528745885696353
0,0822940512060407
0,0553832112609549
0,0865499598262509
0,0656175251044988
0,0764413662072924
0,0626126798487395
0,0813294380621135
0,0733919593994881
0,081053996328659
0,0747661146753106
0,0831538847784095
0,0765715902099806
0,0910428572653706
0,07136295405112
0,0885627360160731
0,0770672457279648
0,0965694042296538
0,0861209407563675
0,0982703702656461
0,0841193125779664
0,104363629111085
0,110462845719809
0,114014137069645
0,092542853765727
0,0997088936063734
0,099071455342708
0,0969017190224547
0,109270940208014
0,109585300076581
0,114578293414896
0,111438434743692
0,126242316410984
0,117727864180527
0,0995763366144393
0,123225031755664
0,108047210118457
0,126088546995673
0,117513430999916
0,128994600215699
0,126756313607133
0,129399017867027
0,123733132128979
0,135806675110365
0,133343409909862
0,127934424226551
0,146084884109364
0,132084148780046
0,143326950484468
0,145188812629478
0,14135538072017
0,145445632756053
0,148241794391913
0,153275051936686
0,154372659574651
0,161521010906512
0,157745129088439
0,164881678464357
0,159878736710824
0,169153472203556
0,153871839982046
0,164523988442015
0,158100702385168
0,183539214580723
0,171080893552216
0,190940821117334
0,182326662055613
0,170220359646158
0,18086885252379
0,178192335863594
0,189638687081971
0,186676748268882
0,181349114899603
0,188865498412566
0,187778590925127
0,205998338894101
0,20973226555381
0,199998597599887
0,203211156878561
0,205406720528237
0,208141249641199
0,230562731990883
0,214122538791864
0,22187572291838
0,210352757089291
0,223035797026805
0,226264125407127
0,228849486359619
0,232564866251815
0,23451758000765
0,233984011131314
0,222740872337422
0,234913046162592
0,234793381712969
0,240207322572497
0,254523523224267
0,242741434812746
0,250714204062268
0,262348353172352
0,263638780471267
0,259611955297072
0,267526544233423
0,260929566852401
0,281145942466263
0,27547840933175
0,285736462073131
0,272607009032907
0,285781602905034
0,281949554319836
0,282685121481365
0,281634079835835
0,281374196414506
0,281378740128128
0,296888254913878
0,292323544954999
0,308576256619515
0,300001225033017
0,315906200234162
0,292318630639142
0,321633310402363
0,322968478321176
0,324353824525898
0,326462803444921
0,318791308182825
0,31874484121102
0,32727204960267
0,331786552805613
0,359945767435867
0,3496878099778
0,342069146258979
0,342368888127877
0,350879233871112
0,340043030803032
0,35539417767717
0,363300410928824
0,364897622176541
0,357820200682277
0,36776971891604
0,352862465490439
0,381077628819379
0,367756330392106
0,373760369176159
0,388382900885043
0,393196644948618
0,385052202717646
0,399023744776773
0,373959422993806
0,398541259980331
0,399514757573503
0,407806860247744
0,398762004364214
0,40298403943197
0,401783512800405
0,42047981746217
0,408336942670092
0,412104063832969
0,41765559899104
0,427596705202889
0,421493856773279
0,451356064912774
0,441974523158424
0,443710400177997
0,417313819892943
0,439531432980118
0,452321567785451
0,454313982270726
0,443783539897134
0,457736735773154
0,468370631167236
0,471193598736552
0,476423801213403
0,479466164745578
0,453815427562663
0,486936276846254
0,475249804109925
0,470239351842178
0,473008742583565
0,486893192138487
0,466639805414378
0,495693403704314
0,497830824702269
0,491337152793097
0,48821335580436
0,516372299722009
0,496407627373992
0,51357468074649
0,506151879054165
0,506366814785268
0,507371464447446
0,546444734192733
0,513987249934892
0,518213867250704
0,544188684662058
0,528175167537275
0,513334063801509
0,539686027114043
0,54689251756383
0,554633631689135
0,537147965164391
0,545021207357115
0,557965327544422
0,555396557468051
0,549971623417066
0,594266886826158
0,567270477757926
0,572135281413241
0,559690572338231
0,579169729108335
0,56479557464676
0,568728838557726
0,588041395683851
0,586038269169362
0,578201263018118
0,614784178403748
0,594179730908577
0,590494236725234
0,578675817622714
0,597400180506601
0,588715394024838
0,599244700064289
0,596567965930436
0,619168455395795
0,611122184396814
0,613811086712069
0,603199041410602
0,599701698742769
0,597971578567496
0,608688690049724
0,614351644274864
0,63883258886271
0,633929100777244
0,672473085381981
0,652270480948779
0,646671561629705
0,642667369015182
0,661967437121702
0,654580063577303
0,686812371400188
0,651009730373662
0,667667042146397
0,674243305471852
0,669750463340292
0,681963063484776
0,693084081121683
0,689027248843776
0,697618247128366
0,675532776354456
0,67844260217142
0,694003462697714
0,701103220263503
0,682437699516272
0,723958743088475
0,703450306183136
0,72476335699491
0,699610295748576
0,702733412786702
0,691888397721452
0,700734808342912
0,695139306767451
0,71993133023593
0,749775852780394
0,744992490974196
0,709640702328025
0,747309878517605
0,710078291845561
0,707312810484615
0,71636680353354
0,736467692914013
0,72545739281564
0,755854249875775
0,74747760757834
0,768164360225428
0,751756221089335
0,764534858811913
0,777595991723784
0,766972650013158
0,740061157388386
0,783835690131351
0,75022725581722
0,767510024938677
0,774658634581407
0,790657908867881
0,764223685426325
0,799622661661141
0,784732142974683
0,796493184867837
0,777241363639792
0,76090514126037
0,752218687240661
0,775210158183765
0,792013735573753
0,805317720732524
0,7588234813749
0,816554748913221
0,808092818977251
0,80332844793797
0,763228962596515
0,777237500952693
0,778903582007662
0,825067132516421
0,814187657469417
0,792888717477957
0,799599550409036
0,812220680244158
0,807265177807756
0,8409332774229
0,805145735040063
0,810037706659041
0,799331802002131
0,835805618879951
0,845193315458164
0,837712141003089
0,795371649406771
0,801732188871079
0,820587429165149
0,853971380144553
0,810785799715439
0,849411815730621
0,834930228761714
0,846318563585735
0,803378235942613
0,80438292115787
0,841091279900616
0,861926297057522
0,826985332893933
0,84321431409538
0,85538446997421
0,86374134138372
0,876102963757674
0,862474741226934
0,831365392419397
0,857831214088407
0,833720783796448
0,832603504489113
0,865589689153662
0,840467192104144
0,804556551679045
0,857947273015082
0,848601460339375
0,841550533356616
0,846732274710503
0,869808943587466
0,87140764071696
0,870555532847116
0,842779303216333
0,862998513672181
0,854693044302968
0,861192556896379
0,863573583134516
0,854780506577571
0,848270326776448
0,89528118098077
0,821448327476861
0,838089213659401
0,846023677874945
0,845950632619456
0,862318742367323
0,849570464622864
0,826172167976396
0,876024448344525
0,858891484670366
0,853156483809925
0,844254342325295
0,883832628539544
0,842230865100116
0,851191685841676
0,865294079661538
0,862888173074759
0,853688198929209
0,865387409568159
0,878641187610389
0,870140256966604
0,8637208755559
0,874894287766743
0,854180647352623
0,876373043877541
0,867035435866171
0,865290479910531
0,86638453392156
0,8857968670628
0,852172842810658
0,881765180629947
0,863469934192719
0,850802811793227
0,847179019366366
0,882627914964896
0,854399338722961
0,845653129221915
0,852306553008382
0,891641307031163
0,846618879130758
0,87380946707027
0,862996233477789
0,878452835198531
0,865321982208759
0,869744175871392
0,860495738559326
0,872168217640606
0,872567027411747
0,842370945990384
0,859834097423606
0,889592132732893
0,877887987197793
0,894736815402114
0,841071502626885
0,866296175850276
0,864612789770011
0,870591683782826
0,858232358122215
0,887886003624403
0,858189842370351
0,846341736689203
0,839298574304676
0,87540906822207
0,877996051702011
0,854950246851223
0,863830200821154
0,871430960929137
0,848055339576874
0,84470912419738
0,848133977478691
0,86772959322071
0,839614962448327
0,853425253063448
0,863092459011626
0,854769008937562
0,834485004532157
0,830428441675182
0,822245976462752
0,850010995369856
0,833034292471902
0,851161469302865
0,850161767627463
0,844685940421794
0,850673826063979
0,858074060628226
0,81527111525193
0,838907120300884
0,824433299703939
0,83786982709509
0,82720526699803
0,827528232006861
0,811221577404849
0,832048090266036
0,830154317620749
0,818716792990494
0,816667144416836
0,838192646677173
0,829193449980309
0,831018131078401
0,806231816739401
0,814829144495073
0,847695580830918
0,837850498977151
0,782671499957437
0,796055328526935
0,794494683703222
0,80620721676009
0,803456094179209
0,804974305316661
0,795395125256759
0,801777760998654
0,771517410087515
0,805712152152835
0,793736782808696
0,799189335480732
0,797834151543635
0,774166841309059
0,771039055794054
0,784224638796166
0,767175246980118
0,770988879120246
0,752562573959126
0,779603095457997
0,756967747699791
0,756015832705349
0,762698229933237
0,779888593116247
0,769460566991312
0,769608673987034
0,771228794719827
0,772418963911057
0,733021840023689
0,749894055354717
0,759828544262765
0,755176494589223
0,745839683494552
0,757714039521484
0,732285003003982
0,747997042132845
0,72750255532978
0,734194745278067
0,728316075869433
0,734657314728436
0,717011383342187
0,72599234409384
0,718578464400122
0,71369038779185
0,70614014279448
0,724530333497032
0,697066361800283
0,701766256243589
0,702677039872739
0,716529799359755
0,692098704915815
0,706000174766065
0,696258858983987
0,695450830954221
0,682282183467777
0,691457497864403
0,680080359700194
0,673249282607195
0,673049368311537
0,680611467453283
0,668457878847059
0,670847550253747
0,665890815865949
0,660486859900325
0,656664366321914
0,653121213878704
0,647103641270228
0,659110581536476
0,647564029842631
0,646762075994796
0,632294904070534
0,638454107098432
0,630963236038375
0,633404272883205
0,629172827022234
0,63992595568789
0,629564830741821
0,627423023741835
0,609454515865332
0,615724924117151
0,610284033711099
0,61900494238548
0,600955908907846
0,600933048682425
0,603264491404685
0,602361795682716
0,586774621639233
0,594978740201678
0,590680427613619
0,584456789997313
0,581015143837358
0,589515344584704
0,57583877331522
0,591289325975902
0,569744875601265
0,579633165383591
0,570410501147274
0,566907445748919
0,565707205297514
0,561826238229605
0,554011234533256
0,556634828898948
0,556541037558827
0,554198841947933
0,538523604176069
0,550955492774037
0,547798151244722
0,550078197906856
0,540481319722077
0,529703193054797
0,522009484217632
0,527864309996871
0,518194201311799
0,531138706783928
0,520069151151698
0,530447168848804
0,513909583380593
0,508388256010095
0,506238752659721
0,510596817529962
0,498592736815825
0,512308417746142
0,502184683656758
0,499264090507038
0,495551663802501
0,496460416485203
0,495399294942292
0,485942239696412
0,477310234993814
0,483381792643837
0,479780315468569
0,488871111395118
0,47430470869801
0,467463968804545
0,470309112024791
0,463146126444073
0,45701453799642
0,463948441600832
0,452971727134757
0,455637493560215
0,451049274536357
0,460462098353191
0,444438657692055
0,444112909172912
0,447240602601835
0,446863243229278
0,434594182832279
0,441136353515506
0,434727550982171
0,433019295700354
0,432691024023383
0,432817709147998
0,417497768473559
0,427028128264866
0,424870916658778
0,427398898864713
0,418505127807295
0,41807377346544
0,416929879106595
0,409720408135532
0,409481975274376
0,410790905414625
0,40548369064612
0,403037227929282
0,401189395790953
0,40305654005295
0,394408109530021
0,395998672552352
0,390249116838831
0,386238439371159
0,385848044183963
0,388508505388635
0,382421804966307
0,387763997611194
0,372579153597988
0,372162007447255
0,374726186681515
0,373257868759621
0,368509440362241
0,36833497484763
0,361731426803521
0,366657649274995
0,36117386090329
0,362102739812707
0,361443521022596
0,364757935833789
0,348508562124063
0,351245868335943
0,346956461302153
0,353162892262711
0,347759364543198
0,34320138427003
0,336610022164268
0,338210472152612
0,337252270163951
0,333463666512854
0,328954799057587
0,331616660585087
0,327969187782318
0,330881518406334
0,322328766607107
0,326583555058527
0,322206234702343
0,322250628928586
0,322315784073271
0,317271777202614
0,311194087136787
0,316664140242661
0,308365854372912
0,309439500093269
0,303616800005293
0,309684417714328
0,305817581919808
0,304242131431128
0,299323461008694
0,303214337041548
0,298769651465423
0,292971411406417
0,287218178143417
0,290336962207068
0,282864868404708
0,289096110800234
0,287421704568918
0,28630225344381
0,286121458837746
0,285129393209103
0,276542398313102
0,277462384821472
0,274850732569467
0,275779418590871
0,269938986955419
0,269264988082414
0,274235807769724
0,274826619541424
0,270747162417741
0,271029750474271
0,264195987478033
0,273141113479293
0,265968564940195
0,26335125546289
0,259696685492746
0,259376050666981
0,262086067941312
0,257125366152477
0,255671547250705
0,263163612694141
0,255748675931897
0,26033949289253
0,255998536781743
0,257894628773255
0,254850768503006
0,260793541156926
0,253899425604341
0,258003084668271
0,258268720740567
0,256495267341924
0,258561352274706
0,260273248580399
0,250137977914952
0,259494656701571
0,255413260481201
0,263396915112281
0,261064319197095
0,258965475177782
0,25617912058021
0,263319818573484
0,261451906608875
0,263809788352493
0,265649405545108
0,267553531410385
0,262179601315375
0,265550965279069
0,269750900921445
0,27065073025658
0,270068932534371
0,274371218086102
0,268256346022796
0,270139091104756
0,275213245687866
0,278218563989983
0,274634857009016
0,280236695483514
0,275542069023642
0,27666261595303
0,278603185749289
0,286865449689169
0,282920663107488
0,284335473322829
0,287382503996117
0,285716797208677
0,283612930358195
0,298679647250327
0,292003653774648
0,290914865602755
0,295477392771896
0,298561266923818
0,301818028831298
0,302868567020901
0,298952935830078
0,308067214677342
0,30577943336641
0,313609846981756
0,311067650745957
0,314902330420008
0,313863553172299
0,322251907938009
0,316564227917488
0,320878414636669
0,326001416877981
0,329927971287621
0,330693286114497
0,337964086430138
0,32921597271956
0,335495163353238
0,33163123453995
0,342119547473549
0,336953249870815
0,339449954274461
0,332107082528171
0,34532329752032
0,342243458798444
0,344128798070513
0,341939544553171
0,337829707382601
0,334801707481148
0,344721569018375
0,343528122862564
0,34514324861362
0,336197048309575
0,345079812166233
0,343223255395629
0,349030759750552
0,348371529406246
0,346453394565884
0,338889026029078
0,338199173027665
0,333248225951645
0,343307784245469
0,334990553683812
0,34357448188748
0,339843716092287
0,334886948240661
0,339104060876675
0,339107707058817
0,336763092735297
0,332414048727347
0,332659238311853
0,336357555391359
0,335967732829625
0,34463362271919
0,335723724221434
0,339585591110231
0,340208433506239
0,339485196975536
0,338119952075106
0,341021573126754
0,344528453018172
0,341158710556862
0,337527410471954
0,341694295740406
0,336362170869701
0,346274656524037
0,339890927056148
0,340484318989066
0,337378301601217
0,345140158664249
0,338877895974715
0,340883501590971
0,335447195965891
0,340418200595263
0,338208039893896
0,343620031508482
0,33463279422735
0,33671648716607
0,335420716162588
0,332534730155321
0,330185438058877
0,338260735151905
0,330352631226195
0,32820929338555
0,328001486813045
0,328622848886827
0,325860174982887
0,327832454324425
0,323725261497187
0,325149067787989
0,31903247606889
0,317620568694958
0,312704736647055
0,310758642285565
0,30928339232141
0,308340818875546
0,302317890249437
0,303530948825754
0,301238192631306
0,300545374378842
0,295193328019982
0,292768751011958
0,288868123774817
0,290462061874058
0,28664661718138
0,286412374109268
0,27980709503011
0,280833305824408
0,271289310269592
0,275715734531379
0,270912451237828
0,270745402618204
0,265225158790351
0,265696312815571
0,263967362662129
0,261818110555404
0,25507837017052
0,256486594959863
0,253709993630874
0,254330696304482
0,251505461425875
0,251652308932655
0,245438150583037
0,241051417787147
0,243027150049625
0,242595545844564
0,235730899843048
0,23706582583213
0,231765802300409
0,23572965874961
0,235859730102089
0,237506532323815
0,232856490710683
0,232507049778028
0,22563555469838
0,229025740941705
0,223628322140331
0,223665850815356
0,221262845082535
0,221909781211736
0,218590886230255
0,224439665334258
0,21628892707376
0,214511744520487
0,213745890512274
0,212132896370747
0,213326404640144
0,211601612653536
0,210330534089917
0,214577265070842
0,212711341811667
0,20614885352326
0,208233759303899
0,208764320181064
0,206132386310071
0,206374396290369
0,205905098146546
0,199237945658968
0,198511757263219
0,198791506053652
0,19794349917333
0,200930883128187
0,195005787841427
0,198560629480359
0,196167552290747
0,198467812860797
0,196120005606982
0,198478216744086
0,189186184631776
0,192728938633496
0,191891191102471
0,193122889175791
0,188842146268208
0,190130463646117
0,189119138339275
0,190656084749296
0,1868716081023
0,184207783423341
0,178407999044168
0,181321887286367
0,180139806691297
0,181666615749829
0,178416914186474
0,182431958869567
0,178299749423814
0,179682711753178
0,177250173602034
0,1778597457869
0,179211104627733
0,178443369116646
0,174892851210347
0,175753303906664
0,174263827481522
0,175456695377321
0,1743467992959
0,174159405603131
0,16982881602561
0,171962797922286
0,168638919958965
0,170697099413025
0,168177675474627
0,169454709792153
0,164843335746182
0,168893168325773
0,168930888420311
0,168594592481002
0,169459319724174
0,170391113354062
0,164562093842906
0,167539187645235
0,166654038896001
0,167564687497491
0,165185182333443
0,167388817766346
0,158945982026423
0,162402500829284
0,163978082062257
0,165649435567343
0,16257338847498
0,160284025711635
0,160128615929007
0,161245225469535
0,160969297366696
0,163243784339291
0,156763383235207
0,156839419951613
0,155920890639427
0,160025273047107
0,158773865832003
0,157447764270765
0,157835250099799
0,157134573679165
0,155279947217186
0,160293260348446
0,158034403396073
0,158666165786452
0,155538548671068
0,157904867271597
0,15795314946136
0,158032282470757
0,152153934446741
0,156225912737483
0,156782787714315
0,156382716938714
0,15713056170508
0,153593677252243
0,148948236967236
0,152871044899056
0,151311099279085
0,150574458977505
0,151755692125454
0,152019160190037
0,150483380621311
0,153027320313093
0,149852845446637
0,151933248547711
0,151467766186575
0,151502565508212
0,149462100331208
0,148869475335079
0,148433788199247
0,146422045936552
0,147269881277554
0,147366083995328
0,144242409903793
0,145634606420922
0,14402989822117
0,144504512313669
0,144061210755524
0,148020916635979
0,143822048225029
0,141622976749703
0,142498990861463
0,146099233360347
0,142932094115589
0,141208471307794
0,13785728822505
0,139680893387787
0,138005349859839
0,139549718508104
0,134072543764921
0,138962925807301
0,13669698186556
0,138832738069119
0,135058448792898
0,135401014332049
0,133416679088745
0,134157644996712
0,133704219250648
0,135620280192348
0,133690176857934
0,131484672602181
0,13213712458381
0,131068287464159
0,131136561179818
0,134036064299563
0,13048059759501
0,130687206931919
0,128075284800489
0,12710644867543
0,127127225075309
0,128069220669347
0,131599403144659
0,130606339060492
0,128103160575394
0,125519032416318
0,123346566400608
0,125594323462872
0,12165244620207
0,124427891056793
0,122919479699024
0,122046160887286
0,122101816477435
0,121380332261867
0,117865291335617
0,118863955900199
0,1189411899849
0,116464773120544
0,116756574062752
0,120462752993215
0,117247191034169
0,119830992420297
0,117226367549074
0,114591899431747
0,112241703762205
0,113048911859121
0,113167683508689
0,115415556833293
0,11055592601958
0,110514721709068
0,112138968719975
0,113269515851524
0,108404134712594
0,109345246175721
0,109555595464813
0,105831493457032
0,109585549892203
0,109897532630588
0,103928899412096
0,104520900475469
0,103544086031133
0,104535815082339
0,105228914148636
0,104280052086093
0,103234836232317
0,104056143441734
0,103564193530576
0,102507344472856
0,102801893457898
0,101694064852397
0,0997266001789956
0,102897107026418
0,0991836778072935
0,10134032170284
0,0982020056068479
0,0961560882910361
0,097193945118745
0,10038489940167
0,0976959810227081
0,0957942262453504
0,0956780590547111
0,0965622467586155
0,0994374930717863
0,0972780687727244
0,0965661619603065
0,0975665650770559
0,0923325135503922
0,0947996425196495
0,0940118462177738
0,0934127558359333
0,0907066760510278
0,0909630158029406
0,0935031854753834
0,091919395748133
0,0889051241992293
0,0926630361785828
0,089797982167208
0,0900387626544031
0,0895864153510191
0,091577257897702
0,09044256777568
0,0902677451141297
0,0870231044756161
0,0871684203852505
0,0873078899549893
0,0872367440966313
0,0876115306798567
0,0887077495198826
0,0861530951417161
0,0852492441483997
0,0874769991678598
0,0862731079079249
0,0830951886086492
0,082932093922972
0,0835486536757916
0,0845506167826765
0,0817963361192012
0,0850456583054008
0,0830535796610124
0,0837984938395226
0,0843759528220918
0,0863719771057856
0,0841625889124678
0,0816841143036087
0,0829815351006695
0,0843009423242706
0,083022877152561
0,0831816592090268
0,0822083983407784
0,0805971661139089
0,081247235791365
0,0810872518973146
0,0804544701151509
0,081129151448583
0,0792391060282384
0,0785920474456562
0,081642052171406
0,0801317803973001
0,0766716742990433
0,0812303062202879
0,0807455122364295
0,0787555612867824
0,0764928362049117
0,0796805284354445
0,07761411305154
0,0814106388492062
0,0766897672823868
0,0745263557501708
0,0801971527209434
0,0802180001879513
0,0755275842902799
0,0782144069317933
0,0770577797936984
0,0777947041577237
0,0767852547444619
0,0758921300662774
0,0767527413417435
0,0777541375767536
0,0743582993446964
0,0773530040345984
0,0767447631535372
0,0744167778757425
0,0770157381128158
0,0753951344824029
0,0754603088743453
0,0759596989014919
0,0704185487130221
0,0737455442806291
0,0730476326120671
0,0740746878231118
0,0738276748352202
0,0754507240034311
0,0728006685506937
0,0709021574455135
0,0734027587089795
0,0764663105418015
0,0717170525671895
0,0714364502038117
0,0746895765921734
0,0741815875328151
0,0696134460056663
0,0704172210857427
0,0733353486855847
0,0718822040644044
0,0680587259362748
0,0727424443547315
0,0696195286429954
0,0674435959545399
0,0677743211881901
0,0694111659109796
0,0696451209016749
0,0724639605187214
0,0692046963555183
0,0686112631909349
0,0685571569611228
0,0693216905329186
0,0714255806131689
0,0718040902408323
0,067395861294217
0,0703255700559661
0,070911232412087
0,0688210515736942
0,0693936231160975
0,0684677357187088
0,0673755521559996
0,0676038371652384
0,0681867600560437
0,066858127259484
0,0647355837469072
0,0640347965669778
0,0658042745566789
0,0656355260244088
0,0670340978889089
0,0672352339459803
0,0647211138092611
0,0655924510048965
0,062513591272698
0,064937618988389
0,0631032777346765
0,0666103806411125
0,065610710915232
0,0637654669946715
0,0625999276504163
0,0639386887062046
0,064659508202916
0,0640418711638146
0,0622558181612901
0,0604120416071016
0,0615786214018406
0,0609181729548713
0,0613345400485836
0,0628642155634156
0,0599000924666561
0,0612090874325803
0,0626649532374332
0,0615609254460006
0,0599167159040852
0,060556583997461
0,0586626548780488
0,0606103102710876
0,0569827470898905
0,0594211994952442
0,0608488755658526
0,059524257160674
0,0560948465483429
0,0595235738891196
0,0572103355650986
0,0541147768246862
0,0557163908348514
0,0576370446381382
0,056771390500224
0,0583654006514999
0,054646421561894
0,055688405094176
0,0585827351289979
0,056847285474174
0,0554963329219265
0,0554207107720694
0,0541922358780226
0,0554811680705166
0,0552086759813994
0,0535779016886389
0,0545814407614446
0,0535185882169364
0,0531160325445575
0,0543837447169197
0,0526644613223829
0,052208531753125
0,0529564908161221
0,0533781819808054
0,0531266546911733
0,0540743145342791
0,0519057795143295
0,0514116363565474
0,0529828336641791
0,0495836248117881
0,0522492119342677
0,0511055829526753
0,0519363281359827
0,0528714334701451
0,0526957385247748
0,0496718207992992
0,0485795353841698
0,048226534369926
0,0483015265586258
0,0513632259797457
0,0488649851548999
0,0493747168548437
0,0486860812836424
0,0510117683513765
0,04601153482095
0,0469709022053166
0,0480440944683881
0,0483207852349525
0,0498358959181305
0,0474955519534881
0,0473659084197207
0,0462203552141422
0,0476169833934705
0,0447468944040492
0,0474799754502224
0,0461407073040489
0,0474510378994175
0,0472583959746102
0,0454469655625996
0,0457345963994061
0,04582255454886
0,0454976464088222
0,0471283142185892
0,0451807707042775
0,0448401493682113
0,0428351451677331
0,0463871797909114
0,0453400745294703
0,0460560400239816
0,0422288234792518
0,0434868923678957
0,0440185282542812
0,0486120131232932
0,0468132934791446
0,0421803819467658
0,0434254264113943
0,0439086742564081
0,0428834677603855
0,0460839020463333
0,0437632430656408
0,0425189990787953
0,0443324702672133
0,042805310565687
0,0437365601935121
0,0435204338905743
0,0456753390707604
0,0472517648228783
0,0424648053762567
0,0439931820666311
0,0429045456020255
0,0413491035747229
0,0411909430960063
0,0415984016805899
0,0434678669493053
0,0420601547164482
0,0390848298191527
0,0438689105644576
0,0438389834035262
0,0394262584919315
0,0392971778488531
0,0451693471645647
0,0392203431872703
0,0406412021282007
0,0385661124359011
0,0408882753565706
0,0402535248924867
0,0416414766039584
0,034949605284085
0,0442955868721638
0,0419107910500901
0,0393577674179892
0,0348613581968529
0,0416636384696657
0,0386556671979525
0,0439798744820764
0,0370979847808956
0,0427251021498058
0,0397262394713871
0,0441441762168623
0,0418092804702108
0,0458457542511359
0,0370743313816802
0,0389489418904567
0,0325971782226206
0,042214959657128
0,0373784397447789
0,0436998073760547
0,0354367784386131
0,050669461457469
0,033574009181037
0,0422411611854595
0,0343865241766357
0,0440592960213345
0,0328684674128814
0,0479581555373886
0,0315798861712864
0,0497876903878223
0,0336979165095681
0,0445477008473722
0,027416505799827
0,0439514582797506
0,0273590594726913
0,0513862059244285
0,0328712132915588
0,0493859077143724
0,033071069818455
0,0480193135409524
0,0319487172540874
0,0450901636747133
0,0324278402314003
0,0434492048711568
0,0379706552538479
0,0394532821439296
0,0420262072343809
0,034538297478446
0,0484073744957219
0,033500253938961
0,0498646688719689
0,0289198547172188
0,0477026676288869
0,0311572360916938
0,0474845239390286
0,0320392576345332
0,0482157927367313
0,0337495461842745
0,0392624243596233
0,0358589661907694
0,0370888611272114
0,0368696655713156
0,036958870634223
0,0362070752937846
0,0377165504787946
0,0370277047009681
0,0396775964999007
0,0342489944135154
0,0404757906476427
0,0358260621138685
0,0421197684452017
0,0353395356248118
0,0396392004872323
0,0364733976354539
0,0364997074913386
0,0346849552739691
0,0404627926295708
0,0356230396846969
0,0391384980033646
0,0370731767633715
0,0368674042773551
0,0373756207408751
0,041632441555313
0,0374760478731352
0,0394151681365169
0,035787023449804
0,0394984567026751
0,0383577339571853
0,0391810954947313
0,0369407501811175
0,0406452036644542
0,0374109084426524
0,0382892715488363
0,0376623942752458
0,0403218115024328
0,0378811698174114
0,0381849706396248
0,0366649468510958
0,0404534365039086
0,0379176294176406
0,0385693046117024
0,0364931431055328
0,0394129189997729
0,0370112240070787
0,0388503825466189
0,036245841844361
0,0392150128970509
0,0369275749927432
0,0397830801169599
0,0381130748713807
0,0396132429890553
0,0374153221050908
0,0401773592011763
0,0389064278758408
0,0384213688598841
0,0359332169524354
0,0406220717488197
0,0383162791935961
0,0414143690707573
0,0385822411934982
0,0388665614215061
0,0363100149724385
0,0391508640933569
0,0369706503237937
0,0405552339328946
0,0386191818347105
0,0395010573419112
0,0378306599983835
0,0405641939660576
0,0377098384365463
0,0418097323643452
0,0373641873883788
0,0407456881009079
0,0400180128627716
0,0408060724783611
0,0395405081875876
0,0383456334264091
0,0365569564740223
0,039483352935355
0,0388342615983133
0,0380078587517054
0,0375666221641763
0,0402296101040622
0,037751273552101
0,0403712796552898
0,0395346116125518
0,0391028970336613
0,0390137785250367
0,0401965683398507
0,0390847938530549
0,0417199002736495
0,0381680363335128
0,040265836239692
0,0398930293652924
0,040608977105409
0,038603814242509
0,040562034373679
0,038260629111066
0,0403970686288861
0,0403884282059233
0,0409761329091476
0,0386413138480984
0,0418926020090084
0,0411663316017891
0,0395622788791223
0,037724334753482
0,0414498196181993
0,0397545844640935
0,0418047968525989
0,0400734093906784
0,041609824309035
0,0400378758595307
0,0429035030858907
0,0416827967589149
0,0418087187405049
0,0427019684013219
0,043714444738396
0,0402335887089355
0,0411590835402232
0,0410281448444097
0,0402688389792711
0,0396369779262907
0,0434784423090186
0,0390401302967502
0,0421781364735423
0,0431754998089385
0,042121767130489
0,0420165572486203
0,0416535400383347
0,0410757453443047
0,0421387773556404
0,0410257985706482
0,041272581138658
0,0415642110893087
0,0420764254321596
0,0399604007286197
0,041313030775211
0,0430734624677806
0,0449260645348943
0,0421006532650883
0,0430664967798106
0,0416497704143905
0,0435328599717175
0,0428317907854275
0,0408638964357765
0,0426863582458798
0,0414732398376301
0,0439224592539746
0,0441796714609246
0,0417560633165097
0,0437051922609494
0,043075160458866
0,0418596424258562
0,0430780746050946
0,0463505880522501
0,0417271164216235
0,0439971574980262
0,0440393580959822
0,0431552443675147
0,0456190064695083
0,0463439565914019
0,0450427102867093
0,0428664464573549
0,0431820414218586
0,0454419954510633
0,0451478555957463
0,0426682932957141
0,0431179079538845
0,0442398682311807
0,043220675468559
0,0462788070915395
0,0438490268173388
0,0451608923467325
0,0426498003654468
0,045168739958984
0,0421265291775812
0,0447990359280545
0,0442186906955959
0,0429240509287246
0,041644188231974
0,0420358880609677
0,0415287201026711
0,0432412328776962
0,0423565871707751
0,0436787741110702
0,0416302355368746
0,0425946806769151
0,0429002017190475
0,0433072769946925
0,0409094849878101
0,0425712668359351
0,0408875408502184
0,0412711204369905
0,0419757312671398
0,0427257964191047
0,0407742030527445
0,0445065073864558
0,0400292080035072
0,0401604805432319
0,0429396664100083
0,0417775073520053
0,0384998166885013
0,0421719717512506
0,043720830847095
0,0410597225405883
0,0397295128409551
0,0403280930275065
0,0401572804305623
0,0426686150764451
0,0403013827640935
0,0425315845470111
0,041852821529636
0,0420384292237355
0,040662298079118
0,04125370039115
0,0416890979464015
0,0437534832023641
0,0423449102828902
0,0413695107142318
0,0381659864411119
0,0416860900626878
0,0382010358919096
0,0401891877209796
0,0397730973793435
0,0388534075425595
0,040287936807243
0,0413004482076634
0,0415170201817261
0,0423472016784488
0,038579983120535
0,0384025226614046
0,0386824872891821
0,0395908848480602
0,0388372164788875
0,0401920611287921
0,0409090478136898
0,0397396911043166
0,0405132158053583
0,0396873729087316
0,0390493276858911
0,0389026302610058
0,0395164630975977
0,0402633992180303
0,0374759399795867
0,0386942340690448
0,0387241117060307
0,0398402412179433
0,0374450414922227
0,0420370548873189
0,0392177651372439
0,0397229949983124
0,0386769732558914
0,0382661997792214
0,0388967478862179
0,0394069125810987
0,0397292693325828
0,041640477731189
0,0380885186111243
0,0383637694084088
0,0391552819252855
0,0378327990370121
0,0367316404424151
0,0392758607126038
0,0381520365868357
0,0366232410036656
0,0372618604643404
0,0376603121466302
0,036224072700301
0,0389551846730449
0,0365773219678982
0,0354578942089854
0,0355763301631092
0,0379132928908711
0,0365006090251991
0,0380222503490446
0,0349420274702196
0,0369856069916645
0,0372007764913819
0,038554227210482
0,037372160489243
0,0382670905051724
0,0354144418402324
0,034380835669475
0,0363294788882726
0,0358401369789505
0,0364619722760788
0,0377724832469844
0,0364545802935601
0,0369535988919198
0,0363970825818818
0,0363700697220264
0,0356037403696469
0,0358863985913417
0,0354542341202592
0,0359028934740946
0,0348244355123979
0,0383875594149988
0,0362317353469621
0,0349242660795126
0,034115674590524
0,035421375899218
0,0324301134880237
0,0345294760079164
0,0331980564656954
0,0357851612949815
0,0333417599000604
0,0354258893615761
0,034412960908878
0,0369115130118096
0,0332483375731845
0,03651444489768
0,0315316110289577
0,0337260016431715
0,0324564767856514
0,0361650839808899
0,0327990859840196
0,0324371579887418
0,033439590917957
0,0328260071364884
0,0310002069971315
0,0317923136403107
0,0321436715297528
0,0338700626977575
0,0328865631440856
0,0302585438392621
0,0315531060294693
0,0323654660961911
0,0310184910402835
0,0338430268220985
0,0308443555302979
0,0304874494667911
0,0319587608129714
0,0307913445446445
0,0289674745910714
0,0310164673078603
0,0292246884853411
0,032961961183452
0,0314857478421724
0,0278467618531674
0,0305556486745167
0,0317063701261556
0,0296932652446862
0,0299975791662515
0,0317431999994808
0,0313814948519045
0,0311052445312668
0,0312465113477714
0,0323792613585728
0,0301949631456761
0,0292584783142321
0,0296044828546535
0,0305307761434272
0,0306830144335126
0,0279050008444044
0,031738505819011
0,0309957351708164
0,0287051398439018
0,0303564369390103
0,0304030978093379
0,0287616985538436
0,0306526121166546
0,0313227286439335
0,0292419596955078
0,0305166014004772
0,0311263493513001
0,0297111825083686
0,0300248868621637
0,0275317377950675
0,0296414299996159
0,0298989924494039
0,0299016507056611
0,0288303187733383
0,0298415287359187
0,0273356150920238
0,0284565337402035
0,0288465661473422
0,029590585764815
0,0285267164277936
0,0276058330962985
0,0303281685547268
0,0299187103739432
0,0285877287969326
0,0274304975982138
0,0289478487506714
0,0275989988899682
0,0296358128704005
0,0287751465680185
0,0286094845437378
0,0295424096823546
0,0268752506960654
0,0291152552112036
0,0251992246086004
0,0303346625549478
0,0260550421656412
0,029739862562079
0,0261409750323451
0,0270971264954422
0,0256862374984456
0,02777104108404
0,0263931655678276
0,0288133719922143
0,0268655821728538
0,0265785493630448
0,0262021425249164
0,0283115642448776
0,0257530779728837
0,0297462225416391
0,0268500473137434
0,0276864011703947
0,024866391286551
0,0281184951360811
0,0304543840221557
0,0292132384191952
0,0262964901293003
0,0302609413565371
0,0237711255902124
0,0328654794017465
0,0260268261296501
0,0291087421670359
0,0255027517025156
0,0273992895243948
0,0270445237065679
0,0285974944131679
0,0248968029610361
0,0285878350156107
0,0284922459330484
0,0282966595396842
0,0268862363571018
0,0269736998969317
0,0279914818751089
0,0262939882152225
0,0261851737080431
0,0290298153602099
0,0272198524467061
0,0261191819758966
0,0285904247236312
0,0261103365184344
0,0268315568748553
0,0299723396563134
0,0257567054725411
0,0274475801081838
0,0271718944470137
0,0266482137815938
0,0275830824066939
0,0266104936595375
0,0256641766815617
0,0282631692695653
0,0293545823016588
0,0267499343324642
0,030698349200242
0,0257826412055886
0,0282606780118338
0,025865311848688
0,0261802181624235
0,0275209795134664
0,0262255389831145
0,0253910899507923
0,0284421297400174
0,0260612644801607
0,0272719591957094
0,0275352084434419
0,0269992209347212
0,0260218884255914
0,0277432788609535
0,0275609535033125
0,0261616796214413
0,030145971734637
0,0222043578668652
0,0280867953824362
0,0280323962566853
0,0303278951245447
0,0287811836426448
0,0278247612821666
0,0261218172209412
0,0261571925412757
0,0251085046871322
0,028403089831077
0,0293280655789801
0,0287266528683133
0,0290784465085751
0,0272995680345925
0,0270355465294638
0,025042105282412
0,0297975832743986
0,0248135831936991
0,028959632390446
0,026130446680677
0,0290517893477853
0,0248312214580713
0,0297347636269373
0,02438951825322
0,0281562322102005
0,0260517951631742
0,0311837622978409
0,0209390612492886
0,0351944196995284
0,0301182911909857
0,0251600930221483
0,0311220548370192
0,026564178691313
0,0292079263040979
0,0257382134804537
0,0281707779984199
0,0307042826906362
0,0282924309884699
0,0289306167268232
0,028341257193513
0,026921239637609
0,0298946827147795
0,0251381341796593
0,0286067909499331
0,0340511729247708
0,0289172696295479
0,0306520730085657
0,0288914680359405
0,0302055192894651
0,0304176444922796
0,0234112451467976
0,0309940409508526
0,0289353914502318
0,0300086277529486
0,0273474797061732
0,0285771686021935
0,0304174965511063
0,0333145429606799
0,0283540468829781
0,032144522426647
0,0301964969202551
0,0289484699727719
0,0315971795781813
0,0286039967443699
0,0296649478188676
0,0338305883368116
0,0284486048608736
0,0346104866124362
0,0292619979014897
0,0310320692410185
0,0316175256597344
0,0318030484194226
0,0286640379851024
0,0312308790941293
0,0320137275242894
0,0302289173672774
0,0341022732281503
0,0326728888134043
0,030392792639133
0,0355757840258877
0,0288072761705055
0,0354268711646905
0,0275068296122308
0,0325174076067158
0,0342748807684508
0,0327712789004272
0,0386432308625522
0,0283170524571248
0,036804085221604
0,0297597816983791
0,0368814243882319
0,0263857798379472
0,0401153116244576
0,0289244718522148
0,038475335705906
0,0268097122867373
0,0378438821503954
0,0347043056378672
0,0304559003833017
0,0340861568830234
0,0350043746532525
0,0334260486679684
0,0413448729776779
0,0343556602815074
0,0322776044356616
0,0402704137585768
0,032107207965952
0,0433304700615097
0,0369387634834836
0,0312200860531886
0,0453274272170369
0,0354242584443457
0,0400755440520619
0,0332173132834612
0,0395069772731405
0,0361179793796654
0,0358840306818891
0,0408284358938391
0,036439732815002
0,0410781802897918
0,0393011270152936
0,0365084931632841
0,0460481557434212
0,0389298004257321
0,0415488858499065
0,0396840780541618
0,0415020138149865
0,033396671087465
0,0567640819630235
0,0349964582023443
0,044953552591714
0,0448734789732957
0,043385719710738
0,0459735336702743
0,0452740727615742
0,0419706404425415
0,0444823913330604
0,0508906747355709
0,0459279777907811
0,0416155709441695
0,04576478228346
0,0523782903337507
0,0468922590577354
0,0542251558002636
0,0472732584901912
0,0495875724432019
0,0506977007410302
0,0593782166001615
0,0602589277899622
0,0546225995258339
0,0473718155530664
0,0597610298295694
0,052470197041498
0,0587945336817677
0,0575438754470462
0,058540322449834
0,0563467714245817
0,0569508477318871
0,06051019982177
0,0602208840121796
0,0636212202981176
0,0629715044564088
0,0633776247762437
0,0650942074634123
0,068593570691525
0,0784775964022794
0,0634419390910536
0,0758719074110231
0,0664537977346771
0,0719595393367792
0,0680316974151105
0,0712590997864661
0,0749481615115183
0,0754676614934627
0,0767915486611254
0,0718764188255397
0,082900655366379
0,080287971349717
0,0805889680744432
0,0883264662081988
0,0843845994725236
0,0856370629962157
0,0702432829739245
0,154250939400627
0,0848842196852221
0,106195798029435
0,0866877044817286
0,0972006972189707
0,114041609508885
0,108967618875076
0,108953978210964
0,116654692096717
0,111618737748024
0,121054052782722
0,127582937853681
0,125995362193383
0,13154796715749
0,137124320195664
0,130547178741068
0,149575665918727
0,148450894604942
0,156487636302954
0,156923859148012
0,157186483151964
0,164664017678302
0,173534071641658
0,172246985647153
0,180904581399731
0,17649282325061
0,189299032446346
0,201394837749695
0,198970168159051
0,202688640125269
0,200313656067315
0,222331376497959
0,203933645660847
0,239168580673114
0,227261825902284
0,228711925048254
0,233859049586625
0,23797221973156
0,242544800456085
0,238962115957355
0,262198971820304
0,257756476095559
0,263823660387188
0,260250832170339
0,26406426971754
0,271560048151586
0,274905189132398
0,274606099456876
0,276280612402155
0,285378728843769
0,275283183655808
0,362867462277792
0,297474480236447
0,287059594658123
0,285778417307122
0,288471956863759
0,308856229156734
0,28573217561069
0,32163076068553
0,297491248277289
0,297019381112291
0,294300322892401
0,295659129833682
0,29168173510545
0,2941426882215
0,304902802140371
0,290818620454158
0,307452772861645
0,287320079970748
0,303881723676273
0,327692908391456
0,294886937864597
0,294942987998996
0,286135734259419
0,292859324225413
0,294602487228
0,285439031135978
0,287723601610643
0,294756781778919
0,277023250138514
0,279985149038434
0,27185349477964
0,291955914917386
0,285204429750868
0,27214170301562
0,267954733732806
0,266622989577696
0,261915691872754
0,254269555692185
0,264303552942524
0,278102910295276
0,25584108598392
0,25555920856772
0,250011134674998
0,250386765238868
0,245042115450323
0,245065916230369
0,244781058150657
0,242184787370671
0,236129390973202
0,243928197324681
0,235065479314647
0,241281167328849
0,231402879054103
0,239853166241462
0,233853452237631
0,240384346292422
0,228416411973832
0,233193823660391
0,233337480711223
0,23091637989317
0,22678132472766
0,22887877336168
0,231823019969779
0,234061080490441
0,226584238850624
0,232396247788386
0,227659938386175
0,22979691316115
0,22496843628112
0,230235616823768
0,227374793246708
0,228387329348871
0,227126539126244
0,228482636094708
0,223006742903494
0,226370876541988
0,21817420543293
0,226237243373164
0,221036684952897
0,220786129916314
0,223238446767237
0,213319792680895
0,249430936315602
0,223362211682418
0,217333617952526
0,218822880772936
0,21465969637414
0,213322518121066
0,205112904258862
0,225001280503926
0,210186590182494
0,212308578221936
0,203398837777996
0,201217586611728
0,207220817727431
0,205470764140065
0,19562543601217
0,203067500340887
0,188437531371747
0,229531328432551
0,194255251790176
0,222234544169349
0,19611282739252
0,194267376971787
0,18231085204457
0,195897792011979
0,197430136604062
0,185005906264556
0,191537837971281
0,182954119771487
0,194648290855146
0,182348604506415
0,186062659290865
0,181015487171824
0,175103432434519
0,18996613215464
0,185149336625752
0,1731655754003
0,179418655481311
0,18069812723577
0,173006492316544
0,183636747122463
0,180626832277564
0,175604968082048
0,162070495569111
0,163039145500882
0,157252007944537
0,167667145727004
0,169108366606113
0,158059218999108
0,164698620551602
0,153147980881857
0,156076601716411
0,152438946209043
0,157105119414659
0,149271643895879
0,145349783365073
0,163207767633626
0,142026053564122
0,150780519952159
0,145334389411389
0,168179720330109
0,14762413805804
0,14888874802012
0,137063752644367
0,148094816720562
0,146690733192079
0,143436714161639
0,144314791785979
0,134425362656627
0,13480536941991
0,142710702534936
0,130102726602008
0,143722930681572
0,133458722310232
0,134440635387935
0,134744355881418
0,141502338875096
0,139790064926639
0,132324132179089
0,126730584887086
0,128385573980002
0,126784279934815
0,132888864858705
0,122043859445943
0,141666518195905
0,126519298085607
0,132280327410113
0,142476704098521
0,134633498586088
0,137136594857312
0,137857611238034
0,132963634511378
0,139789925294782
0,134946482715728
0,156767884824169
0,139569111844316
0,144796635664087
0,146159738180883
0,149625732889873
0,147760887531884
0,152430278221274
0,151593492681207
0,15745077462221
0,16408580830279
0,165882547023521
0,166624152741541
0,172830219816665
0,167161935970917
0,181806287970171
0,185651769733167
0,182439303474526
0,19645405029351
0,187709281219191
0,209808852284916
0,201514450893822
0,206711935016677
0,206719064354679
0,211768177959475
0,212327445256944
0,21119642025455
0,222092760822399
0,233319463280531
0,22715270041202
0,23140779672465
0,229188985525338
0,236757028836254
0,235230296735078
0,245944835446032
0,231913009576052
0,268106196220038
0,249528569139183
0,254874232461043
0,249559859637112
0,248778980451741
0,25294001840367
0,253389024536636
0,257593904338138
0,254715759950406
0,258508680266724
0,261053556652471
0,256099039178428
0,264372970426867
0,259513157602171
0,264972677782975
0,262481541012933
0,268817169756112
0,269881063413841
0,268945609482368
0,276548212984821
0,273582212276601
0,26785072146575
0,296809261649165
0,279322656861923
0,284394706738854
0,286439352994509
0,294009690569689
0,291558939748042
0,291147333449045
0,300332748693479
0,297684193835677
0,300392621904925
0,298330794771176
0,299224673018506
0,302619614360315
0,302080002588655
0,313213184524784
0,302909329847752
0,315661186349391
0,300226796713379
0,327198665016701
0,32487477980009
0,316421472413193
0,328921010975425
0,314451178380967
0,324182234525593
0,322962450007883
0,322397755335455
0,321586561600443
0,327282846230781
0,323328425419886
0,323625698571722
0,321960619896006
0,323332864984606
0,321340390597933
0,317491559309171
0,328664658560482
0,325336683555473
0,321733512673598
0,323592436695191
0,324439676358465
0,318080813763231
0,321074383618652
0,322206739372993
0,319367426675425
0,320257722507642
0,317932691499998
0,330370918051513
0,321534277696079
0,317321940387232
0,321805998361541
0,322857281843521
0,331314642452282
0,318552361167365
0,326480629462084
0,326485464320933
0,326475571844465
0,332188916676986
0,326104526638646
0,327908603407082
0,332051604547352
0,334516956485015
0,332212860675006
0,341475591992275
0,331503553868641
0,341223677762012
0,335338818944717
0,33965321970088
0,340942808131965
0,344927710013546
0,341032340659744
0,337904259736127
0,337653176922962
0,334570492593833
0,334135718484611
0,337955279787247
0,329209760948395
0,331199884582213
0,320654824491253
0,321585664603942
0,317297620899685
0,325475424948037
0,313305126547471
0,317944701428002
0,305468608851032
0,304502423101572
0,303707001221808
0,300200406142204
0,295396762217037
0,298270952280742
0,29616473187705
0,295005713975758
0,291576149675844
0,289864696060149
0,290511518712923
0,291925742524616
0,285737175412399
0,291006817816597
0,288499201199238
0,284042270118697
0,28446643767531
0,285186261037708
0,284739230423074
0,284291842983599
0,282186679770134
0,291667802458035
0,285403607633758
0,287881444528838
0,283604267136292
0,287573497461753
0,281128307339981
0,284155731036092
0,28338519450426
0,280325841261726
0,282430488165863
0,281825212778186
0,282244391720728
0,281699014646329
0,280553989480283
0,280627971086279
0,282701351096789
0,280185981105504
0,27948261197113
0,277690232136826
0,280459261289198
0,279163079466875
0,280114350221531
0,276319087113913
0,280929285261124
0,27977588856637
0,277492307644093
0,277602706994514
0,281383494220309
0,28097086094761
0,279795283713097
0,278675783369767
0,278874424846069
0,284456907717149
0,279254291435746
0,278541187025039
0,276800370637585
0,279487156735994
0,276970593227515
0,27739806939064
0,271863941248132
0,275195681193045
0,270728364772139
0,270394838305421
0,265657663430091
0,265590273809622
0,262908689709352
0,261446418035945
0,258378597074729
0,254641609925788
0,252339940328292
0,251858304132776
0,248188609073171
0,247196227930764
0,244182284943214
0,246312497549975
0,24400791366006
0,242267738519822
0,240281313094049
0,241177435735697
0,23745352143596
0,239254227768481
0,242000303817272
0,239239245031117
0,239083224655965
0,238099543216156
0,23703013222501
0,238734464162886
0,23857942719599
0,239533885877188
0,238540503022777
0,239576373130774
0,240983997441403
0,240520624774579
0,241907943410953
0,243510934233936
0,248894019411404
0,246284252363128
0,246172324591727
0,249414406126994
0,247519985757875
0,249814745066727
0,251122022328799
0,252843222131782
0,2512472591302
0,254645268847886
0,254191254420202
0,25300404663859
0,250989368980942
0,254202073296787
0,256457005159342
0,25570913941145
0,253383288765398
0,253402986183356
0,251394392904499
0,25081243452023
0,25265906641635
0,252646445843512
0,249788357792724
0,250124163039624
0,246933761682891
0,247367028370654
0,246039297577342
0,245469297245441
0,243342382415562
0,243512885498454
0,243783253448905
0,240357379672054
0,23837005294397
0,238100596310959
0,237264203978007
0,235997397847369
0,237419532093907
0,234328426320064
0,235432691137013
0,233504244432491
0,234520971131069
0,234015534833424
0,231111892274177
0,230864681827547
0,230933661081959
0,228433886204666
0,228464317098737
0,22838897708703
0,227973821117916
0,225831629223139
0,225386527387923
0,224170178192187
0,22490014822262
0,225322486116061
0,221684392667772
0,221074904789927
0,217284058606661
0,216299766942958
0,216354673309726
0,215303973162387
0,213073743957647
0,210423067677356
0,209532884021477
0,208979765802184
0,208029206927502
0,204162266386588
0,20322184588958
0,203122445460623
0,199294311705102
0,199879397066232
0,198299535660168
0,197166767264122
0,199145791023522
0,199576100090198
0,198837708074743
0,197092893744614
0,194651046106247
0,196178850266161
0,19492925038187
0,193244959580999
0,190403247027919
0,192385895560379
0,18915583046718
0,185247075692381
0,182990316058359
0,181049595924236
0,17923461122056
0,176653106578469
0,174555500899768
0,173801778217551
0,172862840527814
0,172027444133354
0,17623644229242
0,179015993093781
0,178960215438928
0,183459911761121
0,185828963977001
0,191313819526856
0,197480000218519
0,205331988665661
0,211349241075156
0,220524454171057
0,22840509589468
0,238890439252058
0,25031509282489
0,260201958915173
0,267894353323337
0,281375105077418
0,287944979477029
0,299219932942937
0,308631500360839
0,317607977087697
0,329585982202397
0,337050926144107
0,347191959230277
0,355003737128622
0,363962551539254
0,372815244593708
0,380214942438073
0,386576107683224
0,392636799567339
0,401409803459591
0,406073256449372
0,410924466711362
0,416989008846027
0,42217062238451
0,422496246389769
0,427032145240899
0,427802934819792
0,429517304278906
0,429888632488938
0,430926706282657
0,429796300180742
0,433864291156566
0,435962172518704
0,434575047809955
0,429617997665757
0,432868502997717
0,433239732457336
0,434155450798516
0,434961500003903
0,439352934242619
0,44157287297555
0,441837864354323
0,447165122936585
0,451036056491077
0,456027465024302
0,460499466482387
0,459775278857613
0,467316782142281
0,47131692323345
0,473226790015342
0,480091448441594
0,489127683459279
0,4938183127451
0,502346177600911
0,510770434736367
0,519552156676986
0,527894427306223
0,534594251365556
0,53982708271315
0,546165734331536
0,553250220825695
0,560010150461817
0,566935869495182
0,565333131266745
0,568573450977005
0,568358343678203
0,568769698483405
0,567585390016092
0,564580589405587
0,561761279076446
0,559790271756972
0,557973332669205
0,553920934711613
0,551068345996997
0,552363294454138
0,555769931658868
0,558638224094678
0,561274192260238
0,566592507451653
0,5826847331441
0,588107601179867
0,594387446257985
0,608046348276838
0,618406606376277
0,62639285214179
0,639851822712637
0,647549024769521
0,658957104037605
0,664504861516609
0,672067904691622
0,68693617249884
0,694092919976004
0,711610563153624
0,706614490156833
0,727092160271099
0,739132941576729
0,750549248064143
0,769018391816023
0,769645700422951
0,795893082175174
0,821979936042658
0,831687754835668
0,84400172484399
0,844597425446031
0,860740085736724
0,876736871377724
0,894626145120402
0,899747277907349
0,916971914941085
0,932141323610122
0,949187651790405
0,957441823334625
0,955365726870862
0,96836805079036
0,973289672531327
0,98421183347484
0,973501513807951
0,985648327936612
0,978667841801443
0,965675046130232
0,970128929285583
0,9592990121499
0,963526137584676
0,952914952900116
0,948766501685227
0,952289752438104
0,941984740799924
0,942859303058149
0,94807770797459
0,948567907467171
0,935752006911705
0,957061658172578
0,959607004834677
0,968209894150126
0,986343494353925
0,983039147811603
1,00126893701829
1,00731866502915
1,02915447976774
1,0322517333721
1,03703235887759
1,03615274346796
1,06633100628799
1,06822356413146
1,06567660656317
1,06692571041718
1,09526621376172
1,09032988692886
1,12804327498558
1,10285446893451
1,09646702836287
1,10736067552771
1,10014510385138
1,10532205015053
1,12203077456165
1,13188691693417
1,12608087894787
1,11308121045056
1,12893893577356
1,12515460193393
1,13573679579181
1,12618687413135
1,11510604315779
1,12069097048908
1,11914441846426
1,11352757091035
1,10190585912504
1,10636278523961
1,08761221086326
1,08496254665867
1,07281662902269
1,06271477377935
1,02421177238647
1,01287416984764
0,980703350455225
0,935580077514665
0,897253816397471
0,8680319556582
0,832517896380049
0,798314888524116
0,758704176732359
0,721650622725365
0,690567538145255
0,669270187155586
0,647343792529019
0,633090123559414
0,623360898039569
0,60694427242499
0,609214134002638
0,596662532669335
0,593841847709428
0,593891953421059
0,582280210592466
0,581257564270562
0,579106474408814
0,564118133561669
0,566870633826383
0,549540288155896
0,546059972312743
0,532226333963691
0,522763061972573
0,511824360859309
0,500575892474874
0,484134399773671
0,477398014448503
0,45718848862611
0,451148421980858
0,432096493615077
0,415005628182017
0,398452303843716
0,381133038103633
0,363421526182939
0,345789752144326
0,33067829910468
0,314931249768221
0,301251875598839
0,286683680567402
0,275764374620614
0,258602356677051
0,249775007512831
0,239475397287843
0,224637949094986
0,218064306987669
0,212081904370427
0,205177680450976
0,200428740861028
0,195442721212647
0,188543191188328
0,185444554684876
0,182575445130573
0,178052655034293
0,176365338353884
0,177874779856409
0,174432463052054
0,17542379156925
0,173668805322779
0,171417428280614
0,174946357689345
0,176933908099767
0,177221788742541
0,175320322485662
0,180188177965566
0,179512289982878
0,182859411542804
0,186461815678806
0,181090962985286
0,185350614099193
0,183212761613558
0,182390022118087
0,183460368352899
0,180141900999203
0,178495399208623
0,177416340576793
0,174204499804293
0,177058057502516
0,174760429251276
0,174857236031203
0,17464792510519
0,173505554481966
0,169041612945264
0,172399710827406
0,169674581936473
0,174482571376624
0,175783301962688
0,168738141037197
0,173033471318438
0,177605310486384
0,176406546693329
0,182379343973246
0,18137355474578
0,184725215015785
0,179358405979947
0,182959410090981
0,188437342259003
0,19410375452043
0,192183208791985
0,188254377129085
0,190731137005735
0,193856989341164
0,193679700910911
0,197233785090782
0,198485203761167
0,195043401762832
0,198692393281446
0,199540419773694
0,198362605537851
0,208267595072877
0,204286503216507
0,208673015912108
0,208156623932
0,212287095619713
0,218969100926654
0,224321157821634
0,223476856437456
0,230063667502111
0,233160785228288
0,246900875963034
0,252485675643409
0,259990987166964
0,264732409932059
0,27864366775969
0,279179498595623
0,281261294027599
0,286879976944062
0,282424507477755
0,281628854270097
0,276880195716144
0,272320017483312
0,269208387651292
0,268540905009802
0,266626860459604
0,256332314268431
0,253982373503785
0,249918203636853
0,250467274457871
0,250680464329559
0,251175272172021
0,255641132174099
0,246936435326934
0,241560088001613
0,24970274041117
0,25562451828933
0,254890989295435
0,25052588421575
0,249594356257632
0,243932661605414
0,242319300999898
0,243852700909515
0,233500586614354
0,232391076300199
0,227738984478681
0,227095090572028
0,236670617657062
0,234768360344398
0,226730492838091
0,225677181910417
0,221281313148443
0,219633334807789
0,216260701759257
0,217673726711366
0,219442309912473
0,21915869517497
0,225795576451304
0,214672380277143
0,214733704269968
0,21330902641492
0,21396101613226
0,215594354832582
0,210736719747744
0,212221896889059
0,211918868798709
0,210145385910347
0,203704283899644
0,210144449906368
0,205680628606503
0,207950949613576
0,205622637966367
0,210342836603683
0,207313507232318
0,19947410255029
0,207509385258275
0,203499258338919
0,207850594545558
0,206017814636511
0,205369975807609
0,194028573174107
0,204707410227642
0,200935352397314
0,200916704951967
0,197322860210157
0,202473513898088
0,20503289674737
0,20439118315293
0,20233838902746
0,203446480627172
0,196230143947512
0,205595430944072
0,210835935867124
0,214631114535197
0,209563506666792
0,20423634658801
0,207788755462356
0,208363336972827
0,208906537125265
0,212271803470486
0,203512123694527
0,218009362002297
0,213254206875685
0,225868641063568
0,223153295565495
0,225797002336617
0,220616919009701
0,222957501273626
0,226430761234065
0,226561605591369
0,23139302866009
0,234990460394492
0,243184222764525
0,245066814697738
0,2421786673937
0,24598970428506
0,254708705213301
0,257055123506487
0,27671894067575
0,261189807492694
0,261339565454252
0,286952799482158
0,284084279262906
0,28061747277366
0,298989501432563
0,3122928816445
0,306054117676984
0,326098095874417
0,331800412912664
0,328664061852875
0,365847212462597
0,360244973253123
0,350567911756387
0,373124426621086
0,373610459420083
0,371695284528843
0,394726331632287
0,352540618552219
0,369368447571486
0,366376703296804
0,35365552477812
0,370967531377561
0,367074432901901
0,360086222875858
0,352752396057329
0,368792216347297
0,346284759764006
0,346318217331975
0,351478089131138
0,341312561460936
0,352274092075564
0,358894090062538
0,354651868921306
0,3683756544062
0,342433447433266
0,33360013200018
0,355230024595961
0,349479970694627
0,322233410994062
0,331766449781458
0,337374090687819
0,32633464498719
0,33809421686298
0,323412818860455
0,320480176429081
0,318472856742323
0,32825803608811
0,326537951362092
0,321453009551651
0,313969038692412
0,31340237557205
0,334240442278791
0,313215487977353
0,324786803081814
0,308242956316915
0,345990302177751
0,324083057530743
0,317902344479617
0,314520090428844
0,32570611613606
0,316811842487362
0,323228536287616
0,308219873692808
0,329297543740031
0,315743086525231
0,354303341673651
0,317847305132599
0,364029672486084
0,358661091393305
0,335894517175735
0,355023829517477
0,341450078847356
0,327105351467121
0,349942324423958
0,364025157421445
0,35034853314201
0,349415350052978
0,369191573738357
0,352456298993227
0,375024730563515
0,341410385439335
0,375909611064148
0,357968447946032
0,326864161515177
0,34848125751676
0,41311018877912
0,359093201268868
0,39922470275693
0,391516966813119
0,390379943595813
0,413688134309865
0,429047045299786
0,3893110163339
0,453923097364834
0,415555720859103
0,437249579696918
0,424561294603394
0,443618549940103
0,454488757753305
0,480604754542061
0,492336385408862
0,460914145749595
0,493482570129833
0,412314529877427
0,428451389403506
0,530870762597272
0,411310156620517
0,43175689384707
0,462469083976454
0,397143107534332
0,358718402082847
0,462260577630926
0,388103397044615
0,349370068961444
0,364898659895243
0,381551929917759
0,492084087153779
0,407722641777676
0,473631919891691
0,498370112763354
0,481836035169696
0,464702333857582
0,400751126436687
0,413572099454987
0,412160024530198
0,498205421801322
0,355038576382623
0,532737228346163
0,45601424008392
0,429725520670994
0,379452587813867
0,594040168601351
0,238730212761989
0,588133461335841
0,429978812725677
0,478088981370359
0,320042485033311
0,34304779289491
0,3431073948361
0,549031547566639
0,52773146914876
0,466279172272727
0,409513957003109
0,444029514132325
0,470682481376468
0,666175137360719
0,349842565542841
0,583510689039367
0,531421078923042
0,631510975881492
0,474649531081091
0,674872444467122
0,10916163378869
0,702338124149751
0,472416157361004
0,529497897670215
0,361559964685076
0,648491160113218
0,385129114040146
0,62883073568136
