3596
4000,36533379555
650,420452594757
1
2
2
0,0906268493440441
0,0766637456598322
0,0909608154491367
0,0758468581258239
0,100276504106909
0,0875852134062427
0,0955055157332425
0,075130555385166
0,0958631404552079
0,0805346660434718
0,0947754895749976
0,0765872965987016
0,0790656160914054
0,0734794355276856
0,0926408758019787
0,0804154850988829
0,0876877039382132
0,0784486547476929
0,0959785302394699
0,0766710908191665
0,0835182303092975
0,0802861698905634
0,0897325313236499
0,0710705527832191
0,0859937664168033
0,0799971799083857
0,0974349676471675
0,0781475047029948
0,0872699389617392
0,0828687543950824
0,0874601028453489
0,0776578703175061
0,0826557218966902
0,0841806557077785
0,0914139453231346
0,0750037910243003
0,0870292348832792
0,0809218473405778
0,0852745621300542
0,0835960163369157
0,0912812556108451
0,0727734981553276
0,0947670312515504
0,0803700204510361
0,0918597471483683
0,0799727217972289
0,0959645299628583
0,0757396464617609
0,0827474436971536
0,0779463673459495
0,100267140230595
0,0765520856813948
0,0934850895605977
0,0863589344925331
0,0944984310232193
0,0923783719508115
0,0881141482049453
0,0736945832185164
0,0913867110342114
0,0758309380328619
0,117555850606948
0,0950812228793849
0,0842899729829504
0,0803062574794391
0,0816932034998163
0,0775684092041926
0,0832597357984549
0,0783978178209264
0,084322660856087
0,0794433775002683
0,0835607567784162
0,107107811442173
0,108766955484687
0,080725226937802
0,0905838830908161
0,0800907939794146
0,08039998631543
0,0689379219823787
0,0753984521008378
0,093272663192242
0,104039856631439
0,0864436486885718
0,0867835327118792
0,0663860805210877
0,0916753448862881
0,0970097369329281
0,0750045506982329
0,08764250974869
0,116480183922006
0,0926667742038964
0,0805250206458481
0,0707794845339792
0,0812308400209081
0,0767506058248542
0,0769285780315656
0,0687149612417193
0,0736815019240973
0,0757405350878075
0,0724321540784585
0,0876725049836645
0,0956796294724415
0,101250774988491
0,133123449135612
0,0712331132934376
0,158074676470525
0,0757899539361709
0,0916456669849059
0,113893162642316
0,104312220592386
0,0825668536589331
0,0781133784060508
0,0733756432548528
0,0893398664959768
0,0836056666967729
0,0682985991964302
0,0997134490525297
0,12215039528591
0,080085856377284
0,0788998381862167
0,0833312941747886
0,0653652563435043
0,115289061722371
0,125652971857033
0,0772871468054157
0,101120955204623
0,0775349732412997
0,0856311416587861
0,122413906523508
0,113102065211762
0,082508937075447
0,0832296667736821
0,0756824324719639
0,0761708823843432
0,081081875041534
0,128850600701898
0,0785675868606734
0,0952935909549618
0,0678006658733437
0,132556175108392
0,132062958319964
0,0884492005928907
0,0824145086514535
0,069983288151656
0,0808565097926128
0,136449028101899
0,0947099826846565
0,0827672302385012
0,106005364564186
0,0962042859316366
0,0717271488255514
0,0772147054429047
0,0683722294504049
0,106966746186957
0,0845465300787081
0,0611092475044287
0,130428258944273
0,146903395653268
0,104687229082545
0,154850600777471
0,0685194838579351
0,0956319583753152
0,0597261400653037
0,0937102453170215
0,0631131441577077
0,0929074242773812
0,0534718210810358
0,105890962150232
0,10833777899149
0,0718690425051754
0,0822688415720507
0,139674411734357
0,0925500496762148
0,0862805582790456
0,146568804100338
0,0915303775022226
0,0685768788737439
0,118985967765388
0,0904262256980913
0,0714479926764257
0,0719993440231537
0,10781107675406
0,0722622410768291
0,0844629265735052
0,0632574046872709
0,0999035620977034
0,096470117514932
0,0878656310265777
0,0751633665377049
0,0846719782361193
0,0664177395616438
0,111222186558868
0,134585831984765
0,127975470569539
0,0843081077769979
0,086775909559687
0,037180428708203
0,130003997570981
0,098244239209318
0,0879865515828471
0,0611747027261013
0,0715630706881292
0,0720780032949704
0,076454008739662
0,0670294801234613
0,0765266156343134
0,0489743617071132
0,146344705809303
0,0874399848616144
0,0858984452607369
0,0699416314024429
0,096099387690469
0,0585812571455963
0,164320701736539
0,100176386913723
0,0913263351396567
0,079959053193491
0,0747544481251602
0,0934088084186379
0,0945262353715381
0,0686272632710924
0,084551684867959
0,0655264830804063
0,0767895821941132
0,0651181768865444
0,0777007298699723
0,0748756734688013
0,0750159142665409
0,0661152300960319
0,0788966762005751
0,0757844967030454
0,0953734877591392
0,0751713422780171
0,0746559985951689
0,0767424961129655
0,0726891590598535
0,08748287541314
0,106714372248745
0,0737017110825066
0,0832711486635762
0,0624996874101349
0,0821790064552198
0,0644291443341353
0,0759404201580418
0,0673874685010905
0,0789922281060175
0,0586580704696783
0,126383843163187
0,0725542255909284
0,0882598225926413
0,0539902129401541
0,1212523414169
0,0774811145855316
0,0850092247996451
0,0665365664983678
0,0855694644017314
0,0575089755998908
0,0894508215752873
0,115560990887339
0,101931652291342
0,0624365286747389
0,11571428159578
0,0784649108999858
0,08816235948822
0,06725456384589
0,0894265524403431
0,162171656477866
0,102885905575624
0,079876996256167
0,154758208518271
0,0879998003963397
0,107761163221204
0,0781407015485647
0,0559236722881501
0,182378160577468
0,158527223054925
0,0754236826931178
0,0992301518344096
0,100937397434555
0,0877061403488528
0,0926922999906165
0,0935019410704372
0,0907442429514168
0,121712226138028
0,148795416625388
0,168081088360048
0,0608021215241106
0,15072384551763
0,0937299075214237
0,108918640326555
0,0717798446852929
0,0885528610043593
0,0707966961939539
0,122110767008193
0,0889442382251942
0,11928683375887
0,0790582966670341
0,0966344979843061
0,127028503507651
0,101501125424428
0,069772208289639
0,101681924345599
0,0910627110030413
0,0872143826669537
0,0775035730126488
0,0837856764573512
0,101095209657777
0,0843963120381181
0,0837633378568282
0,156701287619715
0,095949486148806
0,101267987183549
0,121292942915579
0,0980833893240846
0,0813301182848002
0,0913147499676853
0,0869805381238512
0,0788738948830226
0,0713640871537039
0,0779352881797623
0,119506649368748
0,097334355632173
0,0851488002548381
0,0857980649335647
0,0822441481895845
0,0873541349975754
0,0850070189588821
0,0958974757516745
0,0871292140727315
0,10184380635243
0,0724356249530782
0,127231603038358
0,133419531159041
0,0923651543281444
0,150518186409639
0,134771615321312
0,09315614107035
0,0974730036051989
0,0887633836573039
0,109130962912323
0,0875921869651124
0,104661184491958
0,0919192415251467
0,104673046094169
0,12076454961257
0,118331217567041
0,108800233872308
0,126308911575948
0,165816628496547
0,188617846213781
0,116778931595606
0,119578813890553
0,080710605230343
0,183510266777298
0,119231816060858
0,15711736222837
0,137663550027323
0,116638824776533
0,122066882883616
0,118355250535302
0,122761839376832
0,113346844849497
0,120011529495967
0,124892869523176
0,132597920501321
0,124088714999364
0,135768365895288
0,123887992121028
0,138064154669242
0,188822901578407
0,138009152717377
0,144119721557217
0,1418162170186
0,135156992447987
0,201107705191969
0,168175012774881
0,224793068391464
0,192425033867863
0,183760168952874
0,221682341186307
0,154750560550905
0,167955036696039
0,13845645962464
0,173465926610025
0,166686176630753
0,169811125800743
0,154835951937481
0,174890744665885
0,167438204693386
0,187459790728016
0,170865442305572
0,179402447454211
0,171535117397037
0,234017836332931
0,182973868773584
0,208541142084891
0,17308668584794
0,252220230672136
0,247320082337351
0,28753560301031
0,194938819167586
0,222399529255339
0,192369378332616
0,214759336907025
0,204870525214059
0,232572081021459
0,224331316689336
0,237479457099465
0,269602050514971
0,255682234201083
0,252442873748252
0,256660739102473
0,213996541306001
0,273127616206147
0,239710810619793
0,281792053835966
0,259838276819418
0,268273388344088
0,227701222490981
0,31765676774958
0,253424973421919
0,269266595272037
0,280988221404191
0,268863656980337
0,2623158162113
0,269964240980689
0,28201628159624
0,277817268784514
0,295241924950459
0,299378973717996
0,276192777685739
0,319702575384186
0,284025217932575
0,310277974148371
0,314973929545654
0,303576200682397
0,295958611797752
0,333496383187281
0,283149505599032
0,337259199930121
0,295327916997378
0,374875975055949
0,333995758819397
0,362336928231015
0,358551421527209
0,337606667300185
0,330092767478431
0,348705991262017
0,326377421268281
0,342114157990903
0,345829876498413
0,386566485110068
0,351077187831452
0,377431062006541
0,358597648277013
0,372132175313622
0,367052114074713
0,399088816348926
0,372211963584225
0,392463102729125
0,372130315999466
0,405768136687188
0,382120774418585
0,463395561413132
0,414390919539991
0,475264792939076
0,439437182647708
0,419333326365376
0,404947590370761
0,418394381166009
0,407673277168681
0,433917159852301
0,438178923117631
0,430703786965865
0,426145066070346
0,438016179565349
0,434073032812479
0,454208867482589
0,442310822887697
0,484114462371662
0,463080746959298
0,497019141576061
0,456246756061763
0,490324497009651
0,474668997379099
0,509107092643239
0,500193817993397
0,517106258175192
0,472297261665408
0,518226585405717
0,482566118521818
0,519795601031916
0,472482354776405
0,517698156243739
0,500111379099203
0,554699348919274
0,501326694751433
0,566660823287546
0,533241787706545
0,535668145699556
0,534459446759296
0,572621666176447
0,550077729044609
0,575327931523212
0,547539195757448
0,623441513588374
0,581410273957138
0,566936242515993
0,581968373510727
0,601833986426128
0,585663655043917
0,617782193120805
0,60746942878512
0,620546228610643
0,574124135869298
0,644499039962351
0,622009608401114
0,632695854382986
0,611682982056735
0,665252770329789
0,612779831858349
0,632066257575488
0,614016888028756
0,691533945204034
0,630646846496738
0,692588134387665
0,636008419892807
0,693020197252206
0,632131442866766
0,681142999246168
0,631502645557877
0,687619125676813
0,681530559293053
0,746877302312422
0,682591359372364
0,696725056660395
0,659326626909931
0,742686001765837
0,699338310635637
0,736435273058123
0,705316503358339
0,75869263242149
0,704350737564651
0,780510653478557
0,709632389443063
0,765627514618059
0,742243444594217
0,789335216603288
0,747432052585319
0,787279067262046
0,741116231730197
0,788362577998986
0,733394058086021
0,831621229431383
0,765885095254354
0,775450455112862
0,793304029711335
0,803186322264675
0,792364391008075
0,837788705570452
0,759412660553804
0,864969120800409
0,817387076930157
0,854662017081066
0,816123097885155
0,867745896386821
0,824787389744632
0,827204160039896
0,82465092590137
0,852016794069956
0,808313314738265
0,91889270936756
0,81772717151461
0,907921949830601
0,832191373924296
0,945478460807606
0,858236703335854
0,917888027296033
0,856749732795882
0,927147070023932
0,854193351842889
0,918511385808856
0,862899829485249
1,02891301750296
0,943343062587949
0,999754921771525
0,919492881897698
0,996585919694025
0,885288537951248
0,978650092390682
0,911821338541712
0,96483134194725
0,876822372245079
0,967848235420588
0,917114736134049
0,974352071206946
0,949276604050316
0,989691899813875
0,962093450555155
1,03432213835412
0,956264581244245
1,0391984606077
0,920360701292727
1,06534509366115
0,933935626402707
1,06797715545456
0,941254112485175
1,07495579323554
0,991673948359038
1,06473911062697
1,01524074867022
1,06215952050264
1,07057053958916
1,13912530537307
0,975785747550475
0,998912589386977
0,963683770774009
1,09382385343162
1,01817636993404
1,13628848543852
1,04623192695071
1,135145103513
1,03465051753749
1,12070756083942
1,06942340911844
1,15382399576263
1,1067534848954
1,05000602546602
1,03893868775989
1,12581771670086
1,00416568264251
1,1332339640176
1,0784019349904
1,15113913568137
1,07185286931444
1,24206251443631
1,07001594818548
1,16437268528156
1,06675689040323
1,11597192544233
1,08583456797847
1,2859630696413
1,05399761343198
1,18769742172116
1,10098535428734
1,18517146728322
1,12161859427937
1,360158918456
1,22813724254427
1,18831762501148
1,15567025001503
1,17635788155255
1,08063263665953
1,20674569724038
1,15338149416565
1,20852799802795
1,1760806015209
1,25646416953561
1,19694625627569
1,28797762941133
1,1818853010926
1,20967443595707
1,23873933122244
1,28986468185931
1,07571973152831
1,25023080311298
1,12486164687865
1,26262354005081
1,17255136103914
1,27279694459462
1,18195725789999
1,34634237521972
1,18327514857758
1,24285265838311
1,24428819903009
1,21948991090572
1,11962439203171
1,29863868729543
1,21865942937453
1,31319654812413
1,17733389942201
1,31243214530966
1,22872019316901
1,31021819185185
1,16829820129947
1,40857147966748
1,2805944411116
1,33520787019356
1,23746419653271
1,39127983278728
1,26963890479566
1,36176524834478
1,23224277630392
1,32721012090459
1,2648055524595
1,40740168070726
1,20275409232708
1,24198371822538
1,20590233298819
1,30843021039727
1,19892424449214
1,34994106242633
1,30070673299325
1,29642806060335
1,2563778330862
1,35862613717627
1,19618838626382
1,34673670414913
1,17846918337741
1,39338508867323
1,25932407472571
1,34611699792847
1,24583325333029
1,30995516273403
1,24040381920684
1,36417752021066
1,28107089169856
1,39644124835307
1,29880004054198
1,37113072914994
1,26577172460465
1,34375824554044
1,25262616373187
1,42338880225182
1,22142048362398
1,31261517382866
1,35885911162983
1,34895609653836
1,20907385454855
1,41276327009758
1,28709151395691
1,41726815463476
1,28620794966631
1,33018618861682
1,24071400693018
1,47880791924596
1,33956842211378
1,35775864812092
1,24484554046902
1,3407876322166
1,27519861727614
1,39984904270318
1,31981728357273
1,38700850642212
1,26664274925376
1,29298210064908
1,28219050411582
1,3519268819825
1,29138045816435
1,37085632968267
1,28358437391947
1,32719432549646
1,26480562533805
1,38694106633593
1,2630837236887
1,36397035900075
1,2607881193658
1,45387760207992
1,29179728747838
1,37157265083492
1,28380377152224
1,31867615973256
1,32301446975596
1,35768881541295
1,27670292577304
1,31736750293031
1,31497289790842
1,419175210359
1,30014869782358
1,41520820843974
1,28447804671931
1,30387139903612
1,27314142641824
1,36573109830221
1,30102362905765
1,31051657509298
1,27246540948611
1,37476476536046
1,29118407701713
1,3203138441925
1,32774326772116
1,38199700531291
1,29131447909897
1,4088307346118
1,26594693185783
1,34454787268795
1,26585571472173
1,30749602223851
1,31435397098321
1,42689832651471
1,29270667812209
1,28417400598563
1,27955524033018
1,29211952531803
1,2541141923901
1,27848082685798
1,29051330288358
1,36236521206147
1,33306882995679
1,33093161000807
1,27405679081075
1,28414345387075
1,29453487701266
1,34931123664843
1,24208366488408
1,31563322366344
1,31550579779541
1,30818132189578
1,25016800231845
1,32837871589559
1,20238595142239
1,37753444336889
1,23301161747595
1,31147789852108
1,24668931070198
1,26928406940571
1,25075398977825
1,3091181365864
1,26875062273885
1,31660207827526
1,27958526577235
1,30669241111374
1,35087437306821
1,29001967248157
1,24035362853598
1,34137327737711
1,23000945896202
1,23520399404571
1,24907212753014
1,20558173303868
1,19415627755037
1,3111673889359
1,18819766958465
1,31324597559262
1,2169977305372
1,28106253078132
1,23404988017227
1,24061351688864
1,20235461700113
1,23600196128465
1,1788879513473
1,24651833380412
1,17996151552163
1,1994724940991
1,1494352992241
1,20453651761534
1,16727685965031
1,21955384249012
1,24254959427851
1,1850608529915
1,19140252191478
1,25110167689787
1,12710844847049
1,21955810397936
1,13205489361257
1,18358237077525
1,17875731897021
1,18660940018273
1,10520369911591
1,13618353507643
1,12409204016543
1,19058683696758
1,11967606875976
1,16924012127901
1,13218863627105
1,19348353909627
1,12689259176452
1,12190270189821
1,07674188248665
1,17470616728948
1,06911506002476
1,08929703077941
1,10119631623848
1,09957781289303
1,08826906978205
1,14097690660415
1,13696468586333
1,10068010392833
1,05605112476067
1,10711910414632
1,05833051008161
1,11900298745485
1,04781218023112
1,0666510600906
1,03917742488363
1,09200186072573
1,04522159677391
1,04598554295518
1,04514345096161
1,05497831990431
1,00160230885286
1,04467011090104
1,04362822053863
1,04858226646462
0,994032342609711
1,01151074560314
1,00404568658086
1,01971636332561
0,996933312400509
1,01235636049849
1,00192569984501
1,02495390998508
0,978391104660716
0,984011370846234
0,964272580363675
0,985889793721428
0,969881541550263
0,983032534981261
0,947524204140728
0,966643802931529
0,956001913199087
0,985087394281792
0,912791764739563
0,94794247426891
0,914728662410327
0,936244545840581
0,904957304370978
0,935594483550805
0,915069065733746
0,915739784689013
0,912009783832507
0,915935607788756
0,919233935258196
0,902411990857309
0,912769055991397
0,885273908203756
0,866466811993437
0,9002695316718
0,848361054529264
0,877310352040494
0,867213592604834
0,86527440769239
0,854561048323212
0,875379184242024
0,833182357030259
0,869926105825928
0,837443320708687
0,854853119315808
0,845141725368985
0,836068117644221
0,797363723830869
0,823291127778345
0,822977842803831
0,819554379712158
0,804778992338616
0,805751754052988
0,784129653991743
0,814109548486869
0,795007958244017
0,805800114014848
0,783547237476839
0,789857130725341
0,770300578512736
0,782588998109637
0,774774240582234
0,773712489641028
0,750228961930946
0,772207395956956
0,767008066991916
0,757964814805566
0,7370002165873
0,761518213219999
0,750988409759475
0,745965672678758
0,726671534790849
0,728165747361349
0,717034336041088
0,748607403220217
0,731346842249922
0,725425067462031
0,711755367241473
0,726492286214516
0,711406656165682
0,716330291591396
0,692449348056419
0,706977060080954
0,679464836598759
0,686630982241953
0,6909530144846
0,695303255925982
0,668329225848726
0,671973519629252
0,673517486557388
0,673768734837532
0,649927221678176
0,655439719344037
0,648099084525763
0,663071760477605
0,652089050155346
0,65556151084954
0,649511535802046
0,660735924641425
0,642686282433502
0,639192518547666
0,633903691256999
0,636559407458378
0,618734338879454
0,636718767326386
0,630156156005606
0,628892916517502
0,60783334312752
0,617358044639852
0,623389559172171
0,612718859520792
0,609012060723985
0,615613822995153
0,603564452519084
0,607070900998764
0,58669954883482
0,59349356760883
0,590612219997618
0,57570896913145
0,582129710028785
0,591415483984448
0,576194664424323
0,583808475801904
0,567030719664329
0,580064547938382
0,566202111644136
0,566411109753404
0,559362556079606
0,566852868210379
0,554306283190661
0,56023937298482
0,554576284015789
0,548269267252496
0,538933204089228
0,55056852492529
0,548582087372833
0,549445713219287
0,531480351262841
0,548186487159391
0,53093046456543
0,528321114353938
0,517010920627104
0,525761780198238
0,520927156836545
0,526344938377445
0,507284530907643
0,513523412908505
0,511881771730661
0,512240533886654
0,506097433878486
0,511780440962056
0,508689326026218
0,504055403539491
0,493689172320453
0,497999207468188
0,487815853654081
0,49315497579414
0,482538104140635
0,48978579139018
0,478107092172754
0,487044111926536
0,482931880534435
0,472620652833182
0,471410950898251
0,473267272001315
0,466637979508857
0,472349493863548
0,465134718925105
0,466916957346661
0,458947987898842
0,460988853636618
0,4606311256707
0,465953596429798
0,465144336940732
0,456156318628442
0,449205871042373
0,461477020806412
0,452094284874809
0,457761765722827
0,452849530452033
0,447242913059968
0,442541358187898
0,450320910456003
0,443327211228333
0,445879311008783
0,441550350396408
0,441435916782767
0,446073359318
0,44199603001627
0,440307306607031
0,446473436689191
0,442763959948909
0,450745517438311
0,441530242600553
0,449288180102068
0,445493649592257
0,447077096359299
0,443372807811963
0,443283118826889
0,444568803952195
0,451184610605849
0,445846550011964
0,45265595177397
0,452975052945734
0,456007979319033
0,452615219684839
0,461098899042372
0,453225747622842
0,461637858348764
0,470604406366164
0,471561584387055
0,460318047225547
0,467644596367522
0,460993582578318
0,468223897854834
0,474171909714712
0,473891590006159
0,465347355889103
0,475449817460272
0,481601389803345
0,483332610837485
0,475821485928655
0,48184035018901
0,481161635941241
0,490927219378573
0,491511197584419
0,494454656281617
0,49343912823961
0,505931963625583
0,51142163887106
0,519226430554837
0,50440890079179
0,507108439623007
0,504465177049791
0,521790735544722
0,509591522960891
0,518969840817839
0,524885692940626
0,52415241786974
0,531996665278299
0,544142844592834
0,53451951159395
0,545777890282121
0,548136429490416
0,54645917660926
0,548013762423087
0,551160272886646
0,558015430536074
0,574921459508781
0,564489335367376
0,571138102598681
0,57089208859549
0,582065543092089
0,579474658766907
0,583949501913962
0,570780097528979
0,584812863383041
0,577607176163759
0,581005220959305
0,58513671196181
0,579810222517396
0,580650546689938
0,588304862810592
0,576204640429194
0,583972483011574
0,583011675956823
0,590439638958789
0,574487755035961
0,584525910624596
0,583624529588601
0,573932733453086
0,570184370440352
0,577592990648492
0,569872562049872
0,580844504062476
0,576514465203718
0,576465825682011
0,568711267884309
0,569745394951054
0,566643756399206
0,574381445511069
0,569073158605694
0,574908532418633
0,558639700572802
0,570650486084021
0,566058795093091
0,570942506240245
0,562393698926082
0,572016745796859
0,56596864029614
0,560919521338613
0,571711103282941
0,571438478196959
0,569244085590962
0,569361442678478
0,568345634108408
0,574051867514876
0,57562966666081
0,576061441909801
0,575488868847327
0,571137723547882
0,566998895305345
0,571475405841646
0,567800353510106
0,575768151725747
0,56492313821329
0,56773996835768
0,567658861029171
0,564835614565982
0,573469781609326
0,577574000855751
0,555409551000895
0,561900171995087
0,557958466980112
0,567062739498176
0,562731424075871
0,553212882489045
0,545127006678059
0,557104841499269
0,549225594711934
0,54159824475603
0,532089871395092
0,536312175260093
0,52879439412311
0,527543145757046
0,527188192373024
0,525118936638047
0,521976797057781
0,515330067941182
0,509815816794143
0,518735461050327
0,51069616242397
0,508468961755496
0,50507049462136
0,49918566021934
0,499740159229333
0,499123833477008
0,485790907036526
0,486435973846168
0,48343820428224
0,477379225462863
0,465456306640518
0,470288242311592
0,469731134841641
0,464120932935392
0,463161477195452
0,457042747257581
0,450184665348898
0,461793215346612
0,453257274879211
0,449070000662031
0,447101003346684
0,440193452899553
0,436246947039948
0,439599385793027
0,436257496284573
0,434378546996939
0,432436783395017
0,432890498870188
0,423271250896453
0,42970435824236
0,425561987191464
0,423766139631283
0,413471119750757
0,415452591759745
0,415913015345736
0,407470946255209
0,406640600394707
0,41269619887748
0,40897208142045
0,412777111201491
0,406958307351383
0,400728137705449
0,401873945870642
0,397979154993347
0,393601417067526
0,401261166725618
0,39325862466533
0,391221975246778
0,390482283181562
0,389445481651522
0,390060466596285
0,38825224677307
0,383638644945819
0,38006536753452
0,377616552343906
0,377574020106408
0,377228141118112
0,381217344090094
0,377095809387312
0,373031740364611
0,371760482642181
0,369829913493034
0,365397964973379
0,367281252420066
0,361319803764183
0,368087776668706
0,368197534786569
0,356524890465551
0,356668291420837
0,357873000826654
0,354257467775771
0,352737595287235
0,354102518338871
0,353522543287352
0,352683664250044
0,357377979850393
0,353592731515655
0,354051908903247
0,349065433405694
0,344234918503185
0,344967792351713
0,348500551119195
0,345194694279399
0,341557866898498
0,341597362652284
0,344306974752932
0,339362419310883
0,340287579936911
0,346040008618717
0,344437145756765
0,338104268849961
0,335542176913081
0,338792596874356
0,336665736555426
0,332493102783092
0,331610542540488
0,32902260774174
0,33029262287358
0,330506292772633
0,328317127985004
0,326038856797158
0,324234510747108
0,322870371963975
0,325403632345947
0,324165013678354
0,326061808017184
0,319910643321269
0,320243637260224
0,325054982950321
0,322876259907351
0,318815911641192
0,318782157723156
0,321229216455211
0,320656010124249
0,317846660513728
0,314972980965336
0,316946702856761
0,316529078684791
0,315917571075222
0,319763468601224
0,314522742075277
0,310255918726897
0,310671794487663
0,307173632497999
0,308873538141011
0,313154545311741
0,306417256029587
0,304740018946449
0,30846396848096
0,307111409583726
0,307941947084337
0,309288814086259
0,30718651588716
0,306206553991879
0,305574709556632
0,302635575099693
0,306389153677965
0,309361246533752
0,303770096471373
0,304352608105056
0,304491834238767
0,303304545891238
0,304582326158447
0,303750506913536
0,299452398493776
0,302127945351309
0,302420397381543
0,298069706885286
0,293444544337536
0,293001966381217
0,296900361767705
0,298237202407024
0,30088851550835
0,291847507474797
0,289503388090396
0,295535560299449
0,296029186633642
0,29687770377586
0,298089281930018
0,293195332702392
0,29137422472286
0,291190514437068
0,288908160675562
0,294096150967062
0,28992213558643
0,286080888273728
0,287554486875106
0,288015767560977
0,290326655038726
0,286498819098972
0,286018013604568
0,285582945493044
0,281569732532128
0,27795358842571
0,274462910341789
0,28043976956722
0,282955493466906
0,276069452441595
0,272331355226997
0,274435328544751
0,273603692635316
0,271844614031988
0,277704100863741
0,27925992286433
0,276678500452068
0,272577476178267
0,271069021574138
0,270841959903732
0,271666981876181
0,269741057261737
0,270717588382358
0,267400102718812
0,269648638227344
0,269041184941166
0,26520561105545
0,262577637315399
0,263798584752263
0,264678010728784
0,264166725634842
0,265325591706636
0,262443661264156
0,258425044404044
0,25964289593984
0,254058805499429
0,258563513097609
0,259881173143284
0,255562357752933
0,254870412903753
0,252893287912043
0,252507876421473
0,253668695096156
0,251217943069231
0,252322611474482
0,249827718541764
0,251820724984653
0,248707287661868
0,249083084246095
0,247825184596394
0,246778565308172
0,243810921212157
0,240576835896729
0,243109228868373
0,245428930824204
0,241764946003018
0,24153923399356
0,239712320530605
0,23472536534097
0,235667588463184
0,237092736697657
0,23581037374564
0,23268547046616
0,228909974379973
0,2298244037284
0,228674555951341
0,227847613558297
0,224877160757809
0,226878468046863
0,225602868955324
0,227033850787294
0,225762716865412
0,223287729798318
0,222847142634592
0,219811217614449
0,22108755953946
0,220420648827167
0,217847160071897
0,217643666482668
0,215092080603884
0,215651090574785
0,215179090558949
0,215597219817023
0,213994194934502
0,213047298869272
0,213317407859806
0,214467403970924
0,212031446079616
0,209840746651797
0,20587369814766
0,206105205522741
0,206792417815499
0,205926236859022
0,204020678202938
0,20355762256232
0,203143275135259
0,204421287106531
0,203088231916453
0,203968169549525
0,202447378777298
0,201517543268436
0,198804254084708
0,202668835131305
0,202504149100069
0,196439285492598
0,199005300307519
0,204264468897568
0,19861555180863
0,195511796392398
0,194018048350923
0,194805170491289
0,193633784577662
0,194869599927209
0,192526454785963
0,194430743800076
0,194900568877229
0,193684145070382
0,19093129249017
0,188560613166257
0,187221275072963
0,189179439493111
0,186634831963453
0,186421650474782
0,184355845543657
0,186132265920821
0,18519951628018
0,186855964320309
0,185973485011793
0,183632560416686
0,179754673535423
0,180621964611638
0,182570431309712
0,183077920759903
0,179658915824433
0,180395524971496
0,177682092914175
0,17771804384198
0,178385235304372
0,178751872475334
0,178524745852409
0,180113967000836
0,178342101207767
0,179030184003158
0,178756432827426
0,179339251029377
0,175063326988778
0,175054975241805
0,175532704188091
0,177710373639168
0,17931352862714
0,174403915906617
0,171470202480993
0,173692568023023
0,174747175068119
0,174928154202534
0,17158578429353
0,171131952009085
0,171499972792797
0,172086318045381
0,171004512349218
0,170338886900941
0,168015864754407
0,172174691703215
0,170021564165546
0,1691058023696
0,169074727450471
0,171488551427318
0,171140167137042
0,171486943548499
0,16741362332978
0,167962647397737
0,167290956600249
0,164009920643024
0,164746073431017
0,166365155578666
0,165506363167887
0,167483720903291
0,163536313521627
0,166842932002862
0,163797545726266
0,162466998997282
0,162521150792774
0,167069387801262
0,163499612912847
0,157387812400494
0,160685364034208
0,163242392771339
0,157537661423724
0,160616781872422
0,163080085731352
0,161261067204142
0,161298145833128
0,162302442456412
0,157288517973132
0,159038802477723
0,156087876763154
0,157874475290457
0,157366381306703
0,156368522959717
0,157577979259273
0,156896014708026
0,154057534984476
0,154158462958623
0,153406542255031
0,15673798891929
0,15636399896925
0,155081652646268
0,154810980509859
0,152266594102539
0,153009500892061
0,155304219787611
0,15056174292596
0,150298758342631
0,153309676643067
0,153692224661245
0,151436994643995
0,152850189382977
0,151328447973973
0,150357140107792
0,149660694211505
0,15033714663118
0,149256240309519
0,15025424163858
0,146092293405277
0,147745774236312
0,145567408223954
0,148805632216393
0,14774707313882
0,148586654316815
0,145502272925588
0,145834393480624
0,146683176308987
0,145413057449348
0,145901005875283
0,146668548690823
0,143543450025404
0,143341074833017
0,142541946300011
0,143792564788275
0,141631867901025
0,141470432517718
0,141100377715747
0,14325470715372
0,137479800037129
0,139836872534389
0,136364149523963
0,137583612469904
0,139444837480447
0,139916904868027
0,137849576001033
0,138079222083145
0,136673555694178
0,133740735110561
0,135655138259906
0,136379811946807
0,133066821521493
0,135568814455391
0,133399688765826
0,130928951159457
0,128933198695972
0,129856016976039
0,12971841183147
0,128653580041753
0,128131720991991
0,129963703116538
0,12916066564858
0,130665963125242
0,129171891650117
0,129434912418648
0,126856308356959
0,129645838440574
0,125994916426106
0,124654349672354
0,124368577116468
0,125425107800058
0,125041128962982
0,12879504697044
0,123183700730546
0,123583048473975
0,121395729747484
0,12454632000046
0,123357031684456
0,122655071263749
0,122291042468597
0,122177627803275
0,121092356601523
0,121162616091009
0,119057018197193
0,119684878350539
0,119355669513319
0,119317536562452
0,11825656764535
0,120592516494879
0,117438717438562
0,119596589459445
0,117373632649542
0,117644374058565
0,115866864065431
0,116525965708648
0,115825423266223
0,116309772282544
0,110880288855806
0,112976608243399
0,113962971059683
0,111805122941623
0,110655601227073
0,113267908408801
0,112827571297059
0,114938463729425
0,109678282381934
0,110026528503385
0,109504024211311
0,109154813767203
0,105212652508466
0,11003468880283
0,108655444770475
0,109958378921841
0,107205737126416
0,10843822173786
0,106787221497161
0,10653493403521
0,106168667064426
0,106860796170752
0,105730404145112
0,105356067732332
0,103803141433357
0,10458671365853
0,104596652590479
0,105229143565407
0,103758399442415
0,102290096232752
0,101917876069547
0,105354431837567
0,102413608056423
0,103827490997698
0,102873350222403
0,102586087316498
0,102210445231436
0,103269827878086
0,101974469093118
0,103361371072865
0,103193385408785
0,104952602205328
0,10318132652701
0,104811828483623
0,105816419653737
0,106174379013883
0,105110840722859
0,107250121252136
0,10597938513457
0,104357633006804
0,107126307500951
0,10796678927284
0,106540195630873
0,106153557026778
0,103191568047503
0,106054766402895
0,104896232639369
0,102724727045887
0,109613639615213
0,112519509163567
0,104513854442728
0,102756327036605
0,102154100548067
0,102188999539114
0,105103423688993
0,100991763745603
0,10303174979266
0,100887190802681
0,101663276350942
0,102503996853793
0,0951481576521416
0,104062744641827
0,101085591469422
0,103513735375178
0,105890186666
0,0972793711958057
0,105772214639534
0,10363090447648
0,106130030982063
0,0961519254866341
0,101618136876127
0,0933313893353521
0,0990852914608885
0,0991611961034373
0,0975106431810203
0,100174022255789
0,101090207554274
0,0983419088013649
0,0982114909135699
0,0959847644333839
0,093974409808502
0,089537737410173
0,091743944404973
0,0985770346534247
0,0952520319875903
0,100622849362394
0,0975994614748318
0,104073004824354
0,0924112355529533
0,101729448073917
0,0850059965108367
0,108100196802107
0,090629730046366
0,119986303210703
0,0827691859706401
0,114845252023233
0,0780763446366048
0,129903269357672
0,0774723469865509
0,120270701655992
0,0733996146986738
0,128819993660705
0,0769855022262222
0,120774906516262
0,0803767634939334
0,120731353559938
0,0843815168448037
0,112380905659306
0,0916438365115425
0,0999166712002085
0,0973748037511784
0,0984332908213078
0,0981504021315366
0,0955444369496239
0,0975056473500642
0,093820040339828
0,0946143229586564
0,0968189679559559
0,0908398246611884
0,0979196160792641
0,0885473879188285
0,0965670269398116
0,0904263178923365
0,0940546613550565
0,0885536609599775
0,0935231894982493
0,0916201702024627
0,0934849564920775
0,0892379485119263
0,0931898793575578
0,0874452297253454
0,0916586077153458
0,0897061939053422
0,0945013343349633
0,0893255079026005
0,0938762607488284
0,0880365323990875
0,0926007839119091
0,0873817222969186
0,0925039257163656
0,0890942426408428
0,0941607360140904
0,0913418553702791
0,0929113953416424
0,087319453315257
0,0920584456011819
0,0888543164459474
0,0930666161800456
0,0893644479586418
0,0939725736489423
0,0907757221094781
0,0954046362274823
0,0896075998864675
0,0906502937046074
0,0885161254131982
0,0953689246464862
0,0899382215986709
0,094718782652204
0,088403193491126
0,0952885289663428
0,0902642197949488
0,0928456408867347
0,0897921190019518
0,0934104029016057
0,0904664935887103
0,0929716527597555
0,0898188084838494
0,0961117269930959
0,0897496735868486
0,0943680229629742
0,091292884581473
0,0921951301556107
0,0900381449348781
0,0951358718048245
0,0933744362116766
0,0963591902200276
0,0894361670499741
0,0932608058745711
0,0928201130779725
0,0949677226436086
0,0905251676654147
0,0956250006898927
0,0924111860162924
0,0921351047632333
0,0909371323904138
0,0950884456971448
0,0920305478200018
0,0963032200817358
0,0896213959265843
0,0938397796312464
0,0910612826056113
0,0928647384549348
0,0904246935649973
0,0936331000782229
0,0911663211454208
0,0937824083464269
0,0920301880498098
0,0960169405041984
0,0925238925538651
0,0942687056717723
0,0921254874102049
0,0946754326882169
0,0910445898978049
0,0954616224178744
0,0909826044144012
0,0967252973463539
0,0926069241487543
0,0959398324040477
0,0938709618263718
0,0980218081942358
0,0921746113056664
0,096891216513272
0,0943381135368517
0,095735724384813
0,0939662392177312
0,097498353855779
0,0948886825930882
0,0983951889726813
0,0958567053517086
0,0982452188860097
0,0962686666382265
0,0967518958101163
0,0972662324261271
0,0982962449922743
0,0956764110340414
0,0992023084710004
0,0946522843075428
0,0997873469875612
0,0988367159754771
0,0980588343514217
0,0956341650142646
0,101523966950051
0,0980470363962273
0,100341114207112
0,0975081430475201
0,099371289569321
0,0953702187561529
0,100478074529889
0,0992165884093298
0,100152369130936
0,10114401781285
0,102270491947197
0,0989139490920281
0,103041743039607
0,0995177466109275
0,102000600747405
0,0980444147236899
0,10043197129163
0,100005660002497
0,100594748012053
0,0990668849109303
0,0991936809550955
0,0982530422305443
0,100968927383891
0,10045288044751
0,103151327072601
0,0980538148916278
0,100865555054808
0,100331256446065
0,103222238863995
0,0992804735579402
0,100609922549612
0,100818859769567
0,105364832559227
0,100791132373716
0,102826625999834
0,10201011742844
0,108224100262738
0,102270055568083
0,104206342168086
0,104797612578458
0,104785557831646
0,10249304665926
0,106563611989798
0,103988347221637
0,107878944031543
0,105476838145571
0,106323621447075
0,103274831415636
0,106184641320548
0,101659929198263
0,107141824543366
0,104931475437975
0,107138506661557
0,10219425706665
0,106772103424182
0,103824305175048
0,105723657199716
0,104419022326155
0,106609954386854
0,105016323877075
0,104775091963113
0,104606415660174
0,108323853881585
0,103705477530503
0,107257736113197
0,101705184276024
0,104880654186311
0,103178248407174
0,10471361781077
0,102681241033425
0,102607567629096
0,101872535993812
0,104610722896819
0,0992401275261489
0,104753806309078
0,101946408049062
0,104693955231635
0,100212396665725
0,104905638620221
0,101164720193683
0,103820029338819
0,101208720803026
0,100702043511538
0,0975359389046868
0,103246818406853
0,0999048728825684
0,100813739856695
0,0985877322786705
0,103033081365484
0,0998490696040933
0,100646108842718
0,0980250152765605
0,101981473328997
0,0999776796094828
0,101346645564454
0,0987499731564018
0,104153316590402
0,101356268167928
0,100880538105067
0,0968525559585556
0,100253206398257
0,0981656667917378
0,101502770203819
0,0985296258964551
0,100425960732543
0,0975899289652267
0,102125823087288
0,098312978337827
0,0994946820397028
0,098363522285675
0,0994383201639284
0,0960053353021413
0,101973603491254
0,0963245837321226
0,100275971283754
0,0969256493719928
0,10210381736998
0,0976590809834392
0,100202458694971
0,0990902724979342
0,101556323222155
0,0974915575334889
0,102278930469074
0,0984267970569286
0,0997768244389765
0,0960045955346514
0,100544184453125
0,0975020244595547
0,0979455131574813
0,0981091902802821
0,0971365114423355
0,0957982274315688
0,0992373743223122
0,0975082210224644
0,100197210473543
0,0940727699231771
0,0959134476929427
0,0956194107449993
0,0982093291121337
0,0973836060964108
0,0981578148915443
0,0961438549435587
0,0981806843111353
0,100201082283576
0,100098098499056
0,096660287200976
0,0982664785006064
0,0936536063840009
0,0980768901661067
0,0926525936904035
0,0964290254078459
0,0933407148183689
0,096445753523195
0,09627369446573
0,0988671742534209
0,0938740326589798
0,0950270309836347
0,0949361981460596
0,0955161015115577
0,0937276648558822
0,0935077957129793
0,0924110975744372
0,0980445760894157
0,0931544040771643
0,0967290993798999
0,0943444358172072
0,0941641840944912
0,0918231901006684
0,0982328758468745
0,0949581757769858
0,0948736130713787
0,0930326573893565
0,094791479863049
0,0895844485750904
0,0948476301374098
0,0924527655860407
0,0945217458981799
0,0912194456897328
0,0920444578766672
0,0907058879771627
0,0941021237534743
0,0909545771167282
0,0932712255576556
0,0885510351936543
0,0914540394923312
0,0879289068062592
0,0903038171585757
0,087139526067688
0,090622560105069
0,0895354034120469
0,0903341633914359
0,08566841355445
0,0923962267372289
0,0898511272026295
0,0913792476192897
0,0958754985246751
0,0897378606849475
0,087775127226843
0,0874488484887939
0,0857631588942216
0,0869276855256797
0,0856198869576861
0,0862553763963199
0,0870049770539226
0,0855059476012446
0,0829490107589838
0,0831405076259666
0,0849426961540819
0,0840073864423017
0,0824739985915846
0,0819774166737633
0,0813778334646264
0,0852669103614211
0,0828936921020771
0,0841958491366942
0,0834350029951353
0,0816532400627018
0,0839891156497879
0,0812877351156943
0,0815265592289223
0,0788954764366312
0,0939839425758487
0,0929600285811888
0,0799521735118204
0,0802476150641157
0,0827399188634746
0,0860662466884177
0,0811872843260167
0,083087754470147
0,0802394408837003
0,0826398703827758
0,0792784869391938
0,0836698313039065
0,0780927926147302
0,0812811222735597
0,0776295514951713
0,0832491706994067
0,0790023117907316
0,0811079206020802
0,0773481235318454
0,0814284130914599
0,0779486687860354
0,0797918441883812
0,0783143196941602
0,0791158631826643
0,0771718845850948
0,0802588714869735
0,0788891923580128
0,0926932847673628
0,0821825216327748
0,0848047157666923
0,0760233985173385
0,0815136588020584
0,0768479235844785
0,0833303582873355
0,0767857580844134
0,080262544589116
0,0753775559940821
0,0810088673687867
0,0753130232409265
0,0788491373746515
0,0794588570753438
0,0806511107298215
0,0730132258110055
0,0809135047236877
0,0733089401467109
0,0805862273318067
0,0744686003076274
0,0794723370975049
0,0707282745824353
0,0819555246041242
0,0736110822364571
0,0853307870127876
0,0683233712712376
0,0879527141222556
0,0952844803168294
0,0793180348326931
0,0789528428243951
0,0773142568925595
0,0764186997897407
0,0744790247246638
0,0726062679784677
0,074499400508523
0,0740276191733309
0,0773001946218008
0,0770583483769507
0,075242104894008
0,0750321264196512
0,0739026182703683
0,0742944879529293
0,0764482176230357
0,073957777307602
0,0735547607363618
0,0762403876297028
0,0722317840979542
0,0836252554551885
0,0972473087888153
0,0793205096974706
0,0818969699989534
0,0752672387147616
0,0713876581389806
0,103612077885202
0,0770175624576224
0,080926567925206
0,0728170494339752
0,0758510496068211
0,0709055869464467
0,0775450850972347
0,0713119689459658
0,0827497060607483
0,0818556385661335
0,074923472285156
0,0806405459805707
0,0736225718866649
0,0775175151278919
0,073392039200291
0,0783652953021128
0,073781469348954
0,0756227303120609
0,0705339967515992
0,075781709230752
0,0729279333244457
0,0719538501733382
0,0762330745509173
0,0697275486588007
0,0805359942778607
0,0801631264026622
0,0763044736989758
0,072772007403972
0,0778790647340815
0,0664171970368689
0,0856450439112971
0,0959283222239857
0,0725904314886578
0,0814582081376051
0,0683995661712413
0,0805185874497184
0,0732505523330687
0,0760322818331142
0,0703267458748979
0,0782158347591652
0,069221779171952
0,0772941002796216
0,0691208094764857
0,0763813926377715
0,0705673558611398
0,0762355755257873
0,071821006855822
0,0753409770245015
0,0710148421207077
0,0752910232074835
0,078788009448008
0,0769605495947183
0,0940488632496363
0,100758134005297
0,0939996166383625
0,0882227932076646
0,0814287824808737
0,072804452857739
0,0754157042143554
0,0736699605537942
0,0743568846441566
0,080583734390119
0,0737787170544666
0,0791259096920295
0,0748740442411208
0,0726686250853476
0,0732003246121307
0,0761700491918583
0,0693699027111787
0,0759723244439231
0,0710333471766983
0,0775474742188779
0,0697364696826705
0,0788711338737247
0,0684905174591154
0,0897380878296322
0,0783068606237628
0,0879297939906642
0,0653944151172857
0,132108053320979
0,0887012812550065
0,086491813232518
0,0824497525528766
0,0780185674571774
0,0729822975326653
0,0742520955179928
0,0739644765070891
0,0871930816150336
0,0747976556157856
0,0779357183825301
0,0740781865110194
0,0799856449646042
0,0770281403485531
0,071868995416804
0,0915996267711149
0,120839956121429
0,0832871066022061
0,0891142215800201
0,0683680205076904
0,0966128864232525
0,105636818908512
0,0791632685292851
0,0873466950925118
0,0802105429168133
0,0804291264357076
0,0769466958627796
0,0738992897943358
0,0788223429330431
0,0895476982728569
0,0795569761063916
0,078465558487915
0,0803460750481596
0,0748480034189125
0,0871769336212433
0,0775888350635883
0,0991967287965407
0,0916804212176324
0,0790206740886423
0,0881437247734961
0,0825891949089509
0,0817009475497645
0,0818598694682198
0,0807099848082562
0,0761420361093834
0,0965800281594424
0,0974971424306276
0,0823151490213192
0,107197727915101
0,0922216970203292
0,0841580275061053
0,0916951673309344
0,0927225224403897
0,0994571392174349
0,0711843418267904
0,112202276612864
0,108070014569718
0,105725453186917
0,110577651196366
0,0821440420447911
0,0921043647622616
0,079143714041689
0,0907187154105683
0,0750525454156663
0,116897013575562
0,0762650311030829
0,101354823212192
0,0707191958281759
0,117212880069901
0,0926361966272884
0,096501442929577
0,0873015095024224
0,0923652949306592
0,0808277088877907
0,117621228454612
0,0864896334203362
0,098332285440393
0,12648571667201
0,121890671922894
0,123949638781361
0,0964682675324279
0,0928988569152311
0,143164426825535
0,0881672939960762
0,103727380655783
0,0844396294352534
0,102993749643405
0,0846531839260843
0,104404774293653
0,129416993310011
0,0993430265605224
0,0972477579105175
0,101996665575824
0,0903316962383432
0,13873578544921
0,0993303397406032
0,106242543600588
0,0914511709779605
0,107521655816482
0,085664611925417
0,183930776528603
0,102602915824503
0,142818136516458
0,128635681332222
0,134474202587981
0,119879603896173
0,12312018379118
0,107027819096801
0,130291809542301
0,136222063868569
0,117550649494384
0,0980206314652982
0,142421394313078
0,135224146014174
0,115975328784493
0,129847467219564
0,115308667116816
0,121499604686311
0,165882973943829
0,18938917738591
0,16492719259277
0,127434794930707
0,132051494563665
0,163325833530302
0,128883620511887
0,12903711535163
0,126330816797622
0,127982345549202
0,127131788710348
0,128821411147579
0,150705412798535
0,130832709375941
0,146962422440336
0,133941213749218
0,145738373869706
0,170156657960608
0,221851064812295
0,182416626984841
0,160091795776535
0,204155306159795
0,179549407597513
0,167075850893667
0,151946821403201
0,15156621166347
0,170710268055085
0,162086019675027
0,163884571196097
0,153381631745004
0,209833302817159
0,172940495120849
0,201689311803731
0,196904490050753
0,1862973888431
0,189287589552581
0,19340603819481
0,427112682333163
0,213629771490841
0,22669555999424
0,205184563078149
0,247382443461871
0,284210786560836
0,233436788291068
0,222987317126921
0,226538691682294
0,224464130935208
0,244100416467944
0,251872914728618
0,253941716884884
0,276701140872641
0,261536364502077
0,262700140142014
0,3095042308536
0,364834975382891
0,364059423642857
0,315917300918575
0,298757693173331
0,336330570610504
0,336014549200677
0,312169185655577
0,335640129035725
0,323228187147166
0,360257075579138
0,405198031867389
0,365293825406477
0,366859835027295
0,365836667281574
0,423897119011069
0,365077812244137
0,481835829333811
0,429377473862952
0,423617302370909
0,404201717765735
0,420414200698124
0,421736163975085
0,430258736876311
0,469790819142793
0,465346159996764
0,458976252245503
0,454273236866846
0,458840789735779
0,472402228670916
0,482876484301958
0,486058780685293
0,489519554731513
0,568603879378875
0,52691049226
0,731942282582332
0,544839285473767
0,522507086986772
0,494380620513703
0,516091451228086
0,573791207840126
0,539783025871509
0,58730922109952
0,555436491392644
0,516677918285256
0,510585497789168
0,512925257348923
0,519791738666901
0,52483805377648
0,532612885987719
0,50795379909708
0,570973778256297
0,508031901321838
0,588003698906539
0,601671340825181
0,520590070340133
0,508342787032631
0,517143263587933
0,497861461601834
0,511767581306515
0,491289208782607
0,527027400653222
0,530864267525438
0,494282050508597
0,501968170001601
0,488576531574071
0,535915855382236
0,527556967245655
0,482326473705181
0,48045871051944
0,465635659515254
0,481426608603376
0,445539698499165
0,482995415937335
0,521911722201448
0,466524208112496
0,450787677383285
0,454747177714194
0,440559527877669
0,437712878364358
0,428762382120864
0,443153429117678
0,43505564331039
0,425472196809705
0,436248020724596
0,419325778975348
0,421693556481393
0,420760675887182
0,425748555139707
0,409172912563926
0,419468278174256
0,414304778023574
0,408763889639439
0,414124809291966
0,411862439638234
0,414863826320412
0,414235178407548
0,41844122030588
0,412922339196812
0,399946225510467
0,404563490012266
0,403980845447585
0,401286632268199
0,402233916403051
0,401454024165033
0,409834592183828
0,399855037625693
0,397029151511341
0,396419798768878
0,396375412285276
0,395266268395108
0,401730642633417
0,39061486006658
0,394034294363997
0,390501810250722
0,401995880410838
0,382624403230545
0,497235969741701
0,420775765017313
0,396103086284367
0,385072371785504
0,383018952260409
0,379634423371999
0,380053179181051
0,434379903851906
0,411862756543639
0,378238823979506
0,37605526848362
0,360979450219331
0,385421537538705
0,372862178119571
0,361880631880189
0,367043872527086
0,35577862788402
0,427360822080334
0,463882297189472
0,485662537870217
0,454271775571174
0,380639965049807
0,349115595514394
0,370346456282553
0,401366625951594
0,352617617112378
0,35378678879006
0,330574024867873
0,398842709277829
0,35922165770879
0,340141892018858
0,338754917781315
0,327075269851171
0,365522404461043
0,369869419790546
0,348998399166531
0,377275264944724
0,375111309744616
0,362438900189878
0,408794957122581
0,438889709359193
0,365310665102807
0,315820507669685
0,320725455500464
0,315539604538359
0,32768536699469
0,392095536052959
0,319184032996687
0,340094696293553
0,29604877946549
0,30263119747208
0,306644828968132
0,330785843416916
0,313720490522475
0,307882580898996
0,347390369494036
0,29244777316518
0,312642658834494
0,324987888206488
0,358441665238731
0,354251373755037
0,307870270654149
0,282966948542345
0,32713995018709
0,335973830232467
0,29993592685353
0,307127151874355
0,270131932544775
0,277660725170658
0,304038817690774
0,272271334399091
0,301203612114842
0,298915941355048
0,316383619445537
0,361612311065471
0,373704422109797
0,339459803066348
0,278250926571429
0,260415915492864
0,259872419534553
0,267412245591062
0,264618798881027
0,254622890109368
0,298991521185077
0,27342870499736
0,27045289368932
0,327252608109813
0,278609994533719
0,270035472218368
0,269160212755749
0,265171189188656
0,281012631505879
0,319181650753387
0,339583569494109
0,304491384260451
0,299554407559403
0,315892940666876
0,289892137742938
0,29629621426933
0,291721485088346
0,302826485073098
0,299819954797084
0,326781889515174
0,314166342307049
0,317911681384885
0,328599509104023
0,33187623177188
0,370433500497871
0,386421601896935
0,345111654714045
0,399092221460471
0,393941955238754
0,445613092692408
0,397088748209457
0,385811099933885
0,390094045345408
0,397744072967157
0,407866434297964
0,409678300579091
0,425813600286941
0,464202450908918
0,431350696432313
0,431714149239193
0,437253739653088
0,44220555428041
0,445858281449532
0,494901793773338
0,484113449175801
0,542163723341614
0,530947351863988
0,499249121428184
0,47557048046209
0,471200517895697
0,480629370446193
0,484971957118934
0,478201614463294
0,476317463505557
0,482584618566138
0,514886886850932
0,487055449938707
0,490058869057044
0,490664079259289
0,491117823752522
0,49538872031518
0,492747441447501
0,498323525695627
0,502092620691914
0,502222171213282
0,507592933128278
0,504104652895251
0,601239977428423
0,542938177589452
0,529967008836485
0,525799248668554
0,540197535742647
0,540877058561816
0,538217747180827
0,555735368316643
0,55366117512691
0,553184647511884
0,555990825249895
0,555472084898122
0,556080201677966
0,565228044639809
0,598734861045828
0,56775740879721
0,581786059673994
0,560716676177495
0,594859793455126
0,632898328004975
0,60905102763409
0,617924045482024
0,602199943387309
0,59679405252569
0,589436144576138
0,589248396999989
0,5956953695839
0,602516645613272
0,605192780690879
0,598138860828594
0,590033665849629
0,588400677606837
0,59475875779987
0,598623067594986
0,63757043736637
0,60250926117316
0,592994267176159
0,592986494890241
0,593126940221114
0,585223388690992
0,626398145418811
0,60433950605118
0,596236045005041
0,604137963207271
0,609938222020882
0,623081256189764
0,616580126347312
0,584727872461761
0,587653113415734
0,594267833175864
0,599982610547538
0,587007704619101
0,59941644899215
0,627702792704393
0,615875396594493
0,603653482496598
0,60132327690856
0,607923666292677
0,613596691543293
0,619726031759572
0,615371814788584
0,621816654592576
0,626234400364358
0,629136111510578
0,632525898155812
0,630773164024687
0,655954179563412
0,655693506416534
0,651457631502589
0,635865802421738
0,634252099022239
0,629648398679644
0,629440971956846
0,638638243596591
0,627215450269485
0,617500010769662
0,6179107641395
0,621662755270821
0,620667932595833
0,644616973045408
0,622070362817523
0,611836466181311
0,60962207865414
0,591477349472432
0,597115825212099
0,589023667884318
0,585608807233803
0,581176516290626
0,586765890803675
0,577628678316479
0,575889911034233
0,567097210570995
0,560548562119278
0,571210681117755
0,569917057336664
0,564712000207141
0,565088139031404
0,558515446413468
0,564595879135965
0,55821008741351
0,561528549134336
0,564279871683274
0,560933769560651
0,578684410839025
0,585289503990172
0,57903543081828
0,572591769456353
0,567840243419905
0,564347223307355
0,550707694248128
0,560594044177552
0,550504347187229
0,555284742339128
0,554016626960581
0,556503222781497
0,552170560289809
0,551111640109959
0,550007610125081
0,561854675943622
0,55508715629167
0,546134433111754
0,545500399406143
0,547649455868403
0,546970258503002
0,549064874480043
0,542373282227615
0,553857539123093
0,54626054336369
0,544592147856304
0,544026990664245
0,539039986421135
0,544717988538882
0,546335232743226
0,541247646812203
0,53874908865313
0,534904176279964
0,530299666358223
0,53520798831151
0,539934036988394
0,536895833536244
0,536867722415786
0,532775057588654
0,533123247774181
0,532229765325332
0,528953763499707
0,525720331420795
0,524065727847774
0,51474720989556
0,512885387054129
0,508571742606156
0,502614894424283
0,502881007133326
0,494911829097816
0,49603602159065
0,489284629348565
0,48225876775517
0,487357966658203
0,480368881414323
0,478639049912459
0,479112976577017
0,476182493384747
0,470559099469486
0,471795199432664
0,469454867600579
0,467404736173048
0,463110887922043
0,46469596545763
0,464669605999785
0,465294694329338
0,461369100549747
0,463868637055123
0,46597145345417
0,466510252878189
0,466137431245226
0,464325556509769
0,470227981890445
0,470522163462582
0,472894907130847
0,477902255189476
0,476480141648594
0,478876595429136
0,477708496020272
0,480972320535868
0,483642602785283
0,487054538117724
0,483728983667025
0,48932971781733
0,487217690851511
0,489918409105695
0,490643326674257
0,492331683681358
0,491453499746819
0,493911285647894
0,491012549388125
0,491216154520127
0,488835573220204
0,490352006597659
0,4881462987229
0,488873049272302
0,487915175569055
0,485922185710588
0,483747813874377
0,480489010266489
0,48255518986492
0,479067419527204
0,476705036571644
0,479795163954196
0,47747331453995
0,476452463875976
0,472839736406285
0,470850016757888
0,468592750503723
0,467586254350205
0,468203279418658
0,466540777389983
0,462919190063829
0,462377212512218
0,461382224866922
0,461393074968293
0,458476446182973
0,455342303730967
0,451300126620499
0,455146224949366
0,451445392034649
0,448859955572412
0,448299567360708
0,449025831410053
0,444471003622621
0,442296333199708
0,440099428460414
0,437779158414542
0,434228429933167
0,432470693963183
0,427698333170311
0,429406572137213
0,427196318949423
0,420149402204303
0,418646419591492
0,417314424708004
0,412331443212946
0,412225062105826
0,407831052883746
0,407267984654441
0,403446849326528
0,399934087515108
0,398030876776575
0,397463332814255
0,395884063075302
0,396839889598411
0,396644086033666
0,394507159784912
0,395036886370002
0,390352824184333
0,389924021594406
0,389989229353461
0,387944308583798
0,385351312091301
0,383430623553972
0,378089508347707
0,37499656178274
0,371077100119561
0,366240047241104
0,362204204548933
0,355572414923624
0,350453669262508
0,343470561318544
0,341855065233732
0,33801683328927
0,336865246512471
0,334970538136891
0,337565079781448
0,338390280471929
0,340459428934566
0,343860139965425
0,351329735480364
0,358878640199441
0,365804037136806
0,375242369800855
0,384526014493412
0,397771129909422
0,412884598598929
0,427770591944602
0,442480081935339
0,459035625594079
0,477943298616599
0,490126318389795
0,508062879904115
0,524563328059775
0,544076158170993
0,560419344652579
0,57865922377425
0,599795195694816
0,618577797612959
0,63783129802358
0,655456440780302
0,670714683563375
0,686958090043417
0,707063036908142
0,731027040790096
0,748022153965918
0,757089746189982
0,772274054687964
0,787313396482411
0,800049035827394
0,810234269317247
0,818970834311825
0,830707468142255
0,831528349140012
0,83150376102598
0,842017638466952
0,845238981340014
0,834472792847359
0,839227125615667
0,836681943784519
0,833979341301838
0,836321031693014
0,833245760187366
0,828360546397899
0,8268906459798
0,826819398581557
0,823796725017066
0,823914159717109
0,829567319724955
0,826813051709758
0,825762612473994
0,834879372031242
0,836006835972503
0,835969036283303
0,84549153570586
0,853763642105766
0,860033241258051
0,860112079115405
0,870258544258451
0,885141033337
0,89062087274809
0,909921777953289
0,917496248089484
0,92177262969977
0,941074846429463
0,938525239553743
0,948473566676766
0,959394878204792
0,965434547647728
0,988601398525765
0,989683630832039
0,989722403835825
0,994166527004893
1,00846856223186
0,990089994485371
0,987854657238573
0,998039621552864
0,98857979342489
0,98889240258316
0,990319810767847
0,983377502040056
0,988080781593536
0,991045448182111
0,990988734694234
1,00457939638977
1,02009883967929
1,02099063774634
1,02568394566296
1,04385500358716
1,06589017722607
1,07546882590105
1,07852577092708
1,08981261410528
1,10433606927426
1,11608414339034
1,13293746021665
1,14557124592658
1,16426244743479
1,16277557681582
1,18393501525274
1,22396757420154
1,21974793470063
1,24294388490804
1,25868719628091
1,2759774635371
1,33733379505209
1,35471258709937
1,37153065160507
1,38826337081308
1,45786142573486
1,50476442648148
1,46631673179342
1,45736484023523
1,51436796479804
1,52952849275843
1,56589164367041
1,55939529938405
1,53672103705671
1,5451803561339
1,57193796505351
1,5864806863278
1,63133902237008
1,647960999561
1,60546827951246
1,59021996782277
1,60917784215004
1,56489261507847
1,5666186051825
1,57010700145544
1,58488847865167
1,5970948845587
1,60890996421241
1,56050230095409
1,58106707473985
1,63349542798007
1,6144159822866
1,63186855194225
1,66708551740429
1,63331136369824
1,69040900462833
1,76356967383055
1,737318068843
1,69237415586367
1,77672649321764
1,70775082112473
1,66526182435519
1,75137073861547
1,76615366595162
1,82964025194162
1,90833940074946
1,84091698008472
1,9028492530926
1,95662109333724
1,99120349325569
2,05304186413959
2,047077199291
1,98966082625748
1,98673596350847
2,12478204945497
1,9670252607586
1,93348672201588
2,05080424032373
2,05329267160012
2,10670362147023
2,06128252309348
2,1027885394105
2,08255113138104
2,17764504299783
2,15718858999647
2,1645918719363
2,11626274892886
2,35519159303083
2,5086561165772
2,27344152735284
2,29568170658837
2,3735907254652
2,11652160007203
2,12694450397521
2,29401336764963
2,24874141569909
2,0149982630281
2,20817057859409
2,32562892598237
2,0046902474222
2,06973796374888
2,01006333059393
1,91787713225554
1,85471055288538
1,91679073932736
1,85010862407583
1,78504482801568
1,87090517882812
1,72754999286588
1,68804965689861
1,74565005624706
1,72553254814466
1,65778809427583
1,75031304052763
1,75267085100737
1,68943747137516
1,62122099759757
1,66164143964101
1,60952053184778
1,5983633167662
1,56542607637277
1,55384257434335
1,54998512646598
1,48311047397609
1,46840098172748
1,42285521325255
1,3622983972466
1,34059460878193
1,30129666063409
1,27496317807374
1,20810998214694
1,16093017202614
1,11794045261254
1,08565219888064
1,04402275924057
0,96152062661462
0,919691483151146
0,88786337616176
0,834405022431849
0,803781044902659
0,762632714052624
0,734622300941468
0,70797202782785
0,676781544267622
0,652433302115029
0,623539881254831
0,602270834465184
0,58339206335134
0,565526752036881
0,549074094879551
0,532918016007193
0,521918835678108
0,506132116590372
0,503004862084589
0,49894879308183
0,491940130807714
0,491965610426763
0,486684809267542
0,48150010622564
0,481669866373545
0,478367907800844
0,478525359041488
0,479551491455511
0,483994224347572
0,48317629250493
0,4821822594065
0,486830567744681
0,492080796114207
0,493246869770897
0,493187479811054
0,497669853209352
0,498974253624312
0,498320920822191
0,490517060617621
0,500807382346964
0,503564211530113
0,494196393914164
0,497783194676504
0,495763147524948
0,493571749375529
0,493954606748035
0,489516239459377
0,4867084333332
0,491605038530279
0,49236796431131
0,490205843138517
0,493711148385941
0,498424942055484
0,494831282410235
0,499063768403738
0,506509119474146
0,505952354420231
0,511820358810927
0,503030878600907
0,503289948881911
0,513716872001016
0,512732427033685
0,507801663070129
0,513219663520544
0,512430232126824
0,515597665157052
0,512781177464375
0,503625970890565
0,511757457693666
0,519317205036457
0,51201961588181
0,49821132378527
0,508564565905878
0,512503735523133
0,513289297545828
0,520819444000042
0,511716960750815
0,514718646225739
0,532740959100068
0,539009361179327
0,53716091228456
0,547995742977122
0,562520057592832
0,580144883139326
0,587131738850241
0,589414364072891
0,602750461510289
0,630024497740669
0,642084221323308
0,644776175303506
0,643054757755475
0,641439661088234
0,649141943792362
0,630816993583089
0,617443316948078
0,622384210733316
0,629864981537649
0,611656537402754
0,587893978104947
0,585032102489088
0,581854122515195
0,587853775347659
0,579345643978184
0,566979332729198
0,576140636801885
0,57660852087159
0,576007170851691
0,58347441881795
0,581868000197136
0,585400493814064
0,588194391107444
0,590981149548137
0,579064616205085
0,56614247898081
0,570588713684514
0,569608915364232
0,557929375235598
0,560497630241704
0,560559716905476
0,55938465867079
0,555849364110618
0,542554434746507
0,556869883653653
0,556725226285355
0,545892191146792
0,545830892040425
0,547796704489884
0,546083820453333
0,547259865848354
0,544520974671433
0,530990314144725
0,532971195059541
0,53709963222707
0,546356198748637
0,542430058270052
0,535455935938084
0,535862737046226
0,541439289383779
0,544673839550339
0,529242534275346
0,528545173484182
0,522275557523661
0,524255471727723
0,524252858807374
0,543683712583436
0,529035184227069
0,516296951989592
0,518455052829828
0,515251178329627
0,520825930541544
0,516212506049516
0,519036963462578
0,490672078641717
0,50421243391232
0,496194638138597
0,485860851374283
0,496658963970908
0,494646463929889
0,48714021192633
0,481689355967529
0,495077035024653
0,512836189475126
0,498878113693039
0,497064625298497
0,485062666267339
0,489358806797386
0,50076711228371
0,489928719309049
0,488746131511418
0,501621557595663
0,494463560322267
0,510463676692815
0,505602333375621
0,512824244840365
0,510518594181878
0,507689568935147
0,511909511909481
0,521850129966498
0,525169176157482
0,539209961685874
0,543454027003073
0,543851338041594
0,5305095784953
0,534223454480894
0,556500895709348
0,548954971609376
0,547688330369285
0,580172315034166
0,560942701302667
0,562891478469836
0,583734041008192
0,583681154126261
0,61114988020456
0,622594694343428
0,621109952912016
0,651761342204966
0,696935152140455
0,702493919798803
0,707639903361083
0,709140012068415
0,730759982855186
0,746945163788939
0,7528979236469
0,784453769466812
0,768526067507388
0,798248772702417
0,786584492704011
0,771247482776628
0,799621774496318
0,775844204047799
0,780017423434397
0,793922800937999
0,821312190716492
0,804866184009256
0,806754854395735
0,804042961273371
0,790987478091802
0,810422796343277
0,789758790204168
0,806735682393829
0,799546718739599
0,791629245178775
0,819889486888703
0,786175427036724
0,76352294610824
0,812664102566253
0,81938743010778
0,866625348787783
0,80509411868805
0,800511848215644
0,807021117163042
0,823078183373705
0,794368560036567
0,790999402573272
0,772521656436194
0,770928442366572
0,768056615498222
0,739058323096717
0,797706170616783
0,790526068845654
0,794971953178064
0,817873668168903
0,799338947955767
0,808002818433711
0,752597912441054
0,761301599484634
0,7298312258893
0,779813227648405
0,75800163030719
0,740679218715523
0,787731023946956
0,789241148326982
0,753579520682802
0,796572194558287
0,770588818455822
0,793000781767812
0,80392027773465
0,824173286049158
0,795636390417785
0,757344042895991
0,785718720591507
0,755361024523748
0,76694508433973
0,780626981616165
0,818623823277206
0,820806781586795
0,829592760443858
0,822204553622443
0,813667011115747
0,792357156320209
0,770217767011641
0,803102477256728
0,806483898947225
0,943704937591417
0,901656070345225
0,952548345142767
0,912158988960664
0,943223995446633
0,86312737540151
0,800008238920015
0,830726213749095
0,908841534878906
0,86343724778525
0,98967622144163
0,96272362977158
1,09360742611456
0,992414962023711
0,913017542971402
1,1014114301953
0,909748753292678
1,01331677994394
1,12174489326864
0,939468455668414
1,14105098852358
0,978179064175251
1,14375393626677
0,962345674417324
0,945050424161071
0,973894066243853
0,957416695316637
0,9735971942337
1,11109697487352
0,921498229882336
0,893443710350541
1,01921339695625
1,08787145345899
0,94315239964218
1,14881796140447
1,04054350734688
0,964779497636576
1,14830792191044
0,963834882569831
0,840313330801746
1,13686842305117
0,888226631155717
0,749356292624448
0,836536353673684
1,40568973974448
1,18209711022354
0,908118198330992
0,842975350989766
1,10747605188261
0,860188915193878
0,917432106815114
0,995616274338772
0,87026910314582
0,827316361633576
0,961507427138772
0,961766752893303
1,1582182791967
1,13950713662928
1,19873156028241
1,52275949103363
0,968824187284288
1,07821998492818
1,63559529600282
1,41298399176983
1,2506109241828
0,996214125625628
1,06626306182961
0,798883887818669
1,77971849038207
1,1119222426455
0,800814569664587
0,644668537192149
5
0,572726547317995
1,53338453960726
0,694290928492952
5
2,05137359843017
0,779534419028288
