3596
4000,36533379555
650,420452594757
1
2
2
0,117122864999965
0,111251487744036
0,114774068652782
0,105941336777293
0,123634419364963
0,116399896390326
0,118232010676192
0,114467336982057
0,11789732557774
0,114711182751073
0,113883075666318
0,109198604678212
0,113675167982435
0,106116662299712
0,115294374473686
0,114962044255371
0,114574768724507
0,112186984685932
0,117393291772898
0,10893084694314
0,112912800658419
0,106747830554357
0,110545946580677
0,110148164815952
0,115447637799757
0,117011616119027
0,116631261769908
0,102207360931498
0,119670625065996
0,114520036503219
0,10906194562245
0,105649872858138
0,111603540456045
0,113864838614336
0,122068232952331
0,107835676848985
0,117610042135333
0,114307070203534
0,110729983677522
0,112364702846728
0,120652842234958
0,105936263041111
0,113479587312603
0,114084917737144
0,117911141020953
0,112824191692891
0,117181815274081
0,110058395190518
0,109115546807528
0,106432391006284
0,126982282478718
0,114289861370855
0,114788037489518
0,117844420027622
0,123452410336403
0,134198751370613
0,115627842155015
0,105525213690294
0,112383443784145
0,110912674251128
0,14318070263965
0,130364649484125
0,113165685711079
0,116144928511824
0,112060497638987
0,113114269988011
0,104993517283705
0,110228595687113
0,113182781908147
0,105696122618119
0,116588987365658
0,140699092789167
0,143214528068894
0,108501744735743
0,121738636999431
0,110656643621534
0,109144267520612
0,101680702353875
0,105583087844277
0,117392557834466
0,136617270598174
0,116444937051738
0,111703165711941
0,09846819015898
0,114402109235249
0,126838730051621
0,111781599692711
0,116198613350283
0,14838878134413
0,119349277203351
0,111258867213965
0,105260289198451
0,113101144429546
0,099908777908682
0,104911204526379
0,101468442333867
0,105091649501136
0,0978174627124253
0,106993284078915
0,114890331773391
0,117782045859482
0,127494700141114
0,168029929620518
0,114913090751988
0,168059659420364
0,125130110656905
0,10441248590265
0,158075105956123
0,133525639010922
0,109438790638818
0,106786984828577
0,103738013405975
0,118567045791433
0,110605720083685
0,107357825859373
0,126902975768361
0,145696792186419
0,103675666333216
0,108567239228295
0,102307930028194
0,102468562445041
0,134985231695756
0,152137637706301
0,100581033646437
0,125469620329555
0,104211464019544
0,115284200286857
0,157158053211373
0,144659297877283
0,100999267758618
0,106032911798041
0,0926717739339584
0,0978217589874219
0,110115195826418
0,168826991231963
0,1114862625263
0,108380615856914
0,104821428801415
0,158044724301504
0,172464875773871
0,115255288911579
0,100399809917147
0,101252843531936
0,115828287107634
0,165771863139155
0,128954665170222
0,113046006756067
0,131390034189901
0,124771746304018
0,0968317666719342
0,102843749555646
0,0953132182916994
0,128239133625507
0,113356567063574
0,0954267363805126
0,144691068485909
0,190457055107384
0,126366536714646
0,167853728581321
0,106773898520551
0,116546702407125
0,101062371180121
0,102414661120751
0,10045607314249
0,11287028112845
0,0924363279416104
0,121686962564187
0,13688748004948
0,101827242346476
0,108932665200883
0,168893106672693
0,126823458526802
0,119314288898503
0,173695696217974
0,132698414545028
0,0997233660365588
0,143251949291553
0,119408381146966
0,104897757832903
0,109718939525698
0,140042583108324
0,0997842139892383
0,101296074222587
0,0964497368372763
0,125850830091796
0,121495237336384
0,111390861857838
0,0971585041399318
0,107219309198218
0,0963123160469068
0,13817976874146
0,163792831938706
0,156568064321645
0,117970157866195
0,10172904694774
0,0750210456433704
0,142620237641222
0,137416961381787
0,103052874137069
0,0871053671977216
0,100415275417384
0,096394828621568
0,0949122632378101
0,0935281432270892
0,101040845177951
0,0847237773090677
0,156182475323069
0,12723557772616
0,108132511866618
0,104434043130164
0,110870396910899
0,0978729188434878
0,168479855081368
0,132436959991637
0,10752144562303
0,101994769003773
0,0985719756963028
0,133400534357794
0,13091307671925
0,0931137003033599
0,1051262948994
0,0902041827994597
0,095831667443045
0,0914202008643916
0,100076840298259
0,0995355094480558
0,0986541749385942
0,0974390321626054
0,106249072779321
0,0974905358369194
0,115261008398311
0,108192461530168
0,102918422491128
0,103184053379772
0,10089030060332
0,119125023633578
0,132361268421094
0,107947387413494
0,102706712141366
0,0898270786853104
0,101151200984102
0,0974165675203023
0,106920323336379
0,0970630174441176
0,101469806146642
0,0975724736438114
0,152726829648437
0,114050317255603
0,0962828662893519
0,0945649060085191
0,133981778474867
0,120165571894473
0,109656009939743
0,103610149607665
0,102595981654502
0,093781031619963
0,108886938752248
0,141916277985594
0,119752738348316
0,104436975903688
0,131936011155488
0,113838150696622
0,109943758679701
0,0961211358211905
0,122405880876125
0,190958331874253
0,137839388575602
0,119030458733652
0,185265190024779
0,13602391756027
0,132330251138438
0,112120272101455
0,104219704700294
0,217858849283374
0,170040756639172
0,108493035125512
0,130919111736921
0,126779723805532
0,112816208475717
0,118745395334095
0,128300586651058
0,127135118813908
0,156218976143288
0,205745885299183
0,179721627638718
0,0947869728366047
0,154305154197967
0,142653083396292
0,127830303508874
0,108869826128286
0,111724072068708
0,12320854094617
0,139068063955191
0,134092858596653
0,149892522097823
0,115280168365912
0,12677221439334
0,155907586058874
0,125059040731229
0,108152057814865
0,136529050560713
0,119360166456982
0,111133798385299
0,104003314693249
0,120757196790506
0,119329263604879
0,114931890983377
0,126582568918856
0,188682752628109
0,133554419489697
0,131095200365706
0,141906435970816
0,127997531159137
0,105837700814115
0,11920648080099
0,110372920313563
0,109855968159585
0,102102174709196
0,116306571206388
0,146580008237262
0,133989695147462
0,113949055516886
0,117366265934262
0,107986380694033
0,115830506775007
0,112796448848569
0,121793368845013
0,11772255935923
0,132706114220029
0,114845964830288
0,163147704792055
0,151635167814763
0,126917884348235
0,163335443824217
0,174877356861328
0,125551391550656
0,124539895878749
0,128765857451834
0,139303809601104
0,124242166637695
0,124916293250125
0,114917380273824
0,137501203374198
0,160779397089741
0,153919205260555
0,137545179199709
0,155887296991074
0,218585036255946
0,213410306510865
0,162638315579455
0,14573199934687
0,124898361421211
0,193939495586749
0,170609977145506
0,197090040129315
0,173257392007286
0,153793995750573
0,146690675968649
0,148809353137592
0,144279756421292
0,151837888130231
0,150580262939953
0,165420988711363
0,154601872911279
0,163954645696816
0,161774139896656
0,165464741708925
0,176882494844241
0,206139420887444
0,173216107214081
0,177854827966967
0,173903735406624
0,176285077236032
0,220403290238034
0,238671344386501
0,240807231676448
0,218803380798682
0,232980176461787
0,25532393842722
0,212558942885284
0,197494267887729
0,183467893868879
0,209014247609837
0,205853960413152
0,203157714853836
0,194774509985723
0,215901521476201
0,206374031144437
0,22103831512429
0,208985458086556
0,214155781437491
0,215638150963055
0,259699397513846
0,233854725293229
0,23663265373078
0,220193570696734
0,265946684885914
0,324895512434135
0,31590315116649
0,25064983678806
0,269351037226736
0,23573961834697
0,250072854468947
0,251115678543165
0,262691202404019
0,257786910164596
0,284706010899173
0,317927198541625
0,304978992710506
0,302007215713948
0,301357998522196
0,277637212987902
0,331853501265566
0,294568255571016
0,31393203941542
0,32823194297508
0,313679883803485
0,285747222233052
0,358063793550298
0,31710278477661
0,342380308878979
0,327616478056386
0,328698058095308
0,30839316012096
0,330859630298738
0,321361808087688
0,336444413724102
0,347197777404212
0,350934266104185
0,350840049433992
0,366034764524105
0,343152625637865
0,347140001524151
0,368366411433654
0,374087161077771
0,366172447445814
0,374853245362697
0,35807901948214
0,384112339520734
0,370684333206379
0,425110480993462
0,413011049053232
0,43067043375658
0,419501265700997
0,415069617583228
0,392970883538339
0,41784650971078
0,39884737119415
0,407145008285882
0,424344466613063
0,44328456836479
0,427233761264257
0,434796758671922
0,437929047626807
0,459326515212937
0,44924481659469
0,468080665134215
0,46092085733893
0,461881109734642
0,44365150056377
0,482225449616166
0,469670781646533
0,534415994268425
0,506554863575761
0,564028838760384
0,512450762633518
0,510540242982183
0,5024437862422
0,526906452902953
0,49539887126022
0,525313400250186
0,519254038720178
0,542641012018703
0,530327573359477
0,553848408297372
0,528247333521502
0,54633094298348
0,552671561998159
0,586760449223062
0,582243009385369
0,613245970124268
0,544222875418375
0,573310561810578
0,559874300876729
0,586349800250652
0,586166699864328
0,622684377464045
0,580282786244349
0,620339368469983
0,593555423767629
0,620050185973967
0,589710845644015
0,646852452900578
0,626219266206128
0,649079638972764
0,60351846156706
0,665296180620098
0,673290118854228
0,690140307453288
0,650334147442745
0,678730307423017
0,639640898978739
0,689039901954989
0,673654851147859
0,719723877382538
0,712651921736441
0,740584595551423
0,690351126352221
0,736578239528141
0,69158748980424
0,732878883321942
0,698753917165008
0,746005467197028
0,689541277370919
0,7527005171445
0,747681552845312
0,727444817244126
0,720266999228692
0,767473334672299
0,732267739031591
0,779078000705113
0,732278223906992
0,803048632469209
0,783976029153606
0,804069019575919
0,804599040549466
0,855586177302908
0,782865750635202
0,846566708942261
0,773754201091078
0,832131290671516
0,842538363684545
0,886420985744349
0,79258397064974
0,870111130701969
0,854797349712928
0,923788246609925
0,821679971532792
0,846526292254839
0,842828448062382
0,850554192569125
0,845433324148927
0,915976409308635
0,834414640217344
0,910288363793513
0,877612951524388
0,93848265844381
0,889076578822591
0,939710143193742
0,892555027011607
0,913789501847817
0,936448275159619
1,00165159220432
0,909815584401674
0,985246042770988
0,854496402822838
0,982890628618859
0,93295898203342
1,00379835485998
0,975339076115312
1,02394583217362
0,981213739983158
1,03573017569309
0,949267641018286
0,998869005562657
0,987548054615562
1,04007893160766
0,990217028550878
1,026798140366
0,949558266350213
1,01898106345597
0,94987320756168
1,08946680672321
1,01607947898772
1,08117946169059
1,04189746318484
1,07521905003122
0,948386035135053
1,09586577501282
1,05729189537279
1,07718615688016
1,03903858104002
1,13248524638428
1,0502757580468
1,23472572827899
1,02885040001348
1,09918903151189
1,03453548177952
1,2257268425716
1,0367868902632
1,1070308182723
1,03793544560181
1,28283404205879
1,12994378817744
1,18440756558086
1,07281409824584
1,23586136673633
1,11169795089862
1,25178996626912
1,08209198490842
1,199382907913
1,16666245164056
1,16713942133795
1,12509541262746
1,25790080795824
1,2105799563768
1,17246779707447
1,17251375869507
1,18212473937191
1,15225299255069
1,20470153291763
1,21518233971384
1,28876897510831
1,16504008714982
1,31709409557382
1,22282726545897
1,45691433017907
1,12934434276939
1,20774042352456
1,24202987168817
1,47712322789238
1,26623096348363
1,52248467683615
1,25190509367106
1,3348287221045
1,23302504051233
1,32034725987308
1,18226711117662
1,26813127870881
1,15707087724015
1,31925369271686
1,38125177273249
1,36323073928157
1,23172056953466
1,36250802384773
1,19967532788953
1,37132356713293
1,26873552200077
1,46986635552226
1,23460160714161
1,42853904901255
1,19895324929273
1,35175798171398
1,38826615591461
1,43315563187245
1,32639178627833
1,56348422571739
1,35880295468503
1,49565734040584
1,21852713676319
1,52747325416346
1,33961912309753
1,3441521717133
1,31020114777196
1,68700678521909
1,36218673185128
1,40879079004508
1,42043459621949
1,46159523725814
1,34812397833314
1,53378840870079
1,43098112357025
1,48075276405156
1,28662243860262
1,56069138312275
1,46819734846105
1,44730717684608
1,3790185208488
1,64335669063745
1,41557894403321
1,63199612164891
1,37968738253017
1,6109653895477
1,31657826733399
1,4550764417462
1,43582764280862
1,3769438500484
1,47821007023539
1,5211682646896
1,27988203431776
1,49460104163137
1,45945445510334
1,52105041528402
1,57740068736672
1,48186501002305
1,42018608083086
1,60873338984923
1,36118627207678
1,56843171748553
1,47716943352713
1,51125448094792
1,38653611539616
1,53200820066669
1,43643754038235
1,74687350245389
1,34204582599685
1,63204450946189
1,37398439827689
1,62937141921121
1,40901660473359
1,44246969057032
1,48429009683048
1,62183224385132
1,44549378267258
1,60349259435416
1,50470784869338
1,55752205099908
1,51707383530154
1,61462281284175
1,42688414011419
1,50146783102452
1,47221441792282
1,47469279127377
1,64270126373496
1,45735170773851
1,35921010365623
1,50513593673882
1,45778504863763
1,4744975436584
1,59003803332506
1,71730748542549
1,42689619335369
1,52432807331857
1,49208260475172
1,72575591396127
1,48788887497648
1,48541538089619
1,42372811126073
1,64492251111251
1,54376112927447
1,57281955376382
1,51827691991057
1,61210111986993
1,54254031341967
1,58241566922554
1,39809909373555
1,71596802921782
1,56463811946875
1,46350278943186
1,38708848035714
1,74334999641986
1,5246007943316
1,54173386906906
1,57615636135899
1,63278930785464
1,44694355798208
1,57841318697929
1,5209160851864
1,83102457516374
1,65824318788882
1,57467283526129
1,59191930536884
1,54511291017352
1,60028194050269
1,58861981602318
1,44105903686328
1,62417145651788
1,39662306903058
1,4455655289251
1,4274838016984
1,56331340782034
1,62563893754219
1,56326280205005
1,53508556072326
1,56112105412986
1,59237290338812
1,67484361340954
1,54076986487237
1,67719425700412
1,47506867405167
1,52589762304547
1,5277042847731
1,59151448903287
1,48811250804855
1,54297052798133
1,50230471256253
1,74052412779843
1,46753832905015
1,63654004682414
1,46177785863507
1,50231990587124
1,35370027710171
1,47950852078033
1,54139354315313
1,64678454943857
1,60721903252859
1,53800832003683
1,4737541869098
1,79085424953541
1,41199515310724
1,60271201591715
1,43343004810828
1,55231100967368
1,47714368245813
1,49663604088892
1,35628691982715
1,61969079880339
1,46259916795166
1,60069231261208
1,5379920524763
1,4883997409384
1,50019237438614
1,51834709292269
1,42172277929016
1,4780729320484
1,48872599488503
1,44025482594985
1,49203198539497
1,52412624766157
1,60161672329045
1,68963940399693
1,43290090972997
1,4428687973872
1,46464662056787
1,59983164858557
1,36556812343734
1,51983928529661
1,38625391635372
1,50387093265262
1,52204810260148
1,45203676488752
1,33860787823427
1,47817275467832
1,39500656626254
1,51434552115293
1,41859650819677
1,49906342169342
1,52744282132755
1,57866691430472
1,40303628740661
1,4569386183386
1,45385312877237
1,41438770930351
1,40319118137378
1,39063740572829
1,33567913165986
1,41797186865981
1,38322974784887
1,37270421412007
1,37971012088664
1,46601298491764
1,37278075331181
1,43488205517381
1,39026597663311
1,43171845154374
1,44375264482795
1,36273824296733
1,35661728775304
1,37820311336553
1,34220599827204
1,40553383619939
1,31168321606425
1,32649529657604
1,29666234824283
1,3469683505142
1,27525489401338
1,34575382488259
1,3387378861512
1,45549330500567
1,25142311363122
1,38721798329891
1,30097640972095
1,3917629971024
1,26168784978368
1,34952701609034
1,27550966895921
1,27736512573131
1,27523241180663
1,3356699485452
1,24535475040081
1,31876942507758
1,19601628433188
1,29967962305795
1,13452420488171
1,30314464698504
1,22277942871047
1,26225543946789
1,26850520452892
1,28393878935841
1,21971886042384
1,32287334839753
1,21915955538218
1,22921115901568
1,27683704215176
1,23550801433549
1,16693740758529
1,2373576647758
1,13692672792415
1,20820584123877
1,17531967833451
1,21881818879428
1,13647826092181
1,20309233064301
1,14620872833948
1,17444099772428
1,11209085818578
1,18849785399356
1,10498742911505
1,13699377474516
1,09975960068478
1,13325724311827
1,04942335695414
1,10459555661815
1,10892657186989
1,10623213246096
1,06544041220282
1,10646935940871
1,08313977798953
1,08474760474244
1,07387488580797
1,10210483341461
1,0521333471676
1,05989354192035
1,05056207525888
1,04018107672473
1,03965106086445
1,02486653176882
1,02155076662163
1,0114929016963
0,993120187436786
0,997471160138835
1,00484648378138
0,993214113559767
0,994287252954368
1,02678998714288
0,969710582438541
0,996553702797469
1,00709331875853
0,963802520093093
0,953197609673319
0,947784041933521
0,93818596019184
1,00001549044019
0,941180900594145
0,967945355481274
0,954561747169548
0,938980337582808
0,912481868280069
0,962728705452174
0,89802683581486
0,940806617518502
0,891472850582421
0,900682376476646
0,886209572509578
0,894212866406428
0,881741136623083
0,890115797053947
0,888986934976895
0,898189018547236
0,8573528324214
0,896442549969533
0,838308566957643
0,853114368290157
0,862087722678801
0,885709209229606
0,848781321474699
0,862851002282512
0,818281695685582
0,845515113468637
0,820272769424133
0,816114980348927
0,814189360647649
0,822385224584941
0,789786845146203
0,804170365460338
0,793903381289515
0,811442454207355
0,778408162596783
0,805160076052614
0,783203107781508
0,780890771090738
0,768707339143132
0,77858238952509
0,754682486519082
0,769077964911185
0,744348385504808
0,759684272586002
0,746261659286791
0,764481479271094
0,737569714701704
0,748359252844716
0,719246263791471
0,724202367406114
0,712895573994803
0,735435803408013
0,721616478738057
0,740299513348717
0,694747889336491
0,704994925144232
0,700090047470108
0,708189735433841
0,696761342241547
0,709664842426672
0,696375534916937
0,679654858049425
0,680708326805625
0,690662430998809
0,661973554515699
0,660535287542831
0,64938274153352
0,666754694571799
0,657853504923454
0,671046154450865
0,656172855659755
0,661891751234143
0,629640328967015
0,646528863394851
0,624695308465885
0,643011116627483
0,638271456318049
0,644406745088784
0,625534810747392
0,635410656657988
0,605869768346496
0,612784085041261
0,606698283004098
0,599817453439252
0,598129634301743
0,607602428452699
0,592637232344467
0,600418151959636
0,583112072436118
0,595450682438265
0,584516360045386
0,582339474052097
0,587436042213593
0,594269947329087
0,570949093575883
0,575456485090479
0,563038848423884
0,572922551266077
0,55591551960773
0,558616740228805
0,551460467443992
0,554240132195525
0,54902110315433
0,560036039540595
0,542548239618152
0,556747647137912
0,537710383612447
0,54909366731794
0,536229810763526
0,547024200342039
0,521669803463988
0,539494046412367
0,523650011255832
0,528731904503317
0,524816397083039
0,525526404677619
0,509096034929627
0,518967866616944
0,508663310330525
0,521928024174094
0,506956935003204
0,510147056379088
0,501067782349134
0,513732999170726
0,494042442974097
0,505265727425079
0,501820147577307
0,502377645183262
0,493722422787918
0,498908161967895
0,491589472968127
0,500564349893378
0,479840171020368
0,492962040589991
0,48475134454717
0,492386757550818
0,480972668180242
0,487320058961746
0,47384740278294
0,48559798861432
0,475521565543757
0,478389625160076
0,476272513580274
0,493630096131664
0,475913743088013
0,479644980345113
0,481356692529608
0,489407965019499
0,472331254890838
0,4931047354887
0,477964552163266
0,489398807448314
0,480258211694355
0,492977244144973
0,482915222616196
0,488425617871981
0,479902696974239
0,50132583013207
0,485659049701962
0,498241037167273
0,497496221961458
0,497903664547168
0,492735164413038
0,505764866943992
0,492773707973797
0,5123459827205
0,493322483731009
0,515108459078472
0,507985819061563
0,521866351103558
0,500283180644346
0,51673037553568
0,510286368596206
0,521424531991577
0,522825354132083
0,524688567816262
0,528228719610473
0,532634494762397
0,527435845944038
0,533055431228171
0,522623215868005
0,545181212335744
0,536645117201645
0,548926015108933
0,553009824143767
0,551659853909724
0,543732165203047
0,572139879404819
0,558490317419645
0,568901809082638
0,561453368770375
0,573824899300556
0,580538540226163
0,594260481455973
0,58094865005427
0,60520985751731
0,594911279203161
0,615516656752715
0,605140633868135
0,63345478974871
0,629034301015367
0,627181898766169
0,616735237990252
0,643249864384915
0,627964396382315
0,653436618717163
0,650595378888808
0,674785880388036
0,654629866455562
0,668246162258803
0,660299074700312
0,691434883280728
0,666439021750063
0,668446839284952
0,679947419716202
0,691203491498453
0,682810819505965
0,702988996420308
0,690559515072658
0,681035772457643
0,683823729507898
0,691840566534301
0,683230887016166
0,704937568687464
0,668372306734311
0,69535814244472
0,667004664614923
0,694309854261129
0,687548279773051
0,676191292235864
0,668933347343322
0,655110073683103
0,651489166030138
0,670920345727236
0,649525803473277
0,670199365350805
0,650060714494693
0,655363613355139
0,66230011360817
0,668387347807478
0,639936108783201
0,651595131403729
0,637881419267181
0,652087109231146
0,639336482111563
0,647092210821318
0,626939283394947
0,636119715134059
0,636843710436193
0,649206992724814
0,642067206261721
0,648228820835516
0,634357001811872
0,653099852092817
0,640101926220601
0,64559451249973
0,643280384854862
0,644351109725511
0,626996810535974
0,635230751877926
0,628052343008177
0,628993025319079
0,625439166714389
0,647631799382753
0,613538228111663
0,627408097277016
0,628449377753622
0,631165225099491
0,615842579851681
0,61344521576296
0,610627637503485
0,621706318537108
0,594597225928143
0,597473799521279
0,592226017755328
0,596267832981458
0,58223152812257
0,594472619694609
0,576506403774232
0,575127013555226
0,566924971149716
0,573085943220256
0,564619858879627
0,561419055558088
0,561889023036847
0,548789613384419
0,536692028507419
0,545975388413847
0,528757103958164
0,541785087846517
0,529627630282192
0,536181460211282
0,522656074970317
0,529681669771924
0,51237809657187
0,529219488519103
0,512692635137764
0,521081897037266
0,507393978497245
0,507661214608225
0,501724895184481
0,500086725109778
0,485215003180063
0,498626147151366
0,488197489563115
0,498058797451008
0,487701336309258
0,488630453330488
0,481639304203875
0,488726207165654
0,474185397585889
0,48115585480687
0,46979983244097
0,46727514176446
0,460892222744514
0,466649846231984
0,462180629880513
0,464093808302204
0,448624947620826
0,449236328809612
0,447295779076661
0,451894043603907
0,447077742379399
0,458678369005649
0,450223587993582
0,447126825540391
0,437723365942247
0,43937378765391
0,435372415015927
0,44388044839122
0,4302412614611
0,43422483589231
0,424434658023766
0,427904649444569
0,421463091996637
0,431970428014129
0,421323751686066
0,42176014299655
0,413917643451225
0,418514553106626
0,416557961233748
0,422092357047001
0,411830677811913
0,413162121531921
0,409221914004982
0,412073771569012
0,402322416939118
0,408619673194274
0,39997342265518
0,406194572758978
0,402774493305489
0,39989390358985
0,397789257517258
0,400437698376836
0,396056362177248
0,402308711556656
0,402402017563026
0,397617007908677
0,39009994316413
0,394139108735281
0,390940231579929
0,389627733422441
0,389045098392123
0,396703931432103
0,384247363908604
0,387964614669433
0,381991818934781
0,38806491878237
0,380121401226919
0,386427298880416
0,379158728803569
0,382528489097267
0,383422945054861
0,383944991282124
0,375787980674394
0,383322726563623
0,374995583784894
0,382218940211827
0,378326997096845
0,376144651243978
0,383275326318535
0,372729778089221
0,370518003042708
0,372050998438594
0,367679086358485
0,373778415475444
0,363354747178297
0,367878249104523
0,361269017540404
0,376161073559206
0,36384338262313
0,37048784370182
0,370005076129156
0,366692259040295
0,355016488016158
0,35908272343001
0,359078237486461
0,367097195917353
0,364596716327073
0,364768754912249
0,359756595617455
0,364154079067613
0,355889570889349
0,360634886837011
0,360043563513935
0,361280607823828
0,34717679694139
0,357490000238616
0,356887160120238
0,35824646793235
0,353760418882621
0,356015813011985
0,350138992906265
0,351828130698861
0,350341883607469
0,355593647270526
0,345739292476826
0,351215183467407
0,343878551033732
0,355018640019667
0,350098994306123
0,3437292094152
0,34432475099175
0,345858927551434
0,34413831202553
0,348472804961671
0,345174223630584
0,35381880867775
0,342649498521472
0,343054788281853
0,338514512877365
0,342601976251828
0,34615436055896
0,346504097594959
0,34208645920334
0,341043751605653
0,337703565659808
0,338770092357485
0,336259000068516
0,337151284773114
0,335478137658601
0,341465365359098
0,342300835902479
0,338538115136988
0,331348416836049
0,339751447173444
0,332751097855389
0,336358215409679
0,335152163644225
0,335802714722845
0,334851751865067
0,337408281747719
0,33172400235115
0,334451622899231
0,333559258886625
0,335199068481111
0,330583046700835
0,328295732336537
0,328170489367219
0,335529992410747
0,324591896581178
0,322460265765646
0,321361759612303
0,326684270770802
0,324975250093868
0,328662937193759
0,32081905858506
0,323835707139084
0,318415803650638
0,321560340074106
0,318488309978402
0,320917688378897
0,316550707104068
0,320968058346051
0,317329790060526
0,319144346004629
0,31609621283356
0,316785810964102
0,315476614341771
0,314685465919058
0,315316651456618
0,316437215399822
0,3148567244717
0,312505220881485
0,311716136456061
0,312938229121357
0,312174164930446
0,311332493312345
0,307631444829109
0,312382944927968
0,301974229004456
0,308180123205749
0,309114174832301
0,308483075831612
0,304964953523799
0,30675233801559
0,301639728313071
0,30391435686624
0,300029324058532
0,299946466942506
0,299200649037849
0,303392427363619
0,301472150520695
0,302719094658959
0,298769778801075
0,299845666937585
0,29368420668321
0,295459950566643
0,2933711941496
0,296730881290027
0,294069397925774
0,297984260697926
0,294021704282321
0,295607695220214
0,294031736113162
0,293087582554755
0,287767188936423
0,288599784345094
0,286776006914199
0,289045922638235
0,28272314367621
0,286388403912888
0,2803284724541
0,282678406061592
0,283280045010428
0,27963021794169
0,281969055046829
0,279141782203813
0,278493412276258
0,279093011563881
0,273670107546152
0,275762398100361
0,269829820126855
0,273845200934185
0,270549657396847
0,27338813145168
0,269566353695211
0,271707634614646
0,271243507904098
0,26687271521472
0,26938179623629
0,269315412762882
0,265349468811564
0,268077058444631
0,266964035990964
0,268315309116018
0,2639954589152
0,264480024536382
0,261318438405569
0,263236903795081
0,263209853252167
0,264159915637952
0,260867982892708
0,259590941770942
0,259430640252409
0,263686378521597
0,261775866137018
0,261544224660792
0,263505735849279
0,256841508978175
0,256221406737935
0,259001304665751
0,253611875924592
0,255816887508704
0,25198140531509
0,253446271670064
0,25396491635194
0,257934118416857
0,253141849838551
0,250747453976239
0,252930517146213
0,253480292162385
0,250991877973873
0,254402818380748
0,253897815299157
0,249952677121318
0,251731624827432
0,250293925937193
0,24883440299526
0,249880083568959
0,243937771084462
0,246856527578016
0,248631062705078
0,247431038777424
0,242549718444423
0,246108325650136
0,243318561544412
0,241974813676106
0,241227947269742
0,245060770917299
0,242014043685939
0,243448672211957
0,243333069192844
0,244359144153233
0,240724382094751
0,241026812505798
0,242347218994585
0,242567800662602
0,239300979355782
0,242755062963892
0,240739926563971
0,241418256241609
0,237517042502844
0,240757185904597
0,239673846313094
0,237319627441964
0,236226689630909
0,238825352704218
0,239186109288287
0,240822372336587
0,236343834624898
0,237476799823179
0,23502280507452
0,234853007458991
0,234689636461012
0,238120455875113
0,2329048539687
0,237408186203782
0,233914260297125
0,231445109982173
0,233171825885491
0,235701891022277
0,235166081755117
0,233888282740271
0,233405031715265
0,235338846394367
0,231150633240202
0,231843882867934
0,233005756580928
0,231665224870043
0,231176610083566
0,231595548944009
0,229255690186564
0,230495109291465
0,227682377099336
0,23019965810795
0,234445767074418
0,23010891794075
0,225082045693421
0,228585461568529
0,228189441919509
0,231669840870583
0,226941432017145
0,224927579178996
0,223942076743813
0,223505789624415
0,225301453238852
0,227421716572974
0,222630839423378
0,222548677763083
0,222391448438651
0,222023719444855
0,217421802726989
0,21971697338923
0,22382125006643
0,223857496311763
0,219427750959245
0,22158504314025
0,221111503049833
0,219497149942156
0,21712099292165
0,219138976744642
0,218869973963056
0,219645493761914
0,218123910313249
0,219638780011843
0,217673841984113
0,216339971760519
0,217722888264499
0,220377111443933
0,218744379252214
0,219643740824089
0,218344605668014
0,21718953275846
0,21646633388139
0,215376407026755
0,217844737474111
0,216833093129951
0,214939545345104
0,215025473642165
0,212990247942096
0,209712785749587
0,213498246752678
0,215540020995296
0,215477786040357
0,212742240756492
0,212632387353281
0,215566037286673
0,21202494131179
0,211535319429095
0,209393084421518
0,21238053585722
0,211749267318998
0,210226116802583
0,208630310122904
0,209762613432194
0,210022456990004
0,208797079948864
0,207870672699238
0,209218509636635
0,208861217904037
0,20796464918753
0,205970435484837
0,204232917791539
0,204758689291918
0,204759816002629
0,205096677771245
0,207171582260336
0,2036194456481
0,202260607900712
0,202369716688681
0,200970296105453
0,200266335373459
0,20098192222509
0,198273436150991
0,201126716562848
0,199247690968998
0,197177677647067
0,197736184744228
0,196022217288537
0,19767079799856
0,199593155046668
0,197440644672178
0,195872872176711
0,197278234715029
0,197827491068988
0,195551350754608
0,19684153764005
0,193902487242988
0,191719378765768
0,192342052150243
0,193707583477108
0,194338186512817
0,193096007843398
0,195012893540131
0,194287436308094
0,191885426588302
0,191438673658558
0,190289037137411
0,18982948205944
0,19004867833217
0,187843679338122
0,19050692116379
0,190381735590347
0,187372532376869
0,188156853537346
0,185355900166456
0,184028483641448
0,187436244958337
0,187127785790337
0,185866649354931
0,186886305846864
0,185201458905819
0,183735954213848
0,180454467430285
0,181375995484276
0,184513851398185
0,184064424190424
0,180539564789262
0,179298138702957
0,18000398350971
0,181537698624963
0,178998261392572
0,176117482497829
0,177907192607984
0,181422200091632
0,178129337059726
0,175152065231933
0,177118378816351
0,17449704200125
0,176466798938132
0,175747681021076
0,172314603319489
0,174571720891944
0,174051357065218
0,173593606303433
0,17379637802227
0,171920792876214
0,171180123960277
0,170231896936989
0,169044302094918
0,1707924451606
0,169084568234564
0,170879006117586
0,170863029314024
0,170494100111964
0,167452535511305
0,166874888828661
0,169386925839263
0,168198756045568
0,16764174342334
0,168810311742008
0,167072042519064
0,165711113261733
0,165672924411013
0,168050719563938
0,170593310876928
0,167696199512059
0,166407716956275
0,167686930294963
0,166210892051907
0,17121006444245
0,1694610951735
0,171088642728402
0,172517735553104
0,169484080320598
0,172093381420777
0,172619226551535
0,171970330503077
0,174439110375432
0,172257060121709
0,174715727373335
0,17215263061321
0,170864876793323
0,169322314462572
0,166730694610052
0,168398596469255
0,172282972690563
0,175173162635679
0,175648994086653
0,167995470229608
0,164109113091684
0,165534745112807
0,170867645840371
0,163996877039996
0,167054284491582
0,167942916259101
0,165905938098674
0,1656127404621
0,159957317732382
0,162454716309895
0,16868877949422
0,167543588287192
0,167744800477532
0,1576051053124
0,165344505679711
0,16572090700566
0,166878171932534
0,158632177104027
0,161729676071055
0,159830777948318
0,161419320282402
0,16467845643114
0,168801753655131
0,160708257939766
0,165094199046985
0,16074753879481
0,163519207706476
0,157970518718464
0,159062843270854
0,153047177918719
0,157689478881958
0,152174942470524
0,155083708939222
0,155439469582671
0,163116946570407
0,159364742054082
0,16277803354536
0,155810885179015
0,153565734229672
0,153490969617427
0,167108414971708
0,168745881142327
0,159108099908985
0,15452057052439
0,156159651604033
0,171549377588685
0,157346426558763
0,161031135539194
0,15302256943506
0,17191070066472
0,156672697459947
0,164979415302083
0,151842459357199
0,172427806018261
0,15314065056744
0,165817627954943
0,156223466044151
0,162424179916071
0,154202894897387
0,159044108246054
0,155229555787113
0,156752229186079
0,156032881005581
0,158360135553212
0,151297058045094
0,152899788307791
0,148160993895238
0,154692270771889
0,148686584557823
0,15370799539932
0,150534599298399
0,151521344992316
0,150837394899906
0,152268204105604
0,14987794679085
0,150596009857314
0,147998444628343
0,15174382185294
0,145669921261203
0,147450545459811
0,147621150137003
0,151646927081544
0,149868753587592
0,150554201748064
0,145044708627438
0,151139677886551
0,149423177257209
0,149214258470932
0,146596472382416
0,148521929424263
0,145865825487611
0,149907727827591
0,146068542183244
0,148259155061178
0,147632222156635
0,150875495287117
0,14760310208842
0,149266637896289
0,14978331679185
0,152424821730479
0,146379875996715
0,148850432973211
0,147967533677386
0,150627959934633
0,148511463196441
0,151354456169955
0,148156209758418
0,149963695870107
0,146649059123156
0,149929079087731
0,14898600989813
0,151352211933502
0,148059577973999
0,150151671879663
0,145828488751769
0,150356547254669
0,148049298272273
0,149625674995077
0,149787733829335
0,151954260654355
0,148236031299728
0,150113164090369
0,149283300217113
0,15316808948559
0,148456485012301
0,149868514211878
0,150435448834235
0,150635605735739
0,148164287087721
0,150419964113277
0,148458744897823
0,150870295991925
0,148819716182169
0,149776428266237
0,14703663132619
0,150028290039071
0,147568990377179
0,14877930168211
0,148849088567829
0,150410701036123
0,14740321084361
0,151435410017612
0,15019444457292
0,152008693910549
0,148737181871078
0,153027272441867
0,149299670124114
0,149962574012648
0,148424319942901
0,150954696108648
0,149123303605811
0,151534206806306
0,152557827790718
0,152816779905537
0,149549276765716
0,151724397648243
0,148177354501243
0,151984979982186
0,151812125964865
0,152767539001501
0,148882576456363
0,151542006712973
0,151964552486775
0,154647771577425
0,153382034184563
0,155210189899431
0,152395871290369
0,15369710943369
0,151765439021561
0,154230325598959
0,153644844446816
0,154620069751575
0,155582140355902
0,15671749072905
0,151592161591645
0,155233803431772
0,155854770887524
0,156738359522588
0,152464675671718
0,158836487850076
0,152213486946958
0,153062170965872
0,15159436282644
0,155200613111189
0,153914952234538
0,156619553980323
0,154719705637507
0,158423562194131
0,157031419849407
0,158678655602294
0,156138910517467
0,159204128890253
0,155834683128717
0,158639223005997
0,155223251875752
0,156591129908883
0,15588801950519
0,157344807274818
0,156662501257305
0,159705944066555
0,155112699880422
0,158163781319995
0,159131591456951
0,159629110047985
0,157427610300107
0,157818665321724
0,15573208983689
0,159831298525278
0,157363952290207
0,160905443743831
0,157899335718555
0,161611562482131
0,158183748572333
0,159854751646336
0,159316607899355
0,161960209813741
0,158781769046538
0,163600436372717
0,160717924430021
0,162453744975417
0,16127264414513
0,161923601168473
0,160237873544811
0,163368908332958
0,165021975962647
0,166299043824703
0,161273204232854
0,164249937626436
0,162569880959872
0,163763549994012
0,160176197757399
0,165488255992629
0,160241519977555
0,163513079040965
0,162849172021578
0,164961761275799
0,162787384575315
0,166051516765763
0,161343964465893
0,161553742183599
0,163184823881746
0,163267704921438
0,157637286019612
0,160076056812996
0,158866001246544
0,159452689200038
0,158577610951182
0,164253700502148
0,16001903914086
0,160016723191072
0,160180615723942
0,161288884156997
0,15839641262952
0,160935695610167
0,15963342872211
0,159574547288547
0,157860485888928
0,1599984106572
0,155241918821715
0,161546544197424
0,158956823245914
0,158023190192346
0,156098198042648
0,160022277923434
0,156088160921958
0,157663878640335
0,156718878304499
0,159759101384669
0,158462744618649
0,159550441790284
0,154790864309494
0,157829028797541
0,15725091888291
0,159931679811547
0,155787676401665
0,156952130725316
0,156809923829809
0,157111785719293
0,155327458161789
0,15762630025409
0,154652967801278
0,159396630460375
0,155619139629201
0,157091505590094
0,155497288391967
0,156743211137487
0,152730644208759
0,15620408359494
0,153368075470364
0,156746700671052
0,154365354467907
0,157187572479797
0,154505069335342
0,155467381087403
0,153284241246311
0,158849592045425
0,153688493921602
0,154165345856402
0,154863558518297
0,156773231795492
0,154388577536583
0,15595758377161
0,152573926067832
0,155610150892918
0,153777307073283
0,156202520042857
0,152661860871242
0,152729472151539
0,150366449133015
0,152265594555603
0,149089452545664
0,15260015075582
0,150501168900836
0,15213162188443
0,14866230023135
0,152453614172799
0,150362461717545
0,152455936180091
0,148525757061296
0,153009677689582
0,149571988551148
0,151562585610421
0,155293178990943
0,151950135374234
0,147888639520435
0,151323867055059
0,148837220060774
0,150860760069683
0,147233583592399
0,147293220590109
0,146392240640199
0,149567112384992
0,149192113609529
0,149929764723219
0,147625080837064
0,151034256436773
0,148430592022157
0,149746094761946
0,147006487317499
0,148106764240166
0,146157545217851
0,150802012132047
0,148902002928913
0,149734828723046
0,143856249408835
0,146579609477028
0,142055291904394
0,150290126457759
0,148166010935709
0,14812419800495
0,142556550361222
0,145869611816034
0,143628466347539
0,145008017534088
0,142957415474338
0,144546128473684
0,141677776807338
0,144265602749161
0,14212044252082
0,143744731110242
0,140705073140413
0,141908050154451
0,137433430073391
0,139569448633539
0,137381143277981
0,139978339040893
0,133447147941462
0,139162868826701
0,134533697902989
0,139175392060762
0,1339782222945
0,139832425968752
0,135952766333983
0,137076198496514
0,139769143282816
0,135162857399247
0,133162723220748
0,134383817818281
0,132515050658097
0,132503181728291
0,129758593631749
0,13321611153402
0,129356211830648
0,128373834374004
0,127217071681073
0,12623307078033
0,127342734118412
0,128200044276918
0,124595164092778
0,125480130043911
0,127135618425927
0,128278876828147
0,127699045218003
0,126706160227785
0,126006344141251
0,125810777020303
0,124955376773065
0,124113475835162
0,12251250572524
0,122940740265048
0,13916670455049
0,137221989623983
0,127610710162746
0,124201973481645
0,126740137067967
0,129333960216299
0,124699930853834
0,127202283355404
0,122135815141889
0,12402032486307
0,12182037486919
0,125150910021165
0,120254036489954
0,123912917415246
0,120712957240782
0,122955868062306
0,120685902563774
0,123160655916723
0,119733719452324
0,122495362559779
0,118959565450856
0,119026697610102
0,121413352094386
0,121243218207618
0,120981004900519
0,12169182811348
0,122005889013889
0,133884890462373
0,125953194869313
0,124304708369084
0,11768389791499
0,121285697589723
0,118584487274467
0,124077398418447
0,120374272634265
0,122344236602846
0,118821802343701
0,121416989902129
0,116779542602811
0,117982577469132
0,117226549862741
0,120519646120068
0,116533633451176
0,122098919378071
0,114459011894104
0,121239554367545
0,113966208250302
0,119144919921035
0,113538353388622
0,123141797777249
0,116688701357545
0,125950558653176
0,110617630257593
0,13442448544914
0,130559021532557
0,124034213622379
0,118098299929991
0,117623798491088
0,116574864142924
0,116525134775956
0,114162753632423
0,11650758551894
0,113823024262754
0,116630569874468
0,114375793570263
0,116246230145855
0,115646188795651
0,116205904967802
0,113959503443969
0,115852772396692
0,11266423212745
0,115696686964303
0,114387859432323
0,112832942708932
0,122549717600469
0,138988775536565
0,119414699309466
0,119751155319657
0,111028199578895
0,117705992458054
0,140915466268861
0,118119594259659
0,118187105824328
0,112313115489614
0,115308640926344
0,110042759906636
0,118277796293634
0,107858935579215
0,121809796134595
0,117232599847685
0,120233434069574
0,121864935127459
0,113511730585527
0,113240937560132
0,110651113667625
0,113759772083203
0,110829136577532
0,112477417902626
0,107900405715644
0,113590764887005
0,107736214876669
0,111613339109379
0,114171318974131
0,107723872028376
0,12190063747181
0,117294618142787
0,113012447375962
0,110507459302428
0,115351796422178
0,10435948512217
0,127032027939214
0,126993463357247
0,112945416330782
0,11049348443557
0,106936072818414
0,113462089162925
0,110023710861607
0,112928904131358
0,108147491573567
0,111887607136819
0,10696573529575
0,111265971858792
0,107462869434141
0,112988843130966
0,107407844251981
0,112903120048168
0,106916551972118
0,111805149291041
0,106894238946605
0,111525902235261
0,111435989262678
0,111327878691004
0,136157257686877
0,137798694506106
0,136425886098899
0,125164809328826
0,119367388363435
0,108101001319107
0,112045811752587
0,105714161932902
0,110910268467768
0,115877847851458
0,112336329721752
0,111142702563455
0,112841012230707
0,108558903417967
0,10946436499234
0,10808822232406
0,108945390528472
0,108150395511833
0,109514316803817
0,107545975772476
0,106294173152691
0,107626574310539
0,10591653849272
0,123805019556431
0,115257741389208
0,116697222422086
0,101983445294573
0,170239054631935
0,124415148647756
0,126287341329303
0,108569110603327
0,115163576951516
0,106345903322899
0,105953529979674
0,110055356031255
0,12143339022673
0,108204905476277
0,111953359616025
0,105995617886588
0,113294700052016
0,10737316375206
0,103464709984183
0,127099898150478
0,154644948123123
0,117793366692817
0,121752183880413
0,0981627623991538
0,134665100385095
0,135942323148234
0,115131288881232
0,116961849879756
0,112339379015401
0,111449860199193
0,106634611994999
0,105741681253801
0,111042323220078
0,119950471466942
0,108694878862196
0,109847629529083
0,109245489248098
0,108968922096791
0,115077229474629
0,110911059161132
0,132431031928529
0,121644506813965
0,112958557792969
0,121092152756623
0,11591019310596
0,112563080173704
0,111406151612679
0,112890914646373
0,107712146153346
0,132501090612518
0,13064871074171
0,121421289303125
0,140739333543901
0,122772311582945
0,114977265462555
0,121380785663597
0,125945287856323
0,132000564444074
0,0994035519316117
0,155878992817039
0,132881339971906
0,151705686410953
0,137399050434956
0,117726491275184
0,116425544151005
0,115788639363411
0,11346447732613
0,109904681869969
0,146580347916137
0,109068610346146
0,128794201315835
0,101667996573566
0,15065587276669
0,124477480699938
0,129505869667964
0,114967072994828
0,119672981944295
0,111048147049745
0,154309734285595
0,110734933657923
0,136684821224223
0,154601487134303
0,157281215757485
0,162546187488309
0,120188913506155
0,12721224558743
0,167239040509548
0,121823010585077
0,131846176917902
0,111212968675103
0,133047320653474
0,109579452910492
0,145112764971991
0,159762284045395
0,128040352853246
0,131081591181647
0,129840250514443
0,12438276743173
0,169321693356009
0,131969102563517
0,130626950592591
0,121186611876751
0,135674278127413
0,122288429729632
0,223298572568385
0,127741480141247
0,184992190847586
0,153109774937103
0,174519513769353
0,142471841927176
0,155695223671369
0,128926434822232
0,170845768721777
0,162300916052962
0,148020846478816
0,121350869261436
0,185031263791339
0,157593874174275
0,151467673338371
0,150794851139346
0,140211200337565
0,146921663517024
0,210363368909358
0,20982136922609
0,199242025167551
0,149346571837727
0,160507432739268
0,185389475592738
0,153395736200194
0,15243566371589
0,144972287032445
0,151199139025795
0,1500599044407
0,149355433925203
0,17226543038059
0,149819450448661
0,169311330532969
0,148613182774206
0,17211385174768
0,187918846395325
0,263805047160446
0,203830451691204
0,189441798549887
0,223219578295532
0,199607881841192
0,188900548931802
0,173369040427895
0,176503579262833
0,190828974954799
0,180598789399118
0,182780510407445
0,176591674205297
0,238780393630807
0,191732236754105
0,237384490930132
0,211624532973585
0,209661449005841
0,199209102244757
0,230398617848688
0,456397346119208
0,234481743873224
0,248669075109389
0,219164917921354
0,283603938778439
0,302119709649587
0,245905762866605
0,237077934073611
0,246560315483246
0,234304276260979
0,256529921072551
0,265116754350997
0,266732684999245
0,292896202664463
0,274768603035263
0,270860746100872
0,320023217261369
0,384980435925622
0,389321603312942
0,320865224829175
0,306733636917858
0,334518454873659
0,336691885327681
0,316921251605722
0,338936566949573
0,314040607879026
0,37155118678464
0,391399394838115
0,368688015978438
0,358057396814467
0,372119036238236
0,407768461773466
0,360578198089324
0,466842823280034
0,402864653077131
0,412414032054737
0,385480817789712
0,419074483733296
0,391971653228499
0,41399954437574
0,46045745510525
0,454499976638818
0,428818339593231
0,43612789770544
0,442019343178896
0,441759902459831
0,458981242583227
0,456436878846428
0,463959547237347
0,534251576742511
0,494700203256632
0,814788821309613
0,517819820291607
0,49373650173578
0,46543448994367
0,49057963218739
0,528119954734756
0,525636244820613
0,585418787744137
0,525675707324583
0,483675113255629
0,488988167499846
0,48995154006118
0,49178573682598
0,486502260744652
0,502411120234269
0,474103321711451
0,535738608795096
0,471225987595005
0,567650390501572
0,565565183493399
0,509722303672544
0,469643587740673
0,482673892725339
0,465962503186937
0,489581332045045
0,456403739264061
0,48661200497714
0,492079606516378
0,46375872244469
0,458077718087752
0,443765502747015
0,495468331377998
0,478662542637115
0,447516706915957
0,436805983909738
0,418503242190064
0,428885484792601
0,396412251902998
0,477162170672456
0,467569643159581
0,416865047524696
0,395963148981244
0,398019972988412
0,383907963825688
0,388174834677572
0,372956378556189
0,394798466049189
0,376131372857206
0,381029073868694
0,375139228803573
0,369719015722961
0,35960582807345
0,358756510427076
0,365687627661991
0,354779451040032
0,36514133460443
0,350099004588472
0,345245844151089
0,350544119836415
0,342377481808157
0,349595686078707
0,344892974210189
0,347755915912852
0,348838823497084
0,329744623323201
0,335688532095238
0,337121385694026
0,335269313564502
0,330146367819472
0,334810265973414
0,332194113493161
0,335401445458427
0,32962393967719
0,324079771463769
0,324616655177921
0,322848891324828
0,329669347425737
0,322349558485248
0,322807101473278
0,320844750540481
0,32548062507199
0,314494089918157
0,4361632889298
0,344669421634335
0,335214710499205
0,316770659861
0,315966244476953
0,307665133159446
0,311060509295184
0,377328182101576
0,338280205399285
0,322473723491724
0,313211223489965
0,297105196863041
0,333967454505789
0,313507525460631
0,302288830208356
0,305539746880267
0,296243164600625
0,387425192688027
0,372732650653214
0,450114659215233
0,405195944200718
0,337515176748277
0,290974985440216
0,341159364860635
0,346413911418009
0,304037816598259
0,303883134729407
0,284623995809441
0,367115121840243
0,304931346551737
0,300395088721825
0,279519376647436
0,283262052389858
0,32819949074746
0,338033064037009
0,309962832918281
0,336534301007785
0,335751602339812
0,327249454754275
0,390769617377158
0,402092733906796
0,329602387620174
0,280018917681281
0,286903319930985
0,280655119554199
0,299921691628064
0,358446440276158
0,285852737091997
0,318226708113647
0,262881513674366
0,282101189231326
0,272028094477807
0,316283073076376
0,284034452355638
0,293522850748469
0,325328822878308
0,273472680342321
0,310736570582778
0,30409534343562
0,36108277140221
0,347352038316695
0,290854102421362
0,264173609213701
0,335189108099432
0,327700915816993
0,292299773484782
0,301624096674664
0,252206494428096
0,275673191793571
0,300138581962303
0,267366263247098
0,3112143490178
0,295367014993748
0,322992139527205
0,35944036868483
0,382482618621697
0,350279000162966
0,284784340818311
0,264040251881994
0,26612809771123
0,27735876460016
0,272102934884447
0,260492947257201
0,319552315907527
0,270774411144889
0,288028830728835
0,3357530746972
0,286904140232514
0,279264176055196
0,27964592248273
0,272386151583595
0,29306523120395
0,33394410696272
0,3717075616106
0,316170143354819
0,324366122877244
0,334184940008165
0,313331937487713
0,314939695180727
0,309216736145686
0,323685373804733
0,320726662330462
0,347049672660196
0,337260183529945
0,337055149462029
0,34623799597179
0,345199926680296
0,399048340767758
0,411337773789528
0,377956508553243
0,437731258642464
0,421209995787353
0,50256649338212
0,429385545272332
0,428197473468053
0,423436364267154
0,443675808726243
0,447778830725062
0,450466627317121
0,484341218447103
0,516088609274276
0,481668806267837
0,491231808446057
0,485810593973716
0,500117012334
0,501175334144443
0,568201398556104
0,533571990764898
0,66318625742197
0,57457711188006
0,572300328038496
0,537089347788442
0,535072790846685
0,55134178854182
0,549152750167343
0,53882313645946
0,5377348945857
0,546432060398363
0,59255157691426
0,545539922548596
0,551936834497765
0,546273906133885
0,546147383818968
0,547475375448746
0,559509039761163
0,553380911882469
0,560781154483736
0,56201503131643
0,565610124374172
0,5542007294743
0,652759326344788
0,594316817855322
0,58142146098657
0,584895195256609
0,599267886190747
0,586661220304735
0,595907192166083
0,613485019196285
0,611097013125317
0,602630687005676
0,605492022972162
0,602423154283109
0,612073322522515
0,620629120198088
0,656032430909223
0,616468722544055
0,633473364079502
0,611632978241584
0,682676888861604
0,687714400133427
0,666094811575685
0,664699488275274
0,653729402755714
0,646659497160887
0,640475783652964
0,642240332592721
0,648959193812162
0,6565197243783
0,651646907572641
0,647417603408155
0,635959961716025
0,632000689942782
0,643110786023597
0,637753241407465
0,666697771699095
0,640344868020752
0,636952566250896
0,62715982662028
0,637568250396795
0,61951092162919
0,663112022398257
0,638723734117108
0,63234122265855
0,627451681765289
0,641553684112891
0,654928590682546
0,64519330163146
0,608118647413196
0,611983421020282
0,611248037769751
0,636249023171827
0,608246139639171
0,634762678312215
0,655940033116306
0,645829450047218
0,636407323404152
0,630565041273995
0,626819818981778
0,635536622073314
0,639300561654234
0,652004255127912
0,652955457484264
0,662696652057442
0,669575414072614
0,663859342129747
0,670413268146723
0,689779625215572
0,697076438968338
0,702634200738827
0,68716281163501
0,696449941708647
0,686315611046317
0,69189084104694
0,709416449330802
0,707105265193128
0,699187494967931
0,714116983513963
0,704342802563912
0,695460837417624
0,740486275839712
0,70648429223482
0,721447356087278
0,694898544724242
0,691898360508819
0,695977703860448
0,680993420795354
0,686927897690317
0,684292349195963
0,690295856480205
0,673860301148584
0,672889235343371
0,669741517955655
0,676810921901281
0,674304966262598
0,674276024164547
0,664460014718662
0,66851940501633
0,658506502385999
0,663743353410533
0,663213701848043
0,659434796485157
0,653769259503739
0,656395415611201
0,681476266583978
0,691828325281055
0,68482336653055
0,672121289936797
0,67231061843439
0,667006037604114
0,651901458393031
0,664327942338594
0,656694477143736
0,658427689378989
0,643154349705391
0,653103277540353
0,638230518060113
0,644607142989181
0,638403517420042
0,632765483881683
0,633463022645952
0,633308395353085
0,621484327488411
0,627550415385377
0,620350060546686
0,619572177131399
0,611246413088073
0,625723575550741
0,60751530320415
0,59923886870098
0,601742639418732
0,596601169381203
0,595138840050914
0,602628412035565
0,595408308860848
0,589387208562755
0,583779246229084
0,586294990619665
0,58120353758765
0,582835272428856
0,582911110326948
0,58033415537615
0,573051407910552
0,577480920553042
0,577636670693549
0,572470218520622
0,570686685214964
0,567583192365454
0,567369756588099
0,565828801015661
0,564680428704802
0,564199312731627
0,550543307905651
0,54331052146061
0,537271113894257
0,538916683844841
0,528855639973212
0,529912127568219
0,526820190524547
0,51917618873364
0,516547554974413
0,524090484785212
0,514919940491449
0,507527546842074
0,509804757626334
0,506180445752736
0,507606318795734
0,507464622309916
0,502920202528388
0,50503795053956
0,504155163904402
0,506894770512178
0,503965608333152
0,503319521465444
0,501005422648708
0,508206947635392
0,499835381510532
0,50736762892768
0,506998044234112
0,509876786165494
0,506954805973024
0,510768433138358
0,510833161156795
0,511548525440414
0,512944145675152
0,514110711942489
0,514005442567532
0,518569023919745
0,510972599811688
0,520036280824482
0,51939951242465
0,521708518381157
0,515927968889093
0,522421093782441
0,520543388102475
0,517252862047348
0,517901859773898
0,516786423184741
0,516788571223946
0,516781339589431
0,51520073197673
0,516056494083184
0,51893730763101
0,519900179888217
0,512602358561185
0,515177644981947
0,513635700278198
0,518841920973515
0,516269361080874
0,5110375407363
0,50957614781787
0,508364338667226
0,504687413254477
0,508650813424243
0,506120557613276
0,503755907571515
0,498319249751338
0,498730688643862
0,494745417455358
0,496759223029093
0,495520810272773
0,490954202386401
0,486368820934053
0,488057599732607
0,479197213515991
0,480310002700034
0,471902843032377
0,467966867616558
0,463415976031015
0,462446828571341
0,457862417178757
0,450826777037321
0,45147490954598
0,446546260337955
0,439016047782789
0,439894630801091
0,433696560232538
0,432065547517502
0,427423553145373
0,426495825289617
0,425272365135015
0,427058549981892
0,425758452188981
0,425846906712008
0,426045637811065
0,422326078967991
0,422478490851438
0,42679682432979
0,425025901433875
0,426649943299932
0,428636103612905
0,429796403193783
0,426338499949559
0,423113624732931
0,423281217498623
0,421123121746997
0,415735290380113
0,413105906583579
0,407294296436741
0,400784714145225
0,396295867743245
0,391766661756894
0,382708088215564
0,374324004045478
0,371199267155302
0,36480404085993
0,360938359111084
0,353683176254488
0,349899696019653
0,349384223975577
0,342216256759788
0,342302827092798
0,339077012726535
0,342280879066906
0,341387498492403
0,346037968129957
0,350744783460293
0,354699393262951
0,361816128681161
0,368686724002388
0,375990893618192
0,388077995210506
0,398893438861107
0,413778712132412
0,425423459030202
0,444419683478207
0,461399132739439
0,486728691491059
0,503997551658154
0,53240905168436
0,557501291110545
0,589113771876983
0,616943877543494
0,653794284912581
0,683361360496202
0,723838329521983
0,757696224265412
0,799952487028957
0,833391798562526
0,870100017519682
0,898650332442541
0,942717459086386
0,978257821563432
0,994419460885438
1,0273764002288
1,05842195286326
1,07834288971998
1,09007914677786
1,10768087304952
1,13242630324587
1,1238557494556
1,13072014891754
1,12487258551615
1,13482420460987
1,12499529718948
1,09751121491733
1,08235908134028
1,08678340070888
1,06542763693183
1,04279736057805
1,02906131223593
1,02499711215802
1,00869513468399
0,996075416142491
0,981016990244098
0,969939004857559
0,959757007111796
0,955448468422405
0,959191046424514
0,949336650682121
0,954922142485029
0,951329433987144
0,955243481601632
0,967750508350103
0,987253215919232
0,980851873277773
0,985073196501197
1,00284543534544
1,01451383926043
1,01833279786373
1,02140331562102
1,02436213351637
1,04408926348246
1,0432070629152
1,04772596501054
1,06070022113063
1,06063261519971
1,07465494537877
1,09166048191484
1,08495173551002
1,08848558971845
1,10544549003208
1,11200610305994
1,11361706237362
1,12436743439461
1,12355487608888
1,11641093978867
1,12983074996828
1,13596096503337
1,15086104271577
1,15482303123074
1,1556925728909
1,16655946766323
1,15218501947236
1,14571380023279
1,14266769269013
1,14774466871997
1,16194855779821
1,16434052724817
1,1587280179439
1,16187345905666
1,17617425016523
1,1973576093075
1,20165299881125
1,23528878544219
1,27131658476845
1,27524435478122
1,29492850441196
1,33134382104701
1,38622658544216
1,41671080160686
1,4513399260108
1,50283066846545
1,52750701491108
1,58472261318353
1,58917578117588
1,63965360349538
1,62907446526818
1,64761354928312
1,63468711629481
1,63540945846351
1,67327478791426
1,68237200006978
1,58686717321546
1,58214523870301
1,57667685857723
1,55696862055557
1,56856769267514
1,55049284863269
1,53804318334087
1,52066511100638
1,49943842005231
1,51971731932339
1,47649132062801
1,59659809100163
1,53172398327699
1,55621626712996
1,5919354070415
1,64152301402819
1,59490737660427
1,67291607363018
1,68925575398201
1,69735576774476
1,67079296626008
1,8054894467265
1,84175901038161
1,91084986316219
1,82258328932366
1,81477878758238
1,82545704518459
1,93093718961908
1,97877372356718
2,03084174593832
2,07650261961412
1,99477276035808
2,03668375364203
2,0539304507893
1,91336323952441
2,19829824143037
2,19198600645045
2,11838023814209
2,42358293459514
2,35683697619801
2,14540283870405
2,34424759819413
2,26227456088549
2,64018940723689
2,2131826638643
2,35226718559978
2,33517698795692
2,34240257037391
2,34913970723711
3,07951774109836
2,80312316565163
2,79400842985468
2,66132135995672
5
2,41185599050296
2,46729158408725
2,45349992187016
2,65855490564742
2,50292245228019
2,78801256202515
3,0117729294566
2,71239888739265
3,09844211173087
2,36508072141309
2,25252940133524
2,55926340062961
2,47658251646444
2,35993520313637
2,21969779438815
2,50723011385499
2,32897712737672
2,94084587108286
3,41309153826884
2,84794306958566
2,70708248183428
2,61167213539778
2,7245794384191
2,40133180574512
2,36911786028833
2,96725551448605
2,26613498539049
4,00932371956547
2,55639741788691
2,18440269677374
2,43213648181343
2,3821730639719
2,56738046401517
2,27752345379649
2,12995449697372
2,12763766689931
2,06422722835906
2,03082497443518
1,82357497200186
1,92965466272486
1,84632215471444
1,77572101751931
1,6862532424314
1,73457840874825
1,65312428036865
1,57933093022366
1,53179172867814
1,51955021435804
1,46766479241805
1,37927921677957
1,33342210423633
1,31254630394655
1,25223262282656
1,24422951829082
1,17909701324512
1,15501216874799
1,11295986911703
1,07711083453742
1,01918134292977
1,01743668556511
0,96623276827415
0,937148491823026
0,904419484111962
0,874824266995809
0,849545073409335
0,82553714470228
0,816329976757107
0,801413818103716
0,783210638000186
0,76731793945208
0,746231870700949
0,744642044212346
0,729274590959822
0,718180556525179
0,705440206503108
0,702196221359842
0,703802475747508
0,707820570550601
0,704461961924746
0,712236356102284
0,712009299401104
0,717056714120193
0,726472110604903
0,744750327375849
0,75848683450642
0,766357184538681
0,781151414022344
0,791059824698797
0,806248527901531
0,817430964564372
0,830065375957035
0,828445838540792
0,827656317039083
0,832517666769862
0,840658092714356
0,827983550323489
0,825065868946015
0,846601727655293
0,850566078573535
0,854992813695291
0,846854289309043
0,852044342022947
0,848755989960294
0,854793079479812
0,845906423304486
0,84065794581452
0,826344649361355
0,826473653381768
0,831913106264496
0,816171525962668
0,803957042830081
0,802962266309019
0,78459591082489
0,793124005344535
0,787042743544684
0,774028058854235
0,763823742665433
0,766156732974304
0,738924248542857
0,738966947901374
0,729264981046547
0,725170342666747
0,729956910651245
0,718837448934287
0,723924577449489
0,726781547880045
0,726550198116365
0,723113007676826
0,718091181738348
0,721867279196481
0,728521281952486
0,734377591475737
0,743183208105146
0,755901072048562
0,750247373760256
0,738475326441512
0,733848167782395
0,736707493071008
0,723100850804348
0,72697436342467
0,716005922576221
0,710617820915578
0,692883863746473
0,689621671685174
0,703127577202129
0,68171571293481
0,673649698516731
0,677207699246491
0,654660316489663
0,658893601536255
0,645927582471392
0,65131518187496
0,664765471615889
0,653735211782052
0,65868328282874
0,675317604912231
0,669127838884325
0,673549429852388
0,660062032381958
0,680334000398959
0,691049244860029
0,681764466223576
0,690258907234151
0,701550922657601
0,725019107218062
0,741678652873639
0,733238582662346
0,732203608017143
0,741696214163744
0,760462591318957
0,759537129821646
0,753400136372981
0,75277271977677
0,773840085564242
0,756161573225836
0,748107601165826
0,755909185243875
0,77210852037432
0,787733241956325
0,780281918160839
0,780382562742497
0,785570951096937
0,74427451264672
0,773661425145631
0,80058635473415
0,766782660181406
0,777332881922869
0,794678762791644
0,770379917011039
0,771814681434739
0,780141363207109
0,782765620432216
0,762599282558332
0,750827403786796
0,767106584052722
0,772055636328288
0,749071857840216
0,755069575037106
0,746882824653631
0,739330381586447
0,728522240343512
0,724940754373198
0,732914154900146
0,731535623898617
0,706109459048564
0,690023205577125
0,693879985397721
0,698182325407732
0,683226992028773
0,701197018843929
0,724403568412559
0,696123610743343
0,683905911362661
0,697719158947527
0,675020433870733
0,68770573540052
0,718746247554034
0,6841934940247
0,67881509294511
0,696611416074575
0,719818995480932
0,721280924308996
0,706588849589954
0,701997167341211
0,71204070462606
0,730170989703543
0,681252619544206
0,693770811497131
0,725732331014617
0,727448308733199
0,721447816758015
0,753188546973683
0,762410887690721
0,757227865067239
0,736025896679149
0,756131708725317
0,755537368489363
0,748864781555761
0,755110232123739
0,758653901522969
0,794970851127089
0,817244857571736
0,838772759266294
0,866058177753641
0,832740920758569
0,854738396057613
0,886965078847398
0,84789720387909
0,827691227997626
0,891495202251499
0,918201310900106
0,897861406581445
0,901320437259648
0,840402643433891
0,920893310960889
1,0354087623968
0,933337263072249
0,94042295188088
0,939220095890732
0,958055149881291
0,874011290704746
0,895635073778889
0,993921968667464
0,971299638890143
0,975723660455618
0,944548503074519
1,02199647209174
1,02693376681253
0,992069239233012
1,05567122652949
1,08844192485908
1,03521732994112
0,960650037224764
1,04062022110204
1,0734622224223
1,04274806664216
1,09634506781058
1,08539323700438
1,08318317659296
1,00940520752823
0,970963700940967
1,04652995630822
1,12096756284194
1,0640083902738
1,00707439462427
1,04305705453888
1,10582584686043
1,07657329623673
0,983725298270167
0,975155534315481
1,06198391731543
1,10090385574657
1,02333482224441
0,98862007656601
1,0817961482326
1,07854711407874
0,983973035303507
0,975890670160483
1,13617440052927
1,07755874479426
0,96436968581115
0,984277393501444
1,02478640171477
0,998933531770545
1,06016008167071
1,04247767635721
0,987815823671712
1,0859832290509
1,13759148778843
0,974833628675615
0,982950080791266
0,992882283802532
0,946778967535058
0,980356580394455
1,05862842989071
1,07710491633723
1,11210569596276
1,12318128708423
1,0343168486381
0,943165668684602
1,14007477717311
1,08538601114438
1,01560194662379
1,05591065894208
1,18682106059294
1,00446381145367
0,987105269085441
1,3089417465648
1,37023280941481
1,25217011670957
1,44630933301415
1,27281104136804
1,19541521665519
1,15954205583944
1,07069605671323
1,31889221748565
1,27981805373476
1,17857123185712
1,65605018047158
1,21739203095262
1,32851113401518
1,39876130451925
1,27282217723451
0,956366532731624
1,09727189784302
1,14446101650146
1,31049840232344
1,22873305427265
0,97453032257766
1,02739285834539
1,33594323531332
1,57435075314817
1,37885796074059
0,965233283463602
1,21813116775858
1,55063839767657
1,33233858395173
1,18411842885055
1,38775270852764
1,088724525035
1,23068425670452
1,09146257188312
1,53874857898867
1,73114956347695
1,63459113224424
0,998335029396457
0,965920254391211
2,39346258003445
1,0102133602865
0,841749138300699
1,4687189480636
1,19880460518159
5
1,48048009067192
1,14536203953463
0,963642351505324
1,28527034818695
1,0841264422686
1,20580715614119
0,758775071884084
1,05231937982372
1,30348866216942
1,21770620339193
5
2,08300470859928
1,3855079421215
1,64234913111907
0,858724134559675
1,26169738140829
1,0162386322041
1,17567569739839
0,708407358721408
1,09971434789099
1,8606096830551
5
0,877668273342306
1,28774968636704
1,81540368437964
0,892969007378889
