3596
4000,36533379555
650,420452594757
1
2
2
0,0927844842858531
0,0897194914437466
0,0909415387467951
0,0887208925894101
0,0934457510000594
0,0917546866719468
0,0954695095007368
0,091087614407003
0,0895615011246987
0,0937857129292998
0,0945863562523459
0,0925559828987773
0,0836262425673871
0,0842993456730554
0,092463776150505
0,085780546219344
0,0825750016594067
0,0872984678281183
0,0905916953143118
0,0918298507923463
0,0846569828340789
0,0878909288865411
0,0905701915278555
0,0865287494401381
0,0863286341352824
0,0991510357861863
0,0911528372487992
0,0840861582623649
0,0861984555950794
0,0983897515505269
0,0913115923444334
0,0956803284317561
0,0884389431055072
0,0908888024070823
0,0932813273595641
0,0831329416838302
0,0903281324113574
0,0891449684830391
0,0899343457402082
0,0983131211236519
0,102357112856978
0,0915880615326223
0,0868070200112864
0,0912966430657655
0,0917395953586334
0,0919877670892589
0,0901141504767821
0,0888563597415975
0,087452848588007
0,0886277675786492
0,0991143788596295
0,0881952892768278
0,0971204935265423
0,0996790440192602
0,0978147907799854
0,11665438203704
0,091064962375757
0,088483612922524
0,0941601038272816
0,0935623089500749
0,112388979732071
0,116696691790097
0,0856038869573981
0,0984624199379727
0,0828858835041071
0,0923807124426524
0,080742633322015
0,0906007043018347
0,0784251666861448
0,0926819239572444
0,0905298437895188
0,11150231414474
0,11892961413669
0,0890349929175862
0,100851087153802
0,0957913766639568
0,0875723285995118
0,0866487615901899
0,0820750997756079
0,105755417170826
0,10300835522873
0,0991048304541385
0,0874029271646245
0,0795575229354966
0,0882205464856222
0,110493453755726
0,0884162898608375
0,096873534734641
0,127211107776175
0,106505816715988
0,0851446132864049
0,0787948991410076
0,0873169464774874
0,0840391020187674
0,0787529737701788
0,0825288476048032
0,0834363445638725
0,0885244481998199
0,0877953976683894
0,0961055092115337
0,108430036734079
0,0924689769418564
0,155653089500792
0,0908065364116891
0,158970913866113
0,105314482356464
0,0686523694600183
0,154920439875569
0,11306699873408
0,100987638618112
0,0788133162557003
0,0920597186793035
0,0923314064831184
0,0983347933802099
0,0861303525467472
0,117102224789789
0,13635640824631
0,086259360086293
0,0851556981285594
0,0920547798608377
0,0824593689451191
0,115137688418075
0,143238286486327
0,0835961486818678
0,107736936537577
0,0886317555859618
0,091256208257546
0,135453710912381
0,134028697910935
0,0799941185488233
0,088322759153576
0,0789395029341745
0,0913722057752793
0,0844996377404553
0,146271738072879
0,0961702331736427
0,0913230049041377
0,0967923511161196
0,129105275581038
0,164809336054183
0,101287723427872
0,0915752247044935
0,0780149118329538
0,100987583264996
0,157601574184701
0,114204580734919
0,0889400510345431
0,114599411854045
0,111378771443689
0,0733945807832709
0,0855150553498771
0,0811215548803727
0,110970117184959
0,0908510239667379
0,0721373931037183
0,136532354240762
0,192378711274536
0,117918091281386
0,168782111762715
0,0842128807067113
0,105007313801445
0,0795094820394877
0,0860892984614108
0,0816269450447469
0,088032422090626
0,0791178075122342
0,102153608231983
0,134397350547959
0,0821799369425108
0,0956782273415738
0,138656523608733
0,117536688846727
0,0949655405756916
0,158180004516383
0,116021076022108
0,078827251305428
0,135442325988828
0,106091721338751
0,0824369488953515
0,086228280586176
0,120052100059708
0,0795539736359978
0,0892112098593961
0,0809669872565061
0,098783553584846
0,103969188637799
0,0933177053773278
0,0875251417999841
0,0954112846648514
0,0784209078522909
0,129689943118494
0,147850576401049
0,137617515097454
0,0960963902801107
0,0955545177263649
0,0620873289919319
0,134225188985356
0,124666781007775
0,0826693124029322
0,0771228655159075
0,0776247066019762
0,0792917971686897
0,0803311857125547
0,0765453641095386
0,0885222371938978
0,0689560221347154
0,150058494123847
0,101250237578855
0,0889848861259484
0,0883487247525682
0,0990423123839097
0,091351297638725
0,137729680458861
0,128114216412825
0,0897988416409996
0,0903957815955807
0,0752244857131479
0,114019169842413
0,107609819581123
0,0723480101903254
0,0808289550015105
0,0694014841416227
0,078504328286299
0,0760623534043529
0,0801358558492777
0,0816105011698715
0,0821371242385467
0,0798809418208649
0,0860689846704934
0,0871391213008741
0,0923644623571732
0,0844431371731431
0,0804020351625539
0,0799829758918203
0,0758051443592142
0,0948581494328062
0,116381185877203
0,0846454728132469
0,0904871303245576
0,0719403944658593
0,0862119698685994
0,0786544171976562
0,0878519973209981
0,0775871126111416
0,0893128905641983
0,078233057233287
0,13747371342856
0,0874117624994188
0,0795491196497797
0,0770241783418385
0,109058843268156
0,101052941896592
0,0831211780463003
0,0894940441546798
0,0793015441361041
0,0761737659328518
0,0856479948128065
0,131441374464243
0,0973698712363638
0,086657420012503
0,107838935621261
0,0954792876801266
0,0841514696523848
0,0884957270716841
0,0826029232600681
0,176496117033851
0,11946202869287
0,0995495830260708
0,174092247219032
0,12112231778589
0,112988224516912
0,098471149609713
0,0717114788632989
0,215862312006236
0,149279387130976
0,0995281693138858
0,107831603478593
0,113344694520886
0,0852562346414604
0,0901020757302179
0,10038202941598
0,102490357076797
0,155178383027196
0,190129915178629
0,171643049074358
0,0777338061268641
0,132592065616554
0,130191927262749
0,0896974039361658
0,0840615371938615
0,0855458586303256
0,0993120498878447
0,11520171976
0,124475707020466
0,116750405559926
0,100240318651618
0,0952239787450752
0,145478896704607
0,0984098850345356
0,0906558925717406
0,109461944480993
0,106450604260388
0,0826216546807049
0,0861006736646963
0,0954291066157948
0,103489148851328
0,0897099112180662
0,0989697999463586
0,173618756164538
0,114437354977054
0,0976151078150229
0,132827590495717
0,0906621698927085
0,0878617516341942
0,0913292286893428
0,0852464728841012
0,0805614989165424
0,0839831411359765
0,0864518472083493
0,125949746398234
0,106635247792732
0,0904857240969756
0,0946829934546092
0,0817702968274927
0,0909803086110113
0,0864563114142903
0,0881652128045511
0,0919267365499553
0,102399262966228
0,0918547515823619
0,123413281044129
0,138916764591672
0,101717895064198
0,13711918716063
0,144959306540964
0,0936773663939182
0,0934265267517219
0,0874117387600106
0,104773286460663
0,0932074131114779
0,0973781669466096
0,0929472441837596
0,103424216780146
0,127095510569535
0,118519012632497
0,107409099237125
0,12695872253039
0,190081260171729
0,195443076233543
0,125489632599735
0,10937424234073
0,0946251767494216
0,150424289467724
0,15638535437968
0,138159494264427
0,150547551634961
0,109849422294695
0,111771471210198
0,113666393788995
0,113065642965305
0,106196280642609
0,112149086090156
0,118335765385689
0,113085299429332
0,11746974500717
0,121107375048819
0,117252943054904
0,137119568810108
0,185446772751974
0,137312562357501
0,129478558734256
0,127758819007692
0,132877024096098
0,180323079874074
0,204935863098199
0,195067310714124
0,191094355906149
0,178788661677721
0,210245350525234
0,156740253524423
0,151427686905174
0,136288252105883
0,152763056475416
0,156936415581086
0,151258876747311
0,145301259099688
0,156619665607724
0,155046002921771
0,167227416003048
0,153290129013731
0,166937670605862
0,163695066661904
0,195679397810948
0,173500827533683
0,173684106116854
0,178247051021222
0,211404922213829
0,269214359181694
0,259120856999643
0,196930668353526
0,189115340664983
0,188945957332529
0,183730300818943
0,19403859128725
0,196086768240043
0,209698805009734
0,21729808025027
0,249140230280795
0,247868364626556
0,234622974202331
0,22893768764421
0,205271736721194
0,2490971811562
0,231005626182973
0,244977297349348
0,257135790273196
0,23091085567245
0,22269567727576
0,263985035720938
0,270467522293657
0,251252488173069
0,259523285284901
0,2412090115562
0,237136523202462
0,243277753191149
0,245780748273061
0,256827225250566
0,271795370250018
0,269659124052118
0,262720110390172
0,278981142816313
0,259966541423858
0,271123055492875
0,2948060613716
0,278964005094196
0,276343866167794
0,283371662522402
0,26665220905081
0,297884948514953
0,283557458665684
0,325063515418742
0,335191759429635
0,327070441759756
0,340300440867944
0,308058726465789
0,296260475691676
0,317696140055013
0,308115810269142
0,305219421829768
0,306808831033043
0,326532520333478
0,328340634054376
0,324087597875471
0,31882498556216
0,332412664126313
0,33267947149248
0,336887483145155
0,34507025909518
0,346158142090452
0,339620382006518
0,359686161097697
0,369213722032627
0,42808291174121
0,412015568826791
0,43344423806109
0,408074958783609
0,374011723535361
0,382586491433492
0,409277444062635
0,392211584450833
0,399152591602801
0,404832668311585
0,413876065385674
0,39699772881033
0,406407403055512
0,418642411689796
0,431279719492452
0,416718724239209
0,439210729195823
0,441210606726052
0,454640766416968
0,420541964218736
0,433445609849935
0,423686809421066
0,46294006830535
0,472034524654928
0,477547018404394
0,480401358278057
0,491984794900619
0,472507612810523
0,464452890842663
0,456845121645747
0,482501406242597
0,487769966174399
0,511623627803286
0,49089959337127
0,516530019428631
0,517512757041079
0,503973955702935
0,504011925279591
0,525919506280694
0,509172597255276
0,535438655734803
0,531503176754302
0,546148481031768
0,527250617163531
0,554311900615016
0,55365402449848
0,565072695871001
0,548087046329901
0,572960812408285
0,585645722110705
0,570532433594342
0,554608049462918
0,585485869899947
0,594504092637742
0,589902980685194
0,572790224423781
0,582026107933921
0,570406666310913
0,606789328370828
0,606276811896924
0,61532323201636
0,606210060752637
0,635260397365522
0,666415825257478
0,681297909479406
0,607240094209937
0,648866679551987
0,617373687091631
0,635342349209808
0,669745286753948
0,683112517520591
0,682236615711765
0,661682695355334
0,655724448378948
0,712440866882561
0,657895196808102
0,676479176938923
0,699772131209491
0,722607748247449
0,722771497816738
0,756422878978269
0,721508738319228
0,720779684970154
0,725745689780824
0,716364032505101
0,693933194541876
0,732353660451527
0,712438111247019
0,741994288340125
0,740562015527153
0,779852677641624
0,735412747609297
0,778656770268688
0,788076881676105
0,758998000448913
0,748774549676499
0,814033356211916
0,778286283496565
0,792504107017926
0,779988116768228
0,79091862986225
0,751706540853012
0,831837686093859
0,813596264558967
0,819873281830015
0,785475300999498
0,821162638442416
0,809637207026215
0,816899414474018
0,84831543233606
0,857911910065307
0,811620105579943
0,857828310100396
0,840152194642001
0,853420821929221
0,819695436235801
0,839686535793372
0,845914885514755
0,904714724441682
0,858122072973527
0,934209093940624
0,892504391932657
0,952931424780251
0,91055807565031
0,978902097387384
0,918364377835901
0,963185094695367
0,912262777906203
0,915079535777573
0,898955817700692
0,955846558376605
0,909507725880292
0,926533479148894
0,948195646507907
0,965475707547397
0,893744895749351
0,959798235071447
0,952989533478744
0,937721395587321
0,925270133035078
0,982344116650809
0,935908169165711
0,995210173298502
0,919223979766437
0,993467683690891
1,03424278897018
1,00786427642561
0,945268156416185
1,03626028102581
1,01328985107405
1,07012383310889
1,01500696778031
1,03180847579386
1,02694769928007
1,08285935889815
0,983070972473905
1,05166970853805
1,07285396555981
1,07032899246016
1,0224106605174
1,11329443445324
1,01988176657266
1,03944566637376
1,00564876248653
1,05144021579605
1,02273365144873
1,09691873751209
1,08349651932486
1,08174758559729
1,00416923188617
1,09963609209936
1,10083777279144
1,08634945648541
1,04534148519387
1,1303077658503
1,07635792978573
1,15352611879273
1,03437767809005
1,10999629207398
1,05136337946685
1,12829310845504
1,11249285093923
1,21524243725805
1,1252743087358
1,18026152310453
1,14138800429298
1,1822668855233
1,08062053389067
1,16465474724602
1,15178546802925
1,06381528486979
1,20253190408464
1,31732934789041
1,07234547907462
1,1878174114699
1,20706732890145
1,17761775604217
1,15607208851943
1,26395862688136
1,11925765596611
1,21718425509599
1,14876728073654
1,13459773163732
1,16439350699879
1,20623908758561
1,10219635074526
1,18373987764756
1,16841921507623
1,26298010412557
1,17972314089221
1,207721738427
1,15320765892449
1,18959362139911
1,1460754364755
1,17983232063891
1,1963124772433
1,2581109906483
1,18861729710002
1,31967597006174
1,26756516411599
1,29849278357568
1,19342291294561
1,28048671519706
1,18517633831642
1,31710279298855
1,29282995057924
1,28985021002367
1,14828455119861
1,16082193458275
1,17735633819224
1,27363388079027
1,19222700770673
1,28902005206727
1,15776197392299
1,28713146881729
1,23076849044923
1,31839385197769
1,21021319899748
1,28659822619495
1,22485658103168
1,3307209757532
1,2371093420246
1,30732778992883
1,1990749729949
1,36027393621609
1,25383391775493
1,27053017085704
1,22599606538306
1,35268828064771
1,18228434960963
1,30551274979704
1,23235580772337
1,32988197611759
1,22499476947808
1,26448560144347
1,21887498614699
1,27146191350679
1,22612723005754
1,34978111676089
1,17750520113976
1,35445973903742
1,30214777097161
1,27457378155007
1,24301046240609
1,25111890752796
1,25727813083027
1,29699843004434
1,2022145053403
1,41223924044528
1,26265506414113
1,37925193965185
1,22448601581704
1,23911273238807
1,26905851198539
1,37678075601993
1,24103539268131
1,29745185007334
1,26731195345571
1,28125296433953
1,29729701077724
1,21058364617477
1,17378032964352
1,30125331888044
1,23479577270067
1,38970197599259
1,23201908982302
1,32112159668252
1,28023990541369
1,3409190438928
1,2422479051293
1,28499302279274
1,29720825172741
1,23928784723673
1,2332400717803
1,41324398728328
1,15796806317015
1,29524265519894
1,24982514538406
1,2793581976001
1,24428141881009
1,25322146958069
1,20435717230448
1,30092934387815
1,28651208467624
1,34359743417578
1,22838141179221
1,26012235248116
1,25545520828004
1,25757950311771
1,18113637108221
1,29074934397443
1,20657213273404
1,24120026064309
1,27617628107115
1,24485724812889
1,17988181849099
1,31639783717338
1,24193965262761
1,2226029906344
1,212966544398
1,2287137819034
1,17518342849343
1,32393444516895
1,18712188121041
1,23874829385482
1,22747631413089
1,33542489699618
1,17259037024438
1,24516472561728
1,20338967665349
1,2733739157526
1,23595883789041
1,26637825848203
1,19472100397228
1,25122927077725
1,21491482487621
1,30055050407999
1,23019716309388
1,20873946135388
1,19038424944215
1,23853331985973
1,13010422615889
1,2574892242479
1,22685372284425
1,22788540750993
1,18612250300998
1,24745250424102
1,18322680333524
1,15590855094055
1,14767495609047
1,20746135094965
1,163106828036
1,21520034773023
1,20249464357218
1,21068595867137
1,16330072988667
1,22123444349343
1,13564437269991
1,23421945659183
1,20169688561632
1,15499493741557
1,1513722659503
1,20680788080129
1,12227897098265
1,13630846596258
1,11538199154436
1,20814100525398
1,163598408503
1,19621041981427
1,10169279257995
1,16489023532734
1,11764483548947
1,1435908611071
1,09393412717451
1,14486163356538
1,11072555555723
1,13010026775263
1,10741231860338
1,15882233895678
1,10802198887125
1,13726483184135
1,12132437863606
1,11589374246384
1,08344776208834
1,10458319621572
1,09852618747926
1,11320811568946
1,05586245303582
1,09189324235654
1,07831864449325
1,13748056021206
1,05871701425584
1,08418944738329
1,02944407519036
1,06669992734788
1,05170611095367
1,07300161669636
1,04124747650455
1,09251066737483
1,04870486955105
1,09641933583611
1,03603147431066
1,06305445520593
1,00888300146787
1,01415682741267
0,99974727402748
1,0573636081077
0,991549796750466
1,0453239156417
1,01468316828566
1,02734476511147
0,998169079595844
1,01221356016054
0,974640829349445
1,02047237338035
0,962998633918258
0,990331591735315
0,968149413905649
0,998225966325262
0,961960114519581
0,99516343629029
0,941565372280761
0,949994515389172
0,961427578922893
0,977334039777165
0,951276315681983
0,963177269778314
0,928225618227749
0,969709342784659
0,910031316479063
0,95023319271529
0,922445437959548
0,941291620223994
0,914588800479898
0,927181295697736
0,87969001049777
0,914728147636416
0,878909817038005
0,896955182521407
0,905642344616489
0,892522634781979
0,882137071706327
0,907499137986155
0,86152250495053
0,884069763492494
0,862044121662392
0,871944168283015
0,851301414118527
0,859572688036819
0,84901641430742
0,888164214814959
0,834754355805231
0,857839299644958
0,8349328766561
0,861457040319446
0,818911833560778
0,870472818032175
0,834237316737067
0,822108245529092
0,80935399712229
0,811923815022427
0,788709756172068
0,812325818020641
0,790670957945813
0,830196557116859
0,802311989593996
0,802284502286493
0,780776851084191
0,804810053759812
0,760982714822616
0,785370372076193
0,756967080469489
0,771843684778189
0,752480370319753
0,784536964144312
0,743930760568991
0,750513929424815
0,737713860027128
0,760756582014028
0,758217456962993
0,741392853530422
0,719707784405158
0,745198420498749
0,722366957113979
0,728053074171435
0,692412960648926
0,714875934413464
0,720955041186863
0,736663629436114
0,718812588872221
0,722479249790665
0,69671932009336
0,699377180847301
0,687578611598566
0,705950534367954
0,671978699481696
0,697163903334625
0,66673988264053
0,679992950300605
0,668063059599413
0,674429692796672
0,659229010144903
0,662263872540067
0,658536785380683
0,6724490607708
0,645191930822369
0,644159006824764
0,639223200911615
0,650570779863083
0,627254361863274
0,641823130785807
0,631983059612048
0,638790872665792
0,618289083896168
0,622762902620227
0,611740747497171
0,625911923498536
0,608834181301728
0,616141628289708
0,606399851327659
0,620304424635077
0,597244799005556
0,616736267361904
0,585497739000701
0,6016293102769
0,589184709343819
0,588584464952235
0,579146242309083
0,600649900374927
0,589059754927926
0,595270613615241
0,566331249797943
0,571795680407557
0,562726149095463
0,57564019538309
0,556238460470088
0,573480455015586
0,55303339031303
0,567098454528548
0,562563410241845
0,565753316576369
0,553143265830117
0,545114169478435
0,54160193385526
0,542902539470144
0,535259856865092
0,546158670412086
0,529364022537854
0,530128747376799
0,52462389142992
0,531927704675407
0,520782812132988
0,523408135459145
0,518470156551367
0,521672755441171
0,513815887744198
0,523768575300352
0,500551933051406
0,520681264215378
0,489382557279719
0,503053090556415
0,497319003657773
0,494309029313862
0,48701219158546
0,500804758081817
0,497627859189423
0,485344895997991
0,484898159766986
0,485824946437185
0,484683908629709
0,480186080309063
0,486416617770885
0,482725815321862
0,467097908866868
0,465264842812637
0,465759727985679
0,477147077921653
0,466792267907622
0,466811957677199
0,447928225180823
0,472871512040276
0,454078611308886
0,460111000870266
0,447343953463892
0,452986446577875
0,440844980362586
0,456029347356826
0,432987500827983
0,443155656591838
0,434143096868985
0,435940496177048
0,433236277613356
0,438821002072483
0,428915520343299
0,435085901678684
0,425058010800305
0,43698596436451
0,436496365525607
0,428256755222025
0,425112423474207
0,431659057085608
0,419737507628765
0,425047420178909
0,420355499247887
0,419222412846207
0,41474771628498
0,422983794761572
0,413800026220594
0,409701884652391
0,412012300938748
0,415695252239422
0,410079578294333
0,420301939143585
0,412795871939813
0,414924997975154
0,408690882703643
0,418042923814087
0,406312728225144
0,414151392539165
0,403056749297948
0,416546081854038
0,409827281958133
0,408522613904691
0,41011519521884
0,426500553246987
0,404581208502493
0,407225788375562
0,41193251516137
0,409758272052984
0,411223983658546
0,418071266837042
0,412165790869683
0,427126175707135
0,413906380924801
0,429267133203431
0,413455063155759
0,431042384359396
0,41957351821147
0,433062013548661
0,427645972385639
0,436332710471404
0,424260760576316
0,441186495534147
0,426338232547459
0,435400976310108
0,432925862520557
0,440718469836269
0,438968001978977
0,447465457136437
0,441663581719398
0,456295161476957
0,448003478729126
0,44860743172175
0,442007546421944
0,460107277772172
0,456336613265115
0,461202040337951
0,45701168378393
0,47099532509573
0,461338526102928
0,466622374442393
0,466368314592486
0,481978693638903
0,473330774363842
0,480675804876646
0,481532105377746
0,502853160708016
0,499818764211447
0,499225457281739
0,495438410416762
0,504610572643822
0,503384206672449
0,513856255448074
0,511092810803137
0,522520570981692
0,511554088502439
0,528262097924951
0,52964330162109
0,541795763555707
0,54540997406937
0,535443410298093
0,533834623540661
0,548144358995882
0,527008965189905
0,554952698505751
0,538553191329448
0,537923924306394
0,553989290910175
0,555481415190054
0,554430006662723
0,551541407476916
0,548830171625026
0,554990115556767
0,554321421430352
0,552164014750833
0,553973528247791
0,554555526685174
0,53495825250841
0,556820410024183
0,545887284841795
0,555561951180358
0,535665653698606
0,550391451889419
0,541628729980261
0,553475063230831
0,538529168086425
0,539734149133884
0,534601518874464
0,550259827233139
0,54796151897161
0,548324259732513
0,539040484691207
0,546864823114673
0,538736236221459
0,549806406017054
0,539497119952687
0,559692940451199
0,547629005723681
0,539986701669842
0,545339390474682
0,552697259469403
0,544089478342857
0,551684707928504
0,543761436880861
0,557153545931412
0,542951365411115
0,554378297710581
0,544386104580307
0,552717802212019
0,541840789956264
0,550141230138082
0,537488431653221
0,553873057598472
0,545924685117951
0,547607218433494
0,539100460654986
0,552913668557499
0,537395190286893
0,538925644137782
0,530817990790758
0,543573496681635
0,5395707783094
0,535366265023245
0,532716030402073
0,539694290129865
0,52572491598421
0,524188433154948
0,510518776926439
0,531530288140047
0,510486863703933
0,523682900504459
0,514411816162343
0,518746599026156
0,512813494708699
0,505710865394101
0,494748091085698
0,500603248152322
0,492917007130999
0,493221358076839
0,485544074529097
0,489389912856814
0,479172806887894
0,484091342606899
0,484242227195119
0,475714017439314
0,468780027302186
0,470631418798915
0,461462324000895
0,464762009697646
0,458726745531517
0,460071863234823
0,455876674267157
0,451737018597504
0,441373845365956
0,450255321294601
0,437012836533183
0,437760269174922
0,433572266123371
0,43990114918638
0,420509021888198
0,435356643852717
0,42728429839031
0,425024551773354
0,418907379743545
0,421009703986128
0,408113374197717
0,416613611634578
0,410481230241078
0,41130536204541
0,4085508148269
0,406924736234333
0,402043437416275
0,408688954097497
0,401304616376892
0,401116512543223
0,392357656133607
0,395174991023508
0,387993465291319
0,39260326029236
0,38678179807938
0,392015712176967
0,385937905578015
0,384099834290779
0,381666952996092
0,391274337203431
0,374043756135649
0,379715062586257
0,376569468351814
0,381262546872426
0,372698593299339
0,373513142275876
0,367162723237118
0,370459269926544
0,368332333422642
0,369712944296952
0,363426648290346
0,368678059096159
0,356207085704541
0,367195066502187
0,362463818062177
0,358975565479509
0,354581774870472
0,35736289748824
0,34476744108152
0,354764698613136
0,351412638773131
0,352967895032247
0,349401294662695
0,345965046752766
0,344463917009451
0,352346671370016
0,339609309506604
0,345593433389438
0,338012605675167
0,344834487539268
0,341474031053889
0,341609103631525
0,337480227836112
0,334911516579772
0,332401861153655
0,335308395631323
0,325176745396871
0,337324046321495
0,328830141464226
0,333484882424808
0,324934369432062
0,334644840812467
0,32765064091564
0,330153048084913
0,321894066099802
0,332299761692614
0,326382618866957
0,328810029657965
0,323913985034273
0,328673390178023
0,319472351128976
0,325598394885589
0,322922421634172
0,323871399815599
0,317021431381291
0,320926527430724
0,31323241466825
0,317972449709573
0,314150020150059
0,315522665071011
0,309397924288372
0,315074306955298
0,312611121630433
0,319151961861262
0,310509291861616
0,313365544104119
0,307273900917926
0,31428545910182
0,30901932639591
0,313868722993326
0,303806977442958
0,310262802494934
0,301861633775449
0,308015735193019
0,299299114408178
0,308113161956578
0,301788111609064
0,305034532857121
0,301906693918887
0,303583312714821
0,297094311117501
0,303166891799098
0,293572387986171
0,301152367911073
0,298039910610275
0,299623698739842
0,297332430699886
0,296197641725384
0,296583105463457
0,300041268360071
0,295801882590672
0,296531825908554
0,29608279553593
0,298228160961768
0,290965915996844
0,293432398100402
0,298669597476848
0,293918692125621
0,295520399684954
0,292985725450085
0,294234985393274
0,295324462542259
0,291529770856578
0,290395330666417
0,288035737208062
0,293158507180914
0,285533361071594
0,291891562273425
0,289632989471612
0,286780848206294
0,289781425486138
0,291585863221833
0,29066529464008
0,291222732279596
0,285534213655778
0,291848405429428
0,280730878006077
0,29146421657595
0,280582401639583
0,287772236073757
0,284568706754926
0,279258158824333
0,283817067145557
0,283856152909534
0,277622803353235
0,281330353364061
0,278671398347545
0,278832466771918
0,275994438133126
0,27680732700736
0,273100406361116
0,27497761865785
0,277156136739179
0,275255900362781
0,272396318298578
0,273419917212794
0,270502079799905
0,270549791379632
0,274287715121901
0,275003811522882
0,270306805685855
0,266950464886832
0,262812109105782
0,268555133542245
0,264155230129988
0,266401672751528
0,260265744554238
0,266191111761422
0,260859131073911
0,264727057149775
0,259889935474979
0,261755140918238
0,262619724813698
0,261460597791505
0,258624026348491
0,261435951541186
0,256010334319238
0,255114256403761
0,255405235622327
0,257897223768794
0,256941537127913
0,255369796948691
0,249714929774919
0,253829110735343
0,250970166112833
0,248915815583402
0,24808914441313
0,251200683765955
0,249103297436246
0,2500402039569
0,246865747010204
0,24987970151186
0,24476566580487
0,247421426995993
0,242949488753132
0,247334087267784
0,244784078428893
0,245542768396288
0,241481567872123
0,238895939451074
0,240427623159942
0,243308444876565
0,232920376442032
0,238458918182061
0,235996105035952
0,236734199320522
0,231918428700994
0,236304418600314
0,229029211950229
0,230394584726842
0,226423934510127
0,227739298735353
0,228036540761309
0,224790240469504
0,222369850636576
0,224836205504867
0,223958518050848
0,227899719809069
0,219037793418604
0,222939611137356
0,22465526168539
0,216980462502319
0,217554489182828
0,217590924112078
0,215732712434383
0,216942155049319
0,216272895781181
0,214945844837571
0,210389937454953
0,21732725707086
0,21655567132834
0,214738067663844
0,211761529925803
0,211127927555341
0,212840721237824
0,212879330813167
0,21021605751287
0,207686265144276
0,203922008525039
0,207178184142911
0,205858832169837
0,209428543131591
0,204353561496463
0,206478066952032
0,203159123254332
0,206167765312684
0,200940071263795
0,204160306439644
0,196897415134741
0,199781026518823
0,197233818830573
0,198476073872615
0,198556931505166
0,196150488704189
0,194646414649729
0,197763842133581
0,194566509634606
0,19572358918614
0,195478371912738
0,195652614558949
0,190876532584014
0,19395426138053
0,192016901492362
0,192405052755903
0,191447046524605
0,193224408075729
0,18815004570326
0,188729401464007
0,189834988673614
0,190091243113546
0,184271338423534
0,189552758789797
0,190072979698286
0,186109397233321
0,183098899632718
0,183603839261201
0,183309537499427
0,185561895935192
0,184056374303748
0,183155274461769
0,182248937042915
0,184331488921504
0,18034480712166
0,185125598290262
0,17948839480529
0,178314317403509
0,182001164715991
0,18305407636807
0,179472044572263
0,181527209411109
0,178446003818151
0,181010617858652
0,175380561637591
0,178655132433664
0,176585505218112
0,174986458232414
0,176418930425635
0,180646262569839
0,173244139473088
0,172842144570745
0,173689182963944
0,175687270899991
0,171684035959649
0,174015275344583
0,174144319624715
0,174065548133839
0,175118581442359
0,175236024491309
0,173325677751657
0,173465010777171
0,172983187401817
0,172193580707596
0,170908453284441
0,171423952955718
0,168796145762894
0,170621024350507
0,169458220958098
0,169583248205334
0,171402090977043
0,172548210156907
0,170224764513766
0,168769377076642
0,168755434210672
0,168839077458967
0,163962144416989
0,16751452006144
0,165493302014837
0,167001143001317
0,165943390487335
0,16581421690824
0,162426281316775
0,15922817674339
0,163831114713764
0,166998664679869
0,166745639935234
0,162041556138958
0,161532594130953
0,160695807532728
0,158081172236699
0,161476757341772
0,160004770051999
0,160108628052913
0,158606028464549
0,159853077083618
0,158920454722738
0,156796379714542
0,157083044299874
0,158572909802974
0,158564360900744
0,158867971167368
0,156541434810951
0,158492128852603
0,156735755270494
0,157989829644253
0,156149315540141
0,157916292236644
0,155821802057737
0,155771216430489
0,157070977351019
0,154770631241101
0,155112692962817
0,155341460868529
0,155085978081624
0,15609273799614
0,155425236440702
0,154990327251919
0,151937954271019
0,14983034245974
0,150865172706177
0,151709656053131
0,153577714011162
0,150221841973706
0,149603456765509
0,15183346407547
0,149200938954069
0,146125472613772
0,146631604515722
0,147123938878004
0,148190478445867
0,148514332888439
0,147857807307799
0,147334169533565
0,145269200972719
0,146251651412195
0,147870770223411
0,147082055324076
0,145482046664085
0,141248129919153
0,142564178228284
0,141200071847031
0,140176994175642
0,141766834871752
0,1427106296429
0,144206333689294
0,13896868440273
0,14064327445594
0,140154719732833
0,137071581974458
0,137214820762161
0,140016751956689
0,13863903531338
0,136659267380639
0,133808674529776
0,133236427286742
0,133848499600415
0,132421888466098
0,13407027228903
0,1341701894828
0,133536758299705
0,132115114327397
0,129174950071484
0,131443173265759
0,132351745142329
0,129678911528818
0,129900751918665
0,128366124640968
0,128950616101569
0,130639262518164
0,13003195673815
0,128532762220601
0,129196642501541
0,126787506328908
0,128502965662628
0,128104324078839
0,125738318858413
0,125431769956739
0,123462167659384
0,124129387835424
0,124649134075348
0,123688942659908
0,123010339108321
0,124694988694255
0,123038729985234
0,121094805693329
0,120061611243087
0,122044924601036
0,119041460194302
0,122779224025426
0,120698759103885
0,120498900415797
0,121465445752514
0,119447117061093
0,117642297581085
0,117239795738517
0,115968321331153
0,114217321817734
0,115409896175477
0,119470014334416
0,11527277113086
0,114060782222002
0,11320029282504
0,114529233641332
0,115318370673474
0,112194816740287
0,112108479733901
0,111905459418934
0,109924202448412
0,110272549930131
0,110485039243188
0,108503180731846
0,109898203927606
0,11161788497215
0,108658486455356
0,11017402042885
0,109123214658805
0,107283325559051
0,10755288909907
0,105638477131784
0,106946999206882
0,108143147259372
0,106383048041784
0,105969903054505
0,106051194807523
0,106032227329784
0,104019658541499
0,102549607852299
0,106885130150376
0,106734579265795
0,104389158604329
0,103924525039485
0,102711291233524
0,103107672279998
0,105181851635039
0,10348951401382
0,104389160135354
0,10580974748261
0,103823521310759
0,107303799179129
0,105838972776343
0,108540740234635
0,110603033436337
0,10851361002351
0,109485030263871
0,107244603014192
0,108647918945175
0,10928931789563
0,111340700837083
0,112628653781642
0,112684156033833
0,107846663915177
0,108758589615494
0,107381944508601
0,107290890504996
0,109759696140267
0,116004842075351
0,115403963007467
0,108262862456177
0,102683351689464
0,106764000090161
0,106222658914862
0,104730031839822
0,106017069526662
0,109869933623955
0,104799042473766
0,106268747575088
0,0982141138217316
0,104126633799052
0,109214570567014
0,105277262596812
0,109172953956082
0,1049268321057
0,105735509588614
0,11212167444262
0,10386543930891
0,100458649453007
0,10227603700067
0,103042959356336
0,098185563793158
0,106562774374198
0,101817018220125
0,104922573892197
0,106779107117566
0,105846277456412
0,105091893117247
0,10628246324259
0,098863000867072
0,100958670080223
0,0973455158789521
0,101033529360275
0,0953140227026882
0,0961722028918939
0,099243581048931
0,107031898884758
0,103155205599273
0,101492756576526
0,0953772740952087
0,0950139789800687
0,104205792041735
0,112977706263657
0,103192716232691
0,0922745394217591
0,096324250102447
0,103132064887279
0,105254707491904
0,0980899670489157
0,1013219788636
0,104584698882079
0,107670628398173
0,0916531214425671
0,10358916047587
0,101313066983505
0,103571799335818
0,0979198211456816
0,10530847465159
0,0939772647871815
0,101752313755193
0,097765743023932
0,0956382406467788
0,0950016469982198
0,0932089287127014
0,0940085265048538
0,0933948928185433
0,0942339724115674
0,0904246086275423
0,0930584147831397
0,0906171601475722
0,0929388522085967
0,0921556606244579
0,0872557804060704
0,090464389479748
0,0897222750741435
0,0894910647998125
0,0886641432310039
0,0869303286032005
0,0897318761773387
0,0884838393899778
0,0875688689947594
0,0896638485541019
0,0875526760811183
0,086197632008189
0,0872519315446062
0,0881204042315363
0,0906317778474098
0,0876349208170425
0,0882383433862635
0,0869367953886603
0,0868302500193927
0,0871135936700504
0,0877748980685754
0,0867109193276024
0,085871864265095
0,0869338723074243
0,0856372167336529
0,0848222411220953
0,0870035782873916
0,0874007611981762
0,0873786150093968
0,0873380182849674
0,0861201943255424
0,0863777970012938
0,0874801658723971
0,0876472544234344
0,0871597744149759
0,085712387075165
0,0886465979248859
0,0873391199866397
0,0855409052826049
0,0857733682629008
0,0872972835134027
0,0871002884347937
0,0868477451637464
0,0836147955309256
0,086195593625647
0,089444167695823
0,0883521548353117
0,0845367421431145
0,0856075953101288
0,086640388706863
0,0894281133549531
0,0887311400357312
0,0872609172499618
0,0858454140168731
0,0858136474220804
0,0861111887947631
0,0876022345890775
0,0855684112966685
0,0861899188878749
0,0842330572924302
0,0854900138975938
0,0873181954539088
0,0877344317242133
0,0884246845744835
0,0864530523812672
0,0850851485141076
0,0868324670379508
0,0853741281631556
0,0878896110010027
0,0854188634698393
0,0861205477237591
0,0853600117066298
0,0855231999114237
0,0842230901694346
0,0877884407913842
0,0864271588893207
0,0836391835053681
0,0842682467342815
0,0870638265361191
0,0859588148814796
0,0856367706795117
0,0881801354161586
0,0895393321658756
0,0864282738649008
0,0881076315387392
0,0886053907143913
0,0879719122808708
0,0859348375640311
0,0866502225209613
0,0878021427426391
0,0887618343628032
0,0865289603415757
0,089142981176488
0,089052147947214
0,0905281772013798
0,0896877910618391
0,0904855671039877
0,0860804203180039
0,0874704511879864
0,0897226297885998
0,0891713051817329
0,0894428849374968
0,0906410000600535
0,0893409877001542
0,091108493086211
0,0912384412834019
0,0905351890155856
0,0903874039802686
0,0933422407872177
0,0910726713212903
0,0905323021051582
0,0904982237427825
0,0927844180023117
0,0884631299427761
0,0889567622483653
0,0897835210091766
0,0910205177481701
0,090741989513404
0,0895969869172642
0,0900230454000002
0,0931685155210277
0,0912816597041632
0,0919065450017949
0,0885625515646255
0,0901101313389012
0,0890605743668872
0,0899028370616548
0,0906303559634789
0,0919826229539507
0,0891282251341113
0,0904375400087585
0,0910470674894297
0,0913354938783595
0,0900215700350666
0,0913139930314508
0,0911968349737164
0,0933964557214369
0,0902400652570432
0,0913203783948279
0,092895144855007
0,0957769979108467
0,0941105889348379
0,0938169280548107
0,0916070348153283
0,0943258803051016
0,0921032017623959
0,0938714855597759
0,0949556876093366
0,0942881837500685
0,0926256937215861
0,0957004221458432
0,093033827975916
0,0943680336036399
0,096320309646383
0,096970723251167
0,0948076394620723
0,0951659925681409
0,0941497579474822
0,096231004647542
0,0934232989993871
0,0956304498296811
0,093816645051901
0,0963228563876067
0,0971576674886999
0,0966954947550352
0,0945303206155929
0,0944577251342568
0,0939135117625512
0,0940167448265116
0,0939449772832191
0,0935742863672477
0,0915553623923532
0,0950268597013748
0,0923826015354958
0,0936622686442809
0,0922977375147959
0,0937814349796586
0,0934442577673669
0,0932118234704917
0,0916145744718357
0,0921182035693343
0,0890865562172022
0,0918047419641626
0,0922439261331104
0,0935174000200272
0,0891189039562144
0,0896909143698896
0,089711916318372
0,0921566410231613
0,0903691639897549
0,0888358094641563
0,0881250288946628
0,0916638608861694
0,0890422716500174
0,0900405090980101
0,0905180081001535
0,0903517134418606
0,0890464736491954
0,0905392883232828
0,0878397048255769
0,0901060317618465
0,0885203080596703
0,0889361600404718
0,0878609948839742
0,0911569772531837
0,0895252042056067
0,0892558039824398
0,0876554962504989
0,0891937283478804
0,087757473700837
0,0895208717320634
0,0893285388022144
0,0902263088549102
0,0887460044457761
0,0890127244067048
0,0879971464170395
0,0901956870367533
0,0887346669072718
0,0884398030658409
0,084593066683849
0,0880719167911821
0,0863555366824659
0,0861706330157776
0,0860714829977506
0,0897664616867383
0,0888113440944554
0,08711502105676
0,0868713915361067
0,0885174195986694
0,086890900008301
0,0893256107849967
0,0870246486283224
0,0881034913778272
0,0868781134485481
0,0891467832644797
0,087552872082374
0,0874232593508324
0,0856129783828767
0,0877330391246955
0,0868780544099979
0,086388810895351
0,0865365182755495
0,0864944592337759
0,0845102163811619
0,0866310536840381
0,0844312638105052
0,0882402562182447
0,086795806159037
0,086486484362346
0,0843801035561537
0,0857274860031216
0,0890408140269696
0,0891849082276315
0,0855501396813126
0,086607331655918
0,084483902335508
0,0859263857366891
0,0845556810291442
0,0843793169100809
0,0843793046090036
0,0841633404831028
0,0844882693604013
0,0849252316832743
0,081811463485383
0,0872203222532253
0,0842104938951128
0,0850348437155319
0,0838345293176548
0,0827499934795995
0,0817830086425427
0,0841410552492242
0,0851752721532589
0,0879501246966403
0,0835312428352147
0,0827156137149512
0,0817826821035547
0,0889369985757631
0,0844871442342403
0,0837936764862914
0,0817867075009483
0,085488408126665
0,0823051851072669
0,0834359405981515
0,0810803275953131
0,0831215723174706
0,0818082493782239
0,0835352619514686
0,0809145614629393
0,0827254120119181
0,0808387530794567
0,0817093647012541
0,0793255055996376
0,0802651501534479
0,0780627268227163
0,0797923918489128
0,0765737622645506
0,0799465133999211
0,0797906281483308
0,0823190506984104
0,074983503823819
0,0801229219188578
0,0804524037234611
0,0824626455803889
0,0860947327768968
0,0807427561225917
0,0765508016228402
0,0793481303879274
0,0765889894313646
0,078866453300989
0,0757511929964127
0,0772025745620408
0,0768215376641203
0,074853335162443
0,0733187585548748
0,0751314623220566
0,0736402554312456
0,0761158676374537
0,0745538310179346
0,0734277587145503
0,0742934016929081
0,0754622392983978
0,0740910954043763
0,072257390858994
0,0724810676721342
0,0748037043005499
0,0731567335787493
0,0729687605130308
0,0722407693612291
0,071856069638427
0,0887600719990904
0,0877492969205863
0,0749582305895032
0,0729253334795636
0,075924023803278
0,0771326343409465
0,0731035655105752
0,0726967603197086
0,0734205569614471
0,0732300822275286
0,0701082263505585
0,0739910310971068
0,0709335771535292
0,0722850383307088
0,0694791220145982
0,0720223511227975
0,0725018828595853
0,0711299345847201
0,0710533942080286
0,073849972653687
0,0713030837421255
0,0705771828639883
0,0709113500464464
0,0715585979066096
0,0712263283582267
0,0714147733338725
0,0732595539180567
0,0818284709947923
0,080985238041188
0,0746074512019031
0,0695038664313879
0,073861544815072
0,0689078594694656
0,0720495631956034
0,0703600939799419
0,0726625339195195
0,0682776517608823
0,0695200105252705
0,0670910832969279
0,0684005602066936
0,0701407862128614
0,0708566250496727
0,0694064665076891
0,0694531435158703
0,0675543823342878
0,0697828970820076
0,0656931609700635
0,0706346504461297
0,0665026823456147
0,0715057432082392
0,0694947757466608
0,0760118979476286
0,0607828392671403
0,0858468441273968
0,0831160762216892
0,0755576173012973
0,0674604557173533
0,0715427870155788
0,0688233900590493
0,0664502979601369
0,0633520683039619
0,0688982907417171
0,0642058680234124
0,0681868740585692
0,0681916787448082
0,0686132546957453
0,0659669169540059
0,0686394738489646
0,0652655835205469
0,0684657785491427
0,0657560915906308
0,0653175447506487
0,0647000391890552
0,0651334674517384
0,077185317991505
0,0920721603303291
0,0723134587010713
0,0747038674522156
0,0643317402699999
0,0742696289127299
0,09360418312812
0,0752254909399641
0,0694608074226726
0,0640556413395554
0,0674507454212867
0,0644115318587221
0,0707927774049915
0,0626988472561362
0,0772405626986765
0,0720198533675402
0,0739793207436096
0,0716512806569669
0,0680579619833704
0,065917673955767
0,0667132105972239
0,0663833826453117
0,0662632496669539
0,0671676366138002
0,0654908418918292
0,066402800224878
0,063556572797605
0,0656645364288502
0,0681784239352134
0,0608859446480399
0,077019523002535
0,0761662407791437
0,069221655311363
0,063972787713835
0,0682211625642864
0,0584035262978575
0,0841285840210686
0,0819004058870026
0,0740548324586494
0,0658585481641379
0,0641593693812916
0,0680250926128879
0,0674613527415977
0,0672935779949707
0,0629370987671979
0,064647162825698
0,064072524995764
0,0665485865232677
0,0637365317084219
0,0669552470474872
0,0638347457345491
0,0681658233960636
0,0618496105860124
0,0675151052803045
0,0630893994960523
0,0680350841916729
0,0656329928595534
0,0720489038543609
0,0924020572169981
0,0927868289131596
0,0928153703025457
0,0812433733388108
0,0756265202377928
0,0629178328789099
0,0681916905455796
0,0635053032207348
0,0702781079310745
0,0686034589506282
0,0689416245595875
0,0663102643018219
0,0703278218135944
0,0629106781293741
0,0662624312136831
0,0634784842717318
0,064205879770164
0,0632461024423687
0,0668340369089504
0,0640956294447493
0,0677364386870891
0,0617003397734437
0,0656899683638358
0,0796364696524214
0,0781690030569237
0,0719581569141634
0,0668564030256133
0,120934714952604
0,0824625651702928
0,0851917609115492
0,0656187909838833
0,0721685791760607
0,0624741647584444
0,0663080391974689
0,0679556481173576
0,0781581014834996
0,0654660702787536
0,0699137781774925
0,0632302899850907
0,071135918607362
0,065591260365173
0,0646836279019372
0,0925666631464742
0,114647526910452
0,0811861388517426
0,078384026547832
0,0581073794174787
0,10028451630968
0,0935708090676569
0,0757819768628611
0,0742268322748616
0,0710596154442282
0,0686435269740374
0,0668424090216797
0,0645345357865871
0,0684425167747706
0,0777770033575144
0,0675079713343937
0,0702429304181484
0,0669918666959445
0,0691481833555722
0,0739942995639091
0,0719832235599839
0,090606158272133
0,0824648005010139
0,071394169999509
0,0795557944208023
0,0732950989529519
0,0704829257041951
0,0708483694295103
0,0721031780116368
0,0682004533914151
0,093137713252655
0,08751219042272
0,0837840676757859
0,099422413591756
0,0816104773876539
0,0736355363778894
0,0804096624105412
0,0870831652495513
0,0887066424578382
0,0610258574664022
0,114698069688222
0,0878369386090599
0,123550801446838
0,0905117688790257
0,0828092009804297
0,0734758611650603
0,0778365642172395
0,0697554672966945
0,0777213421857283
0,103182662117635
0,0761680766343811
0,0825185283399898
0,062420103615209
0,106844421941785
0,0858512444063144
0,0891598244917308
0,0774208610434458
0,0790399069368143
0,0772783708444574
0,112564800136414
0,0695581302278304
0,0974207409784186
0,108686788527253
0,12470186108694
0,124416620915338
0,076777167467461
0,0948837007467658
0,121594451765605
0,0866803253022081
0,0891401491757252
0,0737512105055514
0,0894015670023509
0,0682965122716565
0,106397909419474
0,12240852850865
0,0896799445302685
0,0897038918528177
0,0846937468392162
0,088649392830144
0,12429922373657
0,0943032558231604
0,0899445478745016
0,0840292711323175
0,0872819502487252
0,08642248259876
0,177798248559921
0,0871078856677451
0,145640815788213
0,107764006601843
0,135650222565217
0,0989549659498806
0,114059352833783
0,0871562706387707
0,13236483824362
0,1180984392148
0,107593592552154
0,0819271382043702
0,14849073517367
0,10589895076274
0,113610660025559
0,10215235539353
0,102473763576227
0,108511873691624
0,177945849013505
0,177944498618711
0,156788873087693
0,107665010478753
0,126937776190624
0,1446461082861
0,115470478604431
0,110212778648212
0,107597928732464
0,112438626650933
0,107719887556308
0,112729513898224
0,13035217668073
0,112001752343976
0,129209674006439
0,107546672884014
0,134741286273723
0,154501183726081
0,225775732414952
0,1578816107917
0,158125495591812
0,174705608177023
0,157603092673583
0,146369228327409
0,127778791265411
0,132439075018357
0,14553566118123
0,139233819068569
0,137330826724895
0,13445980437908
0,188971506441416
0,147092890150211
0,198599256822118
0,157477190666235
0,165825769970103
0,147306018411064
0,212229647413293
0,350903514105386
0,190621680900407
0,196253060876899
0,165230270070153
0,240195422374294
0,226463242868984
0,196848217703128
0,177097385081631
0,180757675615584
0,174100500297845
0,200628022084373
0,200393140424668
0,207414992921098
0,228461605100457
0,203436425992389
0,212311738905581
0,267803338396617
0,324581331247172
0,32735606742265
0,244435959200585
0,239473400766921
0,267217850479074
0,264799281990672
0,244069074718708
0,259856711304974
0,237449914914516
0,31868051537202
0,305061931381468
0,29851749261276
0,268819750889979
0,304685051119049
0,314079445062499
0,294475061661117
0,392175187560008
0,321739360769127
0,338334053214977
0,29540564438675
0,332110739201618
0,305920034168933
0,339574068525148
0,365094207272539
0,360083719656088
0,348656669211296
0,345855591698645
0,346890091505524
0,352261299960008
0,357509123748572
0,364526690667529
0,373141116952195
0,438903274457639
0,416760856357228
0,701099791333284
0,405196588624496
0,406329385775024
0,357473237887134
0,405620738525776
0,427034307994098
0,429264521613018
0,481502762894902
0,415294696153289
0,389954676861305
0,390636180188157
0,396027814760832
0,382823742766393
0,390343155026223
0,395692018266871
0,385720169962493
0,448169008717635
0,37701583216255
0,547621359819447
0,435527418678086
0,425453681866612
0,385229256648793
0,403092291834875
0,381389252207
0,403723236085967
0,368572259478661
0,417273469141074
0,39677804566862
0,393234432734996
0,381956981576416
0,383035154625739
0,424382379570119
0,412870896758129
0,388339551062166
0,385875094799896
0,368177401169563
0,385054671234416
0,360623280445594
0,449886018742357
0,414167245576133
0,388149754708814
0,363630004470034
0,370669896494763
0,359585669881772
0,359130186719961
0,353407193569024
0,38055369786959
0,362548157730924
0,366843027985703
0,361898406791253
0,358949495962535
0,361935555694843
0,354608668483003
0,360810582027075
0,361664118782194
0,358766931874313
0,356230736272965
0,353549259593789
0,357638932470764
0,351793515832501
0,358718466710664
0,353327176271691
0,362971689629179
0,358322295450118
0,351035824702986
0,354043977072074
0,355436888948822
0,356027453435615
0,351902997073021
0,350421451724788
0,352703257325452
0,345325065501232
0,349774865241185
0,345240737931184
0,343089995859494
0,340868480687744
0,336292872970536
0,344091724594035
0,338246237388525
0,338852594202974
0,345798957334181
0,351307529312245
0,470510420908781
0,348056336858091
0,353176210639301
0,320481173798236
0,332436846008967
0,313418093695158
0,33379900375913
0,392678717177206
0,352692048052079
0,318662273206345
0,305874543175333
0,294189214557619
0,338366831932735
0,299308524221077
0,301975549898471
0,295859488221278
0,293471894328331
0,411549084616659
0,36225270721791
0,491310673471699
0,377851492313345
0,318326409248684
0,271128946276
0,327594993305902
0,310444688198444
0,278398325839989
0,27079894581748
0,256238805491638
0,342065931068561
0,272552311665127
0,275715971576904
0,245928813645633
0,251443935781701
0,305632107076007
0,303019292881667
0,27904693994959
0,318826177616385
0,29755899720303
0,29736823629134
0,344039632491326
0,375085859403137
0,280428789086976
0,236877562905081
0,254949563155604
0,235817371687337
0,277236210405993
0,306341174973351
0,248307886583757
0,274277549445963
0,214344158520228
0,238997985945852
0,230537977049501
0,283065676030654
0,231811144401975
0,269309662886033
0,276091400615241
0,222548643971665
0,257180020368855
0,260807766175032
0,31641271617421
0,302470754373838
0,239589537189623
0,211795769597397
0,306908841723731
0,283170935818278
0,248017446050988
0,248230388549394
0,200142439110138
0,240978378838944
0,244196654761677
0,215677632531995
0,262781632304506
0,246596474843826
0,292077243748678
0,308410768917963
0,347087577752101
0,301323765425413
0,22332959784061
0,214677242948631
0,20991630492777
0,22471985657454
0,220981021127512
0,210188955037573
0,290654123993249
0,21188282063276
0,249685039599323
0,281984130243137
0,234417501530186
0,228215881503305
0,224507270040742
0,218178214906787
0,246165993614247
0,280205084752458
0,324415553661541
0,259027295313088
0,278886065675125
0,270978523378251
0,260284586053729
0,252648917533356
0,25707739778509
0,25577966765548
0,268246355683512
0,291847702869379
0,274880150500568
0,281551252201918
0,292056261122317
0,282022818387744
0,362503499081407
0,327445072869055
0,318196386706746
0,376117043837845
0,359748427116693
0,432275000319108
0,344008665648733
0,355231907461151
0,339178483573892
0,358017728718192
0,362878843140609
0,351498577855186
0,400731590177316
0,4153744286539
0,384959602281371
0,388970327712796
0,382514242518993
0,39451027482645
0,396913156776874
0,470857881908183
0,433352412562024
0,586613219365074
0,460266681964115
0,470477736397961
0,420358714332613
0,418640455682261
0,43944799342014
0,430976506873727
0,424460917846856
0,421354637103972
0,440755452465796
0,477941495255686
0,432829257808498
0,445744004352618
0,428647808025894
0,444910772755958
0,436139488719925
0,448767109125135
0,444466422780252
0,458925839401294
0,457165966183954
0,456793142759666
0,471822229144009
0,579833102551791
0,488068362363746
0,479574276859714
0,479715776354588
0,497620453567299
0,475077807492726
0,500750728088544
0,515727467754996
0,509175072121326
0,498907682747336
0,505552984497917
0,504792245520066
0,50910502687625
0,539638897172407
0,558313177689174
0,509896827356365
0,541690086671184
0,500436778119248
0,629844531353516
0,568431903397464
0,580387201852108
0,559252396925392
0,559507149941705
0,539695461878632
0,550936492172182
0,534046787328216
0,548740882058772
0,542868184772591
0,552393010873688
0,547799512830659
0,548527622875816
0,542726365603203
0,536270822709551
0,547868080739365
0,581654778418433
0,547067000812717
0,546022881632167
0,539694697291703
0,537270398794968
0,534565306390952
0,599834526499114
0,554432597502958
0,56136366698846
0,544074476718612
0,577914506479634
0,576955259077335
0,561956589725451
0,535320572234544
0,544771813482112
0,535242427794867
0,557002908762689
0,530257115183225
0,578599865754913
0,573153202357624
0,572373276486573
0,546652539753438
0,559401768241897
0,549474040696351
0,563270392741025
0,559851323258008
0,56635966719976
0,571969367281516
0,583990164135218
0,581336618505308
0,575992143887079
0,573784231618076
0,59575800756526
0,618665937247552
0,60004596907253
0,572785756601068
0,588329859586544
0,569231305646235
0,587156101453978
0,583025851920775
0,577544908748123
0,562741799442406
0,568530617260434
0,556847183275245
0,576035699441783
0,604134148343512
0,570233711801233
0,573830820286793
0,551907644228928
0,536279802329288
0,536992872006414
0,530545571356597
0,525891197967021
0,536247579173517
0,534777030413991
0,5204868406317
0,520552312795028
0,513695038888702
0,512023287664153
0,514972288903301
0,51471352745898
0,513019661803848
0,51324302607574
0,506563947712129
0,510725557137678
0,503529020148755
0,506441445105615
0,499595346106531
0,502715213319972
0,530689640807558
0,531976758894521
0,547707959784608
0,512245794652344
0,516137590413617
0,512245583462217
0,500770280935438
0,504003565778377
0,497760735590144
0,505320117551028
0,498281024092183
0,50033010260541
0,495027176585354
0,501159954752347
0,494238384364446
0,502028534223162
0,497011384984444
0,497636370666404
0,491187376158062
0,493880895185332
0,488978494899969
0,497213181832834
0,488560442324161
0,514035372482708
0,487451926147332
0,500288384857862
0,496579137761281
0,49026895937062
0,493762135723971
0,498144226663973
0,494383024622137
0,494422975429767
0,485535035929795
0,484074318535048
0,484918050440669
0,486010504228235
0,484312511839681
0,489538509728648
0,481241585556218
0,482111800997512
0,475078309687148
0,4791963194717
0,478248000677235
0,471704915943586
0,463384208011404
0,467109162949999
0,457820472691785
0,459328842165766
0,454226196546187
0,450199995279724
0,442890199096632
0,439964330247489
0,432637231361927
0,437151166715195
0,432694095808099
0,430724787939095
0,432956437070813
0,426979287654658
0,424021755498974
0,422966875908044
0,418614182781081
0,422051500003658
0,418524268517569
0,417156138589668
0,413902585183526
0,420137863078604
0,414047742952815
0,419039040640272
0,419001940965201
0,419830619100036
0,415815309844168
0,418461934490118
0,420353649591283
0,425193668202051
0,428457057964578
0,429614142537518
0,43115461701634
0,428286537037493
0,430359637887026
0,435443787576854
0,435063734670145
0,439932341967517
0,43415163483071
0,439992620329947
0,436207143885064
0,445625723459825
0,443950126361522
0,441860509418171
0,441175261204136
0,443222123770135
0,441766909008867
0,442407764442862
0,437464401127489
0,440925903411631
0,434283207931966
0,439620881898601
0,436883559278042
0,437429403596879
0,434085898690431
0,437728734374136
0,433139301998206
0,434153908829153
0,432067088492046
0,433499792901952
0,43321363079389
0,427202756481921
0,427436304546963
0,425145850007763
0,420478974318777
0,422700226274921
0,420179275425434
0,418623895006835
0,41563177338873
0,415961767552567
0,413340479218696
0,414963914013725
0,411142107337508
0,41053008531583
0,409305262794101
0,408443938182373
0,404736721007957
0,406868729207774
0,40245122862204
0,403833654836971
0,402571528127253
0,400777843646231
0,394545733470083
0,39827363335255
0,395290206682028
0,391119718354598
0,38778559714443
0,387713365622026
0,386189038769267
0,382632854851688
0,379154143723478
0,375082992461897
0,374655244876813
0,377202676677536
0,37353229188747
0,370240969688282
0,36499872345359
0,363126276143697
0,361397873100607
0,361863896362978
0,358360385607919
0,359109719252498
0,360049478633787
0,35698414493266
0,356926505649273
0,355525864555309
0,353149532413721
0,35443430131681
0,352529266402268
0,35080958107859
0,343710886333183
0,34486026308793
0,343541343807871
0,339267171100213
0,332420486368887
0,329560869889342
0,324336949640613
0,320733278968721
0,314048684864561
0,31251172269047
0,307544354687497
0,308612791750577
0,305325214163981
0,307047721143721
0,309764302370022
0,312927253678816
0,314875456318844
0,324756324511276
0,328466480798683
0,338669018469909
0,348988154460178
0,360047732807378
0,37248171016822
0,38433441387987
0,399499466378462
0,417416704622388
0,429094158412006
0,446926520360103
0,463314739961815
0,477617853832349
0,494043663390515
0,50965201569336
0,530180804919666
0,548594411876637
0,562064449723498
0,580972355310601
0,595460494331027
0,617117981056819
0,630532200619037
0,649737290335534
0,665601455560756
0,681869998274892
0,695326461240353
0,707919312966898
0,721556257453459
0,730901525438812
0,738725213408394
0,756912658717679
0,760335872559087
0,77021854544375
0,767288265776168
0,769826755792127
0,775669315088288
0,772933528614596
0,778543644648873
0,781447921027485
0,774985710771488
0,776537459060787
0,769836863854655
0,764138754563788
0,76368960841468
0,764336056740513
0,766230636860917
0,768218412424557
0,771258467041898
0,775712202948104
0,776300242515455
0,774102893185908
0,785054759832962
0,787757223076961
0,786492680229433
0,78949534323698
0,796625549327679
0,802081338436077
0,813787347226394
0,821105574092683
0,827313653935396
0,839370525775125
0,855778055363982
0,868645807497945
0,874031873678922
0,886321738039532
0,89504711878215
0,908019321394911
0,906396851838733
0,924380257948445
0,923067510281145
0,930126237292543
0,932763689717797
0,940665621044392
0,945003823839196
0,945035964093568
0,93254061544009
0,935039910296908
0,927368289840313
0,941010211048888
0,930831629260999
0,939911110570214
0,933283761177311
0,940682917724358
0,950094251719626
0,955318444932931
0,964103118607925
0,970843696413041
0,973969314121672
0,995240039469735
1,00452817263342
1,01908159308957
1,02133735052934
1,03399658175717
1,06711193196094
1,07040667919923
1,07377231870025
1,10222398725926
1,09746798748968
1,12145071459848
1,14240696092676
1,16403465341128
1,17069195269619
1,21109471936385
1,23478514353658
1,24493529356603
1,27694701247983
1,31609912278791
1,35312194734684
1,35272515290191
1,37971894486193
1,37815649227235
1,4049238613381
1,44856384484511
1,44881565546132
1,48198440998989
1,47773780110758
1,48425753230142
1,54677848476995
1,51323828878495
1,49697078811558
1,53183454357653
1,56812454618837
1,56391482634716
1,57307838175064
1,5302850093798
1,55414833616941
1,52783844458959
1,52096804527008
1,5586328412624
1,587099581924
1,5252720474211
1,55512739667986
1,54244243310123
1,57447590126773
1,57812592801165
1,5952995335426
1,5945973336125
1,60527550942221
1,6111026135561
1,62002817388293
1,65558805478452
1,68296794266884
1,74026777412334
1,6535649909831
1,7515673892832
1,78772628676143
1,7279873164576
1,76329120125971
1,79922808077346
1,77036559500059
1,84230147012262
1,87442218992144
1,83670847253724
1,9210269267977
1,92815042947909
1,94936518399708
1,99102038297409
2,00145493579
1,82837471444723
1,87453693274567
1,96547495089478
2,02761755126574
2,12145488635129
2,01559895784747
1,90533972965156
2,20276888183086
2,08349276135987
2,28140070705018
2,46347531321391
2,56022425167009
2,10255260524189
2,07498906606225
2,32052519823499
2,25576882427904
2,04788375384841
2,09640356370907
2,22307151871553
2,08254932875399
2,29443576564919
2,36833800775898
1,99668268634153
1,91025255871964
1,94297050559385
1,95531072710951
1,8787806615275
1,85944836123482
1,81295622815584
1,73484007815659
1,75492638709483
1,67900774041826
1,66404779733707
1,56782381730457
1,5372342231091
1,59345135835406
1,51639491652757
1,50009486632557
1,45346442009253
1,48034960348087
1,4216157810668
1,41291254843257
1,39874444169276
1,3694926004296
1,36322711861488
1,36739934263562
1,32652183273159
1,28746727630759
1,29972254404081
1,2752304861228
1,23425687445469
1,19261937772801
1,17325694642272
1,13036527465816
1,10107109280557
1,06865396063549
1,01149421408537
0,979296979917893
0,942582145934601
0,894938514364358
0,868727240546771
0,823933458035415
0,784249068881564
0,756611599365382
0,711281522188471
0,675580562339483
0,646167405752356
0,620939092787188
0,593803325588669
0,577667715488987
0,550085715796242
0,528961790698131
0,509529075907817
0,501298374877028
0,480359530107875
0,466022963983562
0,45918446388375
0,449015986988392
0,436807542632016
0,429664475675154
0,42523030299617
0,420103868310355
0,417188844545583
0,414343781003914
0,407684922565307
0,410292389462895
0,41069648957981
0,41045663542637
0,407983012060613
0,413797504608779
0,41552642944039
0,416685797406935
0,41841791927638
0,418872111644298
0,424012103598878
0,420804261976393
0,42437940260958
0,423228207179002
0,424388602950075
0,420945405795491
0,421871492295186
0,420751389812595
0,413564383224809
0,411479406918926
0,412855252087241
0,408374330026567
0,403663744932966
0,405680728115544
0,406205006884991
0,405393991042302
0,406206508284465
0,403356772357825
0,409054460398384
0,413372239094338
0,408702800333424
0,413268445799616
0,415242867044419
0,419738728606481
0,421979540042391
0,41967186622979
0,416863215115826
0,428341133230307
0,432650840668776
0,429586409624511
0,427869303206947
0,428597621174539
0,42671327540001
0,437442043793049
0,42777062170813
0,429234827766123
0,431537136005202
0,430746464501002
0,429447174663018
0,430936996754754
0,433735460954845
0,437193530199637
0,446714627749886
0,446384129705075
0,445507677404348
0,450437633664615
0,45869993688965
0,461089169003593
0,471507038944092
0,482114794453866
0,490858124705514
0,506731967162019
0,527219018434288
0,536560473127814
0,545651590593209
0,556919269970194
0,558509676298214
0,566378571906373
0,567473935356375
0,56731703891593
0,548480611705291
0,54547333537343
0,536847554593881
0,530470080380581
0,52403378969066
0,510636835068203
0,505533799436657
0,502684402309295
0,496931899339992
0,493423080137445
0,490097993040416
0,49496340761045
0,493715241903289
0,492801122091147
0,494037869593786
0,498371288492074
0,491196901458894
0,495156926509732
0,49488623371729
0,494999963986334
0,489047309154197
0,486514474978582
0,47309956844902
0,477122940549663
0,466193190102572
0,465288472891373
0,463697059558409
0,465085919454899
0,458037331184618
0,458893821676332
0,447870247839174
0,446870117781817
0,451203863061098
0,447638677904967
0,440786406239793
0,443147388015493
0,446928959744553
0,448911822125221
0,436447375203587
0,439305220695551
0,441821576072558
0,44414107574458
0,426547975129454
0,42443315348047
0,425582846062062
0,430818362640699
0,422458389556298
0,437886272210129
0,416134947237734
0,412992219201099
0,419085681506604
0,416845619879971
0,405512844260697
0,413479105188199
0,410506701390235
0,393781457993992
0,396056047460598
0,40251961364445
0,389764085729848
0,386517903862457
0,390350265026719
0,38283098996146
0,386719253565817
0,386846804664698
0,387437907637505
0,384355113779362
0,374925512784915
0,372634255885734
0,372033787497091
0,383472115248349
0,379629668853622
0,38359908691005
0,385258646027324
0,391172172871991
0,378589586702197
0,382526695334535
0,391923892083447
0,378712054940549
0,39410578709437
0,396615986606421
0,388933537308128
0,405954879167509
0,411473345783274
0,409075228159287
0,402346823793779
0,401327224715055
0,407952484691865
0,407861817169701
0,410865104036507
0,419520796844524
0,407298432884623
0,429762370654212
0,423125234573848
0,442338745144114
0,4414867983786
0,449207464247085
0,445854409330901
0,464099816336094
0,492776806437876
0,488470632204495
0,47931866755833
0,513946986901066
0,522527699032904
0,518704734444926
0,568907007480947
0,593282759178623
0,572744071229987
0,595839280072609
0,616073973963367
0,640182862653331
0,646710584818042
0,643511367274582
0,64644173634733
0,635262945263706
0,653811218574078
0,664450253506813
0,649530869219931
0,701906388214105
0,649957345579765
0,662386044036633
0,654105958604537
0,653569640509037
0,660454514160626
0,655527404158696
0,647620966074672
0,671732883444833
0,696349867618518
0,677655674282436
0,648983844502177
0,647224947920061
0,649578711279207
0,694910120047183
0,690237380499714
0,635633305554135
0,664785329821989
0,663544175591629
0,653290026661073
0,651393424009067
0,62318549646488
0,652287278258086
0,625579475332678
0,599022379571751
0,62646207351944
0,617388769417477
0,567870614076012
0,605725954207956
0,600385634878068
0,594716731622676
0,577390589460447
0,585356515789525
0,575418503025501
0,590865466119097
0,592501551184835
0,596344535253221
0,595050481425834
0,582698017074179
0,567734386940675
0,620683464198157
0,596946802326458
0,592932204637365
0,63860046446723
0,591331470558928
0,582696327154123
0,619485346982413
0,549857564129083
0,584280117372651
0,62059357970593
0,59089363315984
0,620855641541898
0,661946056624027
0,604735903694311
0,644599594301551
0,647037815427036
0,60367831883781
0,634134834393917
0,687064979711407
0,667946934294065
0,608103177514816
0,577473012229641
0,597395605214516
0,636160050050901
0,652981759840632
0,665693729295016
0,719046066897397
0,689137599499599
0,632855055499817
0,719869398160965
0,781793337915948
0,688021981044532
0,673883039207316
0,764339464697946
0,773469511976724
0,749520265928691
0,77813816282074
0,710081813390923
0,776140225620563
0,901213120774675
0,747992344969427
0,771922822529066
0,995611568324016
0,908384535161744
0,811478895481223
0,897162017749388
0,950841553783407
0,945171471442901
0,87763597064356
0,85724155788449
0,796967442095933
0,828520028053083
0,819912224475902
0,82419644406145
0,801833551606281
0,704829246426595
0,814800084098283
0,836357012508066
0,688834934393523
0,68984281800418
0,830610003626686
0,800691034896374
0,873930242433874
0,856276796382933
0,845812734666471
0,914129834902324
1,02993956204175
0,784520777154467
0,742636379686325
0,941720828862895
0,903887416632016
0,827446703180776
0,661690930529967
0,709436761320741
0,861109183581643
0,917383922729372
0,753720161810196
0,892145681611262
0,773748387086876
0,814244313250377
0,925225113373154
1,42232864936372
5
0,828867712512974
0,717742382385541
0,799873323518558
1,19527626600959
1,45957832660003
0,652973414506912
0,781731949975834
0,725055067706967
0,757882938922149
0,739507644403257
1,44710386054486
1,3811846198089
1,30782547204037
0,833999831414628
0,953351508309881
0,634055644048696
0,671835420303219
5
1,01592868707012
