3596
4000,36533379555
650,420452594757
1
2
2
0,0583918252675967
0,0534479749219594
0,0529017588267885
0,047569963078729
0,0454229840506152
0,0590844265236076
0,0483636740604801
0,0444829639039881
0,0486922633437699
0,0468661530700027
0,0555079221199288
0,0549800056446514
0,0449166782935074
0,059373357746731
0,0466142024332359
0,052638026108162
0,0473118809095673
0,056685886734286
0,0547266960281532
0,0516123244773466
0,04445337092836
0,0557331433082119
0,0480320304248613
0,0537030851810385
0,0540950025778292
0,0565322494209775
0,0461092561355111
0,0549812284843467
0,0487195953364802
0,0568575701712416
0,0500130584425386
0,0532392196655263
0,0446174713839694
0,0510105295771499
0,0440555638353908
0,0536313310755522
0,0533645594431185
0,0656509898754668
0,0424476200068889
0,0487618479491285
0,0547252469983813
0,0509050169396123
0,0491441160295234
0,0479812347864102
0,0517812855168843
0,0525441271225361
0,0440923920263646
0,0507162216605668
0,0419313598382297
0,0521073105938
0,047622512243472
0,0453768542928312
0,0417143073296447
0,0547234851189889
0,0461671925061122
0,050406421686782
0,0485802475948437
0,0542868713091419
0,0474592732335742
0,0438963468208552
0,044885698717863
0,0660420877713132
0,0491250584999875
0,050066763123988
0,0439073704296576
0,0536282674519832
0,0563822360815329
0,0525207639981036
0,0513920876495262
0,0526984649619186
0,0291075353727924
0,0563910723375524
0,0446939959841101
0,0502525606210532
0,0515487821945706
0,0539729407423001
0,0429678354344307
0,0498478076210905
0,0356824917163562
0,0525169540094275
0,0504086062232305
0,05757665539217
0,0423441562053787
0,0415073326531407
0,0425454123997606
0,0559698957884415
0,0459411816535265
0,0481766762525592
0,0485948737953069
0,0558337599721023
0,0332899393435514
0,0466512821691714
0,0397675590677526
0,0510130550277745
0,0448955524946209
0,0426449142085013
0,0406487790399225
0,0555521487258495
0,0377640816715912
0,0499784268039321
0,0365573226491659
0,0615302366611667
0,0558364434058683
0,0203249769242255
0,0629053497486094
0,0384224863461964
0,0256440414009022
0,059388786562291
0,0578809408887193
0,0541755301960137
0,0406110239416599
0,0430554553932618
0,0450893113213273
0,0632245523552196
0,0272312784193998
0,0642436466252576
0,0556787209709804
0,0502247689947347
0,0381963227238161
0,0457644039982434
0,0204411816684796
0,0638850260194653
0,0529524095097179
0,0400587713259516
0,0393639320796396
0,0418740598573147
0,0278408925619344
0,0695640791580983
0,0452383342920604
0,0555579311204716
0,0354164627655123
0,0479262696550518
0,0293158941363936
0,0320643900854585
0,0564270703390379
0,0477556826101689
0,0417317033548106
0,0292026584185114
0,0322633224156672
0,0762561396685892
0,0491998644384657
0,0496678149854951
0,0288054812058501
0,0462580830654267
0,0580855485293809
0,0552293604355015
0,0258190384300441
0,0500038393265749
0,0429790937804662
0,043939904320179
0,0367781447827756
0,040119351839548
0,0515173727814
0,0476948870501195
-0,00442794747640349
0,103186511626547
0,0215597068639633
0,0507362643235028
0,0655629793843029
0,0430704149575681
0,0410955680540807
0,0464074956412656
0,0469518285642092
0,0440221150436132
0,0415242899388215
0,025248134370866
0,0393429329478784
0,0613241955778399
0,0402731374436329
0,0442385027898641
0,0562497946220742
0,041635525712924
-0,00299606081038181
0,0827397579510458
0,0428590373974393
0,0358422884321281
0,0543942109061431
0,0496951633362791
0,0329471504428321
0,0509194323847312
0,052611436690843
0,0463334825777677
0,0440332178283657
0,037679462413882
0,0320539688835303
0,0563719464664582
0,0397975399281909
0,0479538718405295
0,0359041953217718
0,0259712115779741
0,0206357198776917
0,0777695570601943
0,060300674881503
0,0569969528797067
0,0374388813879339
0,00792089719390171
0,0692523099665637
0,0595311940388439
0,0465508688979385
0,0436300499945969
0,0376797674252239
0,0492757887326052
0,034237438912037
0,0515751599854388
0,0333282564125281
0,0178839769434935
0,0600675719709851
0,0472075359962912
0,0468120207183511
0,0357354505979725
0,0338157327998729
0,0276168844370015
0,0718631340536337
0,059864411257375
0,0426162600097643
0,0397062786660085
0,0340301317506729
0,0520669848957918
0,050801619511635
0,0426849730114871
0,0470922963457825
0,0437367514263525
0,0466849850142765
0,0463629088830324
0,0415585437145047
0,0472486278089433
0,0440748603128167
0,0428136661270077
0,0401651426957741
0,0440420184399795
0,0483958291270832
0,042745686260637
0,0421107163076594
0,0528746259868883
0,0279897049086461
0,0500678892816716
0,0468348033139035
0,0530573370271586
0,0396013114012932
0,0429756566753474
0,042291289423961
0,0434034732092483
0,0446940756348306
0,0497509000128839
0,0355385564246716
0,0319618907994524
0,0666327985370267
0,0441554812191322
0,0548076918297947
0,0295458078726746
0,0527839172120736
0,0446898264924464
0,0475424301733047
0,0405208393228029
0,0482258831481222
0,0391112052263254
0,0344300968925398
0,0739426355515225
0,0499897342553726
0,0347525260800757
0,0579097335364799
0,0476667622697033
0,0446524880678613
0,0333121621669327
0,0153548266726335
0,0809592406353952
0,0360153872931478
0,0306153551931283
0,0791248258348675
0,053729341725481
0,0541560570044487
0,0380737077083983
0,0120418434731258
0,0960432171312888
0,0791446022507911
0,0504800379780115
0,0363445479544285
0,0565693683435275
0,0359297893024824
0,0589733896294207
0,0341693858173883
0,0540418752251853
0,0377117921262866
0,0475161248637653
0,0794722062383572
0,0253717024262126
0,0702402847846123
0,0569380199998878
0,051866735240066
0,0489265202012791
0,0518239007890621
0,0336783408131561
0,0513292926291389
0,0543713680164737
0,0683632534066429
0,0468483545934061
0,0313411263414635
0,0619425080315481
0,0595764392814073
0,0502662583762034
0,0481930089345805
0,0591798839094778
0,051510763414494
0,0588189657314305
0,0417732029670262
0,0653690819364594
0,0449944548737659
0,0379922074422523
0,0755121665909745
0,0547743192002381
0,049260208836971
0,0828194091801639
0,05579562226543
0,0556937721374242
0,0538756524497902
0,0608471480119497
0,0591547462908209
0,0519502532687503
0,0455925735484044
0,0776114877167397
0,0563644517233899
0,0629242055359584
0,0521386268587797
0,059208208830043
0,0558039719744583
0,0609683292724474
0,0560088064144288
0,0618455810420857
0,0617098774033798
0,0426101140215226
0,0648274654907216
0,0872627117910358
0,0374630536541076
0,0899408606944814
0,0762270268285441
0,0678687828243553
0,0647126262723515
0,0768487192285533
0,070330327897269
0,0682160518300442
0,0698682410282098
0,0662144248634207
0,0638924864204095
0,0893457898835569
0,0758852731681688
0,0724341560200316
0,0509350006649626
0,081392459145853
0,109131709608061
0,0852958907003683
0,077021438367499
0,0540341156937631
0,0946709415082425
0,085129441053491
0,091399156984866
0,104206045099359
0,0815343568736241
0,0923274040203197
0,0855978098100949
0,101759464816562
0,0871403908777082
0,0990455676297796
0,083518672613706
0,103106879431178
0,0920796688468414
0,111787680252392
0,0869482864422953
0,103109984574286
0,124296602607638
0,107352394441974
0,105701833746271
0,124716463607433
0,0947091955228642
0,134868973705947
0,103624982305702
0,150391561141268
0,112185893256923
0,119362714437822
0,123889497371771
0,118414789747852
0,126524096125183
0,121227903684082
0,122931553189802
0,136323086788745
0,133060807153975
0,137189680241917
0,12638440642006
0,133765081369641
0,144994430429516
0,146207606479111
0,144401548550247
0,145071199554622
0,159738984088962
0,150112159134936
0,157888940427832
0,145016152801017
0,146539713331975
0,167152683411372
0,185598523180609
0,164774033041145
0,167116334000223
0,173851483180788
0,168848738711973
0,173189864846239
0,179518495000468
0,176351664781672
0,168977201361807
0,215794964514027
0,187792216868141
0,216678120186588
0,208184515303048
0,188794639293747
0,209114210125334
0,197661500130607
0,205310208080272
0,232752022327669
0,207920000859952
0,197166061718279
0,231431633530028
0,225789139072457
0,203867048140793
0,240237217158406
0,215762572140317
0,230394697858135
0,213082024867389
0,23027824745561
0,229370646443753
0,258324903285903
0,236493142258573
0,242993751802249
0,257280538769831
0,261445360960603
0,248980185916608
0,278438850228255
0,256167692982308
0,266278333753606
0,279878757643327
0,279841567953251
0,284742251809865
0,262766903001714
0,282712559133546
0,289736059340678
0,280447050848477
0,309805852204205
0,285742029626455
0,296204228588607
0,303789506447338
0,31415529818955
0,30264542484224
0,326808308957759
0,325438711176792
0,329297656042617
0,323668371517218
0,326004863841504
0,323024928230138
0,344116689074418
0,334282740628938
0,335948685185783
0,33691150351843
0,352412874965832
0,347141229234824
0,345400426327169
0,354641354946709
0,368795023529829
0,369461822569607
0,414678057556391
0,370134290643932
0,36981185880242
0,380193187770795
0,399813975570606
0,38058353700189
0,41375834582781
0,38957967848405
0,422065352043153
0,400057434242285
0,428604402744354
0,420821265601316
0,430185545214427
0,438226328962297
0,445936066786944
0,424602843424869
0,440347430180325
0,420950638119051
0,452714184000588
0,440380171730057
0,456863677214162
0,450602426487008
0,480610594014683
0,471181175709204
0,47050275193896
0,459333568822747
0,503863113771466
0,487742503623774
0,491728785617269
0,49385647849322
0,509277670652925
0,500818342655764
0,553161376410751
0,525836734374882
0,517707469371322
0,533653991470071
0,536493617365261
0,524114350168739
0,558580249113028
0,572401960780197
0,556321907056298
0,507108764997613
0,556771876417676
0,541906086297514
0,557890816547142
0,550768079709039
0,597085140407354
0,587692412581606
0,590432383819749
0,583881135555711
0,606691909801242
0,573501222229165
0,593998778395749
0,580301495311202
0,602013020182019
0,603344202245992
0,592995810605503
0,612219982237061
0,634792212156626
0,642607367092398
0,680520487653659
0,638651770255081
0,66671635899525
0,658511014049881
0,63281000175939
0,649498005893197
0,696578081305941
0,683682814040012
0,700235482380063
0,690398793468295
0,708886770297132
0,687296035369752
0,706858299818325
0,687822243998403
0,699986591308843
0,72750826614965
0,730090103017685
0,702299319447012
0,712997533761526
0,703619577509047
0,734912808546368
0,713817079578423
0,712915327290757
0,704959358485
0,762288527458954
0,756405716475576
0,78846159938172
0,756490125314311
0,801356387575876
0,743671066727247
0,77718011178766
0,763603504523476
0,758982049811437
0,756503912985281
0,822334590303453
0,827187281011416
0,794187584613942
0,791403450583453
0,813256451279028
0,794422789843993
0,827795448691186
0,819229573620331
0,820926523830542
0,803226951988266
0,844524998974875
0,812928267601225
0,864758467928097
0,843999528282041
0,84590141284007
0,85623942463249
0,903604047803894
0,892094845429171
0,893803593702806
0,8735913669968
0,899945937840068
0,905695723663207
0,902384287118971
0,861513484559053
0,922486375914113
0,912961978036896
0,905368363475485
0,881651034102526
0,942558051337877
0,960277174494935
0,915818928626134
0,97426712286044
1,00084714059355
0,908872068650283
0,980683172445343
0,951379060683611
0,945059735796176
0,942572697900856
0,989779882454328
0,977643710152069
0,955349735551497
0,947618099823141
0,962574010090084
0,977769957894859
0,985557371741848
0,986989798615451
0,969609306523447
0,947416634572056
1,04248421733408
1,07721968722678
1,03779932133435
0,961418357930838
1,00532203625491
1,0283192604167
1,07120759650307
1,10543013215089
1,01694839284355
1,04375835756366
1,0714126335883
1,0335104337672
1,04913177925677
1,03986727382642
1,0729478136857
1,0957298975351
1,13702149776558
1,08584192768343
1,09424267746039
1,08143238327462
1,09453457514378
1,07578134337978
1,07394524234853
1,1544878014361
1,1371189214055
1,11613217825362
1,16146095222752
1,13459926035329
1,06477000177765
1,04960039032846
1,10763861700329
1,08994255204229
1,13942659447504
1,08404013551396
1,11196351881629
1,14162723086932
1,1212871227487
1,04674256386923
1,14917636963439
1,24136981210901
1,17470331294258
1,14269601065053
1,14106721666357
1,16436754809786
1,15627111426874
1,09164870977588
1,19510102980371
1,19620250763609
1,219452516824
1,19333705362714
1,19747852809351
1,25193587234454
1,21366925980177
1,19720373424573
1,1748198780723
1,15127215525176
1,16821210318279
1,20521710841998
1,23170622303582
1,21471927804942
1,26231747139725
1,229812277742
1,25537762408398
1,26517957653014
1,21803575011233
1,17667241481035
1,23513486468396
1,25053171405585
1,21432021349854
1,15662743967874
1,12193981532057
1,21529441418343
1,28329805751026
1,18705132067711
1,19435529783738
1,27477681329108
1,24032773060388
1,16435165736234
1,2048821579417
1,31515689852191
1,31634943649876
1,27218000488298
1,26495989589929
1,26630726738051
1,37744165270064
1,28541538983361
1,23028519330718
1,23383442924445
1,17565054953603
1,17049880569577
1,39391088858105
1,32818809129648
1,27280922625883
1,38433765275128
1,27216391720349
1,25883093271275
1,24313947275986
1,22852083656201
1,22003108767653
1,24426323793273
1,24143026310068
1,21547669119911
1,24643686791494
1,28738861916153
1,34530071232923
1,26612476483898
1,28617362520828
1,29623039241279
1,23694297774056
1,32268032996263
1,28690672447626
1,2498070393963
1,29641006634698
1,29627822979513
1,28890344145686
1,22761322859116
1,23472514520063
1,28197012398036
1,34815407447522
1,34351354355561
1,20247041516759
1,16151826765444
1,28636315423315
1,24858313489336
1,23629832396797
1,328240648309
1,26333874906561
1,2515124115524
1,31942387128568
1,26062727970039
1,27177996264456
1,33108596566777
1,32131565510649
1,34150907312516
1,31102028074081
1,24228043956307
1,29183145566174
1,30716741720055
1,2428491749044
1,27623780647301
1,2724316824283
1,29377530386047
1,25913643135387
1,26010940057561
1,3385237118823
1,27505189429854
1,2881939632296
1,29911959609405
1,21371891097663
1,27986262957243
1,2812449929525
1,24067528060734
1,33730311752731
1,31508136935766
1,27574865301408
1,34791740530571
1,31216316177449
1,18862310674922
1,25821208591847
1,35279492723526
1,21314846068051
1,26729079817501
1,31206375758396
1,27161680764437
1,2777669042726
1,31284333858276
1,1854608296305
1,2799096747797
1,23475864239556
1,1823003274062
1,2881068941581
1,27022072546468
1,28543726694901
1,2862802634073
1,2029825892989
1,19080295023547
1,18339386221889
1,27202279641797
1,24253963426363
1,22027181230359
1,23235410883607
1,27087635496075
1,31188308352527
1,2742156527528
1,24386120536899
1,26892499428031
1,27734569523236
1,23024737472014
1,2483892158764
1,24510950938729
1,21721022504223
1,2769738158631
1,25314835108264
1,2032702597122
1,2401031111417
1,24353027754956
1,2945241949381
1,27939027770431
1,19042794034775
1,17569473505603
1,16699375756835
1,21400688179249
1,20126568124588
1,24514128255329
1,17898453629088
1,14255581373131
1,19992098748832
1,18490406133337
1,16270223270115
1,18826911201201
1,20152101156606
1,22208086037149
1,27904589295888
1,21922635954617
1,17881025694255
1,21288102996155
1,16683212927923
1,15698281953533
1,20371396957207
1,11222082970984
1,13400916305997
1,22499850768798
1,13130352879097
1,10643471662945
1,1711624078418
1,16603445711976
1,12515006632625
1,15897385115276
1,15878263433757
1,13571702747669
1,15671780606718
1,18212133551975
1,12647120091245
1,1574752450378
1,1899795270448
1,19037521193731
1,13044235531972
1,13285713059312
1,11828099119915
1,09875602759119
1,16149796604645
1,16258468118
1,12413871755949
1,07600512504295
1,07102752692032
1,12048546726778
1,09735762197292
1,09096192898937
1,0963502828364
1,10218722908211
1,05462540172062
1,07076826277578
1,08155899439763
1,07656970929841
1,03979503347792
1,0643194546353
1,08457095250823
1,04861626912176
1,03484816687129
1,04449697064607
1,0593067235736
1,05924140090728
1,02351607173125
1,04453686302373
1,01931343333914
1,00803144739764
1,0097038259304
1,01436098572998
1,03002781289785
1,01642796571403
1,00528933327995
1,00201801444359
0,994677800023173
1,01527580595288
1,00011057137022
0,973037241361529
0,98781571221976
0,971777770863624
0,967650024020409
0,988988253988051
0,979253560938876
0,986326053323296
0,959576970961847
0,941752194614109
0,930667714445925
0,925164822980104
0,918272237897822
0,945494833336471
0,94379691537214
0,929680088391027
0,949252114752709
0,926587402636295
0,930840732589546
0,924445601353011
0,900480357254229
0,919176834245887
0,890147415803741
0,902088456822261
0,892040602151121
0,897524998376671
0,87010495334534
0,863610678968037
0,877727345857827
0,868192998466068
0,868819595182244
0,900547042733874
0,851460614424597
0,86002990917678
0,880593444482556
0,858045382460229
0,832903632510204
0,854060638122814
0,821000163571696
0,81434690907613
0,830342940541246
0,821039508994082
0,819500692525843
0,821733411332226
0,820161817547028
0,83208370269424
0,789719468825898
0,784960126477381
0,805886591331792
0,796751218251953
0,777460173896182
0,773126706727636
0,757603252691497
0,77255118196924
0,766508043959745
0,77335497000582
0,760918337951127
0,774790990342029
0,743531437875804
0,742438929098394
0,758812168060729
0,756405654501636
0,733260647058308
0,747003141500733
0,737285331320252
0,719510622541648
0,716268551823386
0,725655014342392
0,713977919035293
0,731351789239906
0,706357714263462
0,719711212857964
0,712797397047401
0,688305326412573
0,688197552531067
0,687181157430956
0,691733698788206
0,683096206343911
0,673606676989668
0,684995914259935
0,665001222869918
0,675284903737713
0,677465841356832
0,66128931606761
0,648730899391215
0,669222688970574
0,666442102988857
0,659225181830401
0,647555166183617
0,631225515085557
0,646216510921202
0,643501736452458
0,632669136381386
0,634760962738006
0,618752076512032
0,621726223917463
0,622972628301649
0,614666568948078
0,616800206158625
0,615038419250639
0,602475577932733
0,607245205517107
0,601923869165327
0,606799004080387
0,595720373851248
0,596654703675958
0,577049078990025
0,575662685233711
0,583280581953516
0,584529862917896
0,583080853292721
0,58018788775707
0,576787339836369
0,577084136016274
0,566328846594432
0,562335681823431
0,560589283066217
0,556113034694413
0,542895563483449
0,547450496192062
0,546455771191769
0,560420550436163
0,539757474943147
0,544661766841447
0,540400292896944
0,536699107161375
0,527465642419103
0,52009312121883
0,520080082789914
0,522508344100379
0,50785071798054
0,518044040625548
0,515345818649685
0,51832071592833
0,520839168827224
0,506548988003985
0,515436509949735
0,501618041978153
0,48442767734347
0,487874431904756
0,494843312133019
0,497337187205877
0,488522126161283
0,483461090524469
0,47939472493915
0,478543258774067
0,491481397726399
0,4740055052801
0,469418656146347
0,470289718603359
0,470440404147761
0,469089663370451
0,463607084376169
0,462054300857624
0,460648329709606
0,457931234388759
0,4519793257732
0,460221215279846
0,453169299542585
0,452070793702565
0,445971730179591
0,445699770162352
0,441007314749074
0,450379723452191
0,442156481783648
0,43994433371603
0,435253820180765
0,436816915770988
0,423440119433872
0,430344072178116
0,431928243584243
0,427381522905644
0,422720064574977
0,416033789694942
0,422215252471921
0,418203018030364
0,410994176249765
0,420517249864152
0,412516646023413
0,410400427620861
0,414477823379029
0,412609212543825
0,403378748019779
0,403978169812678
0,401690183212559
0,410964031865998
0,403173962642487
0,406796146657291
0,401486564316192
0,402239534352767
0,395729966087336
0,399515253932964
0,397624458466631
0,399217203149133
0,392443755531379
0,391899273036914
0,393097243579131
0,398260916168124
0,388929712735675
0,396375961177848
0,39443914893507
0,400418672647428
0,394074921949893
0,397545382397263
0,39578866094631
0,398960680006339
0,391177916428721
0,40286073006086
0,399580811833054
0,39391864942678
0,397309869993391
0,401787535862363
0,396103792776283
0,407603952346955
0,402376837735618
0,410782334544456
0,40875695345612
0,406129998258742
0,407155318461084
0,417656070838935
0,41324292837284
0,413091164346875
0,416875174240966
0,419461247320763
0,413997884263499
0,424479729663724
0,422139557874118
0,416146431389881
0,42985949591842
0,435373780577672
0,43247278127216
0,432727960456853
0,434017185416911
0,431211773413192
0,43903482056104
0,448429263866762
0,452340507561533
0,451055335339085
0,444286343009335
0,448453019265143
0,449771512250819
0,460416914727361
0,459700678080485
0,472309730926206
0,45848068104738
0,473944985014721
0,472733558742648
0,48239946692028
0,484763550212335
0,489515200194284
0,486750968505132
0,491659018251927
0,504004862954336
0,503510780766209
0,498832904679242
0,520125099006299
0,521786049655498
0,534770312119733
0,528020505809582
0,532452046157871
0,531330833951269
0,524742519536182
0,529903303010579
0,545697239497519
0,545376615395487
0,541994561433274
0,53673880242584
0,542885472330113
0,542318678222961
0,546071141073689
0,555699291772512
0,557843727167981
0,547386507439199
0,556840287701557
0,55050129413996
0,541500607646775
0,552230782560165
0,547160635207339
0,552418365099594
0,540493678909529
0,55134469146116
0,564003199109391
0,540975992435235
0,540633111667882
0,536484782083781
0,541974091016011
0,532209185365252
0,539776016318236
0,545452351390788
0,538825125733475
0,537649664360602
0,538382897282661
0,537366727760573
0,543937088503976
0,537061144169634
0,536964773101214
0,525682452372918
0,523696292859581
0,530337067250916
0,541832529189723
0,538075530328769
0,543739728931996
0,520746330956298
0,532489180909401
0,519396080708425
0,543129951214433
0,531658076353335
0,535756302136201
0,533187837988615
0,538991798535642
0,520301999603889
0,527035148815887
0,522413836502779
0,538670816912397
0,533282033165653
0,537088084469001
0,516614297585158
0,525415685454424
0,524430956622641
0,528039485651475
0,515551058395024
0,513898982814787
0,512332471253214
0,520280463912133
0,507921242870595
0,51156465892188
0,500061002360538
0,505933037086572
0,502983965555085
0,502736815628594
0,497987744403511
0,495265789622289
0,484252255324383
0,486684404849543
0,474028252568493
0,476778969315564
0,471517003315491
0,479954933580552
0,464588776262833
0,465886949467473
0,463606808562078
0,460078006735887
0,453384429500171
0,460913592848705
0,455043927037126
0,472086238421156
0,449112510149599
0,442016065215355
0,437466647757094
0,441925123537864
0,427346698820235
0,43457584124852
0,42213774023227
0,427949260641258
0,419410042445811
0,417643378851556
0,412379225289378
0,416011846043265
0,409230597202794
0,411060911812137
0,403935048184224
0,401045797080017
0,402284263682499
0,406324442445798
0,399390571606335
0,393636711001971
0,388526577875039
0,390424067907881
0,38956383962854
0,38668433350502
0,384740447374096
0,388913891899851
0,37940677731554
0,381459493192231
0,368593528872424
0,375600869977845
0,375659971398474
0,366951651051927
0,367873811857186
0,373557116331406
0,360819005055404
0,36835428826672
0,359447532692505
0,36056264623211
0,353424034636822
0,355750883860919
0,358044984380717
0,360558047222747
0,346917945525506
0,347173669011167
0,345156617431033
0,354227205407663
0,349230962957187
0,344784324393411
0,34048807686567
0,33894821390709
0,338111625148067
0,341067041903699
0,335437345421141
0,33522823148058
0,334608870591673
0,330216183380861
0,336679585774107
0,335047938557253
0,33565985184949
0,333327129395176
0,329764661789267
0,323252222159967
0,323917436159392
0,321071324189266
0,324547863185639
0,323547823977274
0,320539574731149
0,320577448158763
0,318367687133199
0,318704790559977
0,315122801289688
0,3195477050576
0,312693341886803
0,31801842307335
0,313241071132736
0,313126862203796
0,30867641683781
0,310934536935795
0,304480648022376
0,304771546652933
0,305019354240351
0,307010626044509
0,303828124945532
0,307767304422061
0,306941943206462
0,300520530748401
0,300209252754897
0,302615487023605
0,29997586679225
0,300549179938268
0,294166756286674
0,304567382537833
0,295952739357455
0,296767205404711
0,291399395764037
0,300393732725392
0,298744791458735
0,290356794189343
0,293266562385256
0,294202599403707
0,291277665219249
0,288187872021709
0,28574089781118
0,292614963260223
0,285103990172742
0,289518424273171
0,285885426297463
0,290269327896659
0,282586158840874
0,290197830032391
0,279474438750174
0,286669719750403
0,281420477924074
0,283049381796236
0,284088634221613
0,280746312068373
0,28456115919367
0,28207445321489
0,280295089227652
0,282225733724965
0,280262806023309
0,283241437169637
0,27417287247105
0,278896708511604
0,279886576021501
0,279983565941248
0,273389719360114
0,275038682956166
0,278468859505709
0,271825730190041
0,270840381208435
0,273336306742997
0,271599691380054
0,274412460375049
0,272666568902802
0,277974512703635
0,269485832587896
0,277045434923105
0,275406432295459
0,268408848809838
0,269388424357937
0,269306284147081
0,269570938548335
0,267366076228922
0,273282673130522
0,264623671283291
0,264428787677574
0,268410581363949
0,264127394412431
0,264581260094641
0,266229628741238
0,260750960611221
0,263533271865231
0,263545217503811
0,260929334060739
0,259987698785953
0,260754791274869
0,25772549523971
0,260460930427501
0,260827598495629
0,257179938925868
0,261382187105299
0,257966043321818
0,25629536664145
0,254841953226195
0,25736229753965
0,255688280335951
0,255020570048528
0,253717454505732
0,257291980823785
0,254910837337074
0,253906226465184
0,251247293263997
0,252758521007928
0,251200470850578
0,250261077916164
0,248655484002485
0,251503758335578
0,251032773140066
0,247967596105083
0,249184912675147
0,247463067656413
0,245892415736519
0,244474681656482
0,242531474610747
0,245545186691513
0,244600256324057
0,248500204603652
0,240265319604388
0,238600773860252
0,240719190989598
0,243907798207507
0,240198322044783
0,241335873655748
0,236954216618286
0,240796703164751
0,234940088332781
0,237996412729152
0,236804045492678
0,235443451474839
0,230883011891977
0,232896519210845
0,230653008605172
0,229905362283004
0,232292089858495
0,232999237377695
0,225364434133592
0,235235784413942
0,227116254444368
0,228176098197644
0,224459753547977
0,229394760159209
0,226996768912318
0,223448083119548
0,224477165412707
0,221694641250982
0,221782224590242
0,221282710632779
0,216449866676108
0,223101470214069
0,220989550587721
0,2188747987745
0,214292800157916
0,215946261143267
0,21550583471233
0,21410576158212
0,210087478668457
0,214660842438491
0,214772427582515
0,209374729631654
0,21261717769748
0,206606504117602
0,210752609912043
0,209341928559528
0,203886594318316
0,205132961901955
0,203995783705385
0,204510977863384
0,203310503900781
0,201751321632901
0,194966134421254
0,20193571697712
0,201152645331683
0,198800710613038
0,196407384280941
0,202551107333415
0,197253930065633
0,19855232974725
0,191969574458789
0,196859450132622
0,192726918991929
0,19415540932423
0,192003843464576
0,195555969437038
0,195420699563167
0,191554957061365
0,188924767084471
0,189538976246253
0,189995494266306
0,189124062117167
0,189516374573487
0,188901823354
0,18681191962825
0,189148365026482
0,184280152501724
0,184057853227487
0,183766299064153
0,181594982692059
0,1816666441905
0,18454401621484
0,18518062715887
0,180981187270477
0,181044866135293
0,180760405093706
0,179025288124367
0,17945145742388
0,177561023252933
0,179296593356141
0,179908825281874
0,174828613409341
0,175462071910491
0,176470989885437
0,176550321147604
0,178351262658722
0,178126257038898
0,176224297542579
0,17294877978409
0,174249913405215
0,170911794864571
0,175623963461939
0,171574979764802
0,174474004398147
0,169132478892922
0,171248759015857
0,170527250435291
0,172529969870787
0,17042227432389
0,169867388490922
0,170860022347352
0,172090522847227
0,169494730721879
0,165569524285159
0,16985590371504
0,168007087848364
0,166889023194935
0,167357011071372
0,166216039445927
0,16682644437832
0,168496403151357
0,164743159954639
0,165388073184802
0,164135482300859
0,166064574738051
0,165985123350276
0,162053307777234
0,165261251750955
0,164208874038508
0,163435599019365
0,163355245484346
0,163772634404853
0,162582412028269
0,16624152640075
0,158544525760586
0,164690652241015
0,161256539972021
0,163035092964196
0,162354082184153
0,16019475863167
0,15945148726773
0,160079802169695
0,157953266086968
0,161009319682626
0,156560662441636
0,159493246850353
0,161752348212646
0,15983761949848
0,158553056030018
0,156613685815119
0,154495263671093
0,159701437648248
0,157834003117001
0,15951802770536
0,152694102766608
0,158526993516979
0,158336434368551
0,152975073431191
0,152295357311324
0,153985338382656
0,152124815011116
0,154801030914899
0,154829560646325
0,152443290435178
0,152223199240149
0,150294398811936
0,150145227732392
0,148968056645661
0,149440543928054
0,148533949150697
0,150390064054614
0,151900858476334
0,149160231100295
0,15019829866802
0,14849550617903
0,150773132335471
0,148090014260003
0,149460080621558
0,145895765732316
0,148009320280311
0,142573769283438
0,148720679326389
0,149223839636296
0,147344908825774
0,148334605203513
0,145580623559725
0,148001504182574
0,146494636042673
0,144338215116148
0,145143926715375
0,147087260755567
0,147037239316656
0,142265352402709
0,14409447303372
0,14299740398653
0,143771671757576
0,145995910988818
0,142698854945334
0,144010223864526
0,14395399833051
0,142027763618821
0,143439968865874
0,142337666509873
0,140071796139499
0,140668156691899
0,140272041527936
0,138730193312927
0,139914029003571
0,142860139631388
0,140133923103605
0,141677091473033
0,140071614055523
0,138355131143835
0,1367206216028
0,133511542949421
0,134758237186963
0,135786306523442
0,135339351835414
0,134536441883721
0,137287581210675
0,137101910872795
0,135410950810892
0,132630536477159
0,131792060260773
0,131688621259864
0,132872084435344
0,129351927544862
0,131672807978252
0,131145195494443
0,131919033370474
0,130078451036143
0,131570279326466
0,129245511229272
0,130830239867482
0,130787898519428
0,131032127053113
0,127753458328723
0,12936664673075
0,12723415834326
0,128471081801081
0,126072603558235
0,125741735860996
0,125176441470044
0,126714118409445
0,122616999957112
0,126861590861941
0,125445404836943
0,123249822950745
0,123680190820945
0,120884035044039
0,124016126794099
0,122805872368455
0,12097606502262
0,123713246932047
0,11815689715315
0,11975700025641
0,121787365095729
0,118067587608828
0,117480559528646
0,119059933631262
0,119285542190395
0,118033516361259
0,118743675475901
0,115975856151104
0,119209237194798
0,117708268217994
0,114151328950914
0,114740437404451
0,114471413871614
0,11510272411781
0,113051262545174
0,113896603924717
0,114482962135174
0,114937892507249
0,115808363683423
0,113120620670365
0,108444547111384
0,110936202945412
0,1099219747395
0,111252369841166
0,110647251592113
0,10884166643876
0,109006856743366
0,110557884533316
0,110472457671261
0,106898099437068
0,107949702952434
0,105728559152181
0,107512161159375
0,106304883169433
0,104804619480947
0,107310615625052
0,104103181226425
0,105419209126214
0,104473781365073
0,104996140936779
0,104180516464009
0,104271446515133
0,103897607458438
0,10495185756604
0,102579755220664
0,103269204412653
0,1008685276744
0,100184856703305
0,103273249686085
0,101354033928322
0,100036507029541
0,102745821024018
0,102960418988266
0,101174215146735
0,102518901897167
0,103734438359005
0,100739547603512
0,101998564387373
0,101650551285412
0,0991103769468504
0,101283112563986
0,0986245471649764
0,0987128887867805
0,101755514614816
0,100415503625183
0,101136962208416
0,100772169350724
0,0979243910417121
0,0955541791478106
0,0957723756570927
0,0944036231192681
0,0964460135710966
0,0958354508747831
0,0955165431956533
0,0969784623181713
0,0958371933324624
0,092929129431311
0,0938562940724212
0,0941035972471104
0,0947512864288498
0,0951950572366031
0,0931670508406336
0,0956989482505716
0,0971376223107437
0,0982470024921169
0,0925135752722588
0,0951891366311772
0,0970001190035115
0,0951694055386529
0,0946043733898473
0,0940184460711637
0,0935494237389247
0,0924451542861054
0,0959596472520443
0,0947875216151332
0,0928695124764962
0,100511545154074
0,0913118348142147
0,0962416069603632
0,0943962075986989
0,0954339953376313
0,0885240936066936
0,0909506885032526
0,0876360375710232
0,093505354778262
0,08408376463931
0,0931394404599505
0,0859343600281332
0,0979192532723346
0,0882388656736086
0,0948888340971579
0,0862380523833263
0,0957530606124788
0,0853424108206187
0,0965045218692529
0,0856198838708606
0,0950903414267741
0,0809990568509095
0,0964313873300557
0,0795438250669214
0,0979360481772553
0,0820933960324888
0,0969365904764033
0,0793418727132178
0,0939635559669968
0,0798874818488185
0,0982423144635366
0,0829898752369788
0,0953242425766289
0,0820534087290509
0,0970129928587211
0,0871814539648775
0,0855051776248619
0,0902187283135176
0,0864708819047045
0,0921681631151195
0,0825595759509973
0,0988710969193534
0,078620422134451
0,0978324071716715
0,080947258814852
0,0958559144970024
0,0816044647598708
0,0931761472652837
0,086250593087239
0,0905563514475847
0,088957876445325
0,0874599353190743
0,0876614754998641
0,0838526749931706
0,0869961462707096
0,0869042130746122
0,0826436709726649
0,0890250774739666
0,081646317279333
0,0870471350812432
0,0842917501788305
0,0877121387013154
0,0871540003436782
0,0880051346977079
0,0847554280824707
0,0883026446827671
0,0860314888414337
0,0891730164875849
0,0858138798663479
0,0879841451220405
0,0843414198888786
0,0889869853010621
0,0863062585267857
0,0876793310013428
0,0837811082512386
0,0876704907071525
0,0846951167981884
0,0883245990737495
0,0866314931874486
0,086855431003431
0,0848887185523152
0,0865756167631476
0,0868483764829961
0,0882053733978303
0,0859097461981693
0,0890325594009265
0,0859199111725824
0,0848552277341328
0,0845807150077597
0,0903848523071823
0,0864600259359893
0,0897372329957611
0,0871327230076494
0,0905777445779765
0,0876127420441048
0,087026204889732
0,0865470266698584
0,0870755242386844
0,0878915078511952
0,0891547947964796
0,0863233978702372
0,0877735999001386
0,0877549953716658
0,0884153161429854
0,088202414993726
0,0888864963018335
0,0859122300695206
0,0888106281328098
0,0870598906474518
0,0887592351254004
0,0867438978186747
0,0905077784621856
0,0884153457123602
0,0890111973816492
0,0865090469634644
0,0890606927437441
0,0877372203092
0,0891259607222444
0,0876092437831187
0,0883338030919334
0,0883255102676606
0,0893334281449533
0,0882695877307903
0,0893350886495335
0,0867532079576515
0,088235732240048
0,0893058799051451
0,0907698484184649
0,0888288289501287
0,087793421901279
0,0883471509339823
0,0900560635083027
0,0903970862645269
0,0930670341698818
0,0889221016989765
0,0907839072544068
0,0899884149578934
0,0906144482317911
0,0885541131661026
0,0916789702135229
0,0893324850968672
0,0888932349927851
0,0891285203210329
0,0913424752815264
0,091677235057549
0,0930067385330351
0,0897496335303467
0,0893073004793429
0,0878683087506035
0,091866099759035
0,0912362895019134
0,0934382639084185
0,0925313795126717
0,0923833981603561
0,0923486455993899
0,0928007240851038
0,0914020091524649
0,0923295954224013
0,0916581998612091
0,0944494961480821
0,0931155069992414
0,0919839877714175
0,0927614637361277
0,0947933640766834
0,093062326257366
0,0931766941545456
0,0923736773689391
0,0944210986059756
0,0946563534224465
0,0962320024739273
0,0934421514022476
0,0946831980074734
0,0924141379362611
0,0940068204197059
0,0945322412618249
0,09757827273771
0,0948085375735889
0,0959586785916499
0,0956697560530318
0,0962330922488704
0,0948917050673335
0,0988256155148773
0,0954385844368672
0,0968736563118576
0,0947086609584441
0,0977641819301382
0,0988170550637099
0,0976560129265198
0,0966161596206152
0,0973928581654158
0,0942835509782779
0,0982258839610475
0,0970073553469929
0,0998824914024287
0,097048200407137
0,0965528528554148
0,0959602485870724
0,0995069549269652
0,0976416320431146
0,101342307045984
0,0999988953168625
0,0988202714027501
0,0986964951642885
0,0984528766293682
0,0988567226819356
0,101202189379104
0,0993002613226113
0,100454373429186
0,0995486089497894
0,100168858591571
0,100659686366649
0,101152541912685
0,0998944752410433
0,103298490515393
0,0987782823136732
0,0987591050517893
0,0993838551364795
0,100960913151999
0,100408197877472
0,102788692007563
0,101085735268676
0,101944383567578
0,10046366812105
0,101262481910271
0,100242745869661
0,100152067644539
0,101457682992538
0,0997747876216665
0,0969641166084677
0,101187727366039
0,100565304780846
0,0998734642792273
0,0975031747647761
0,0995108975459304
0,0991477900193799
0,100860329399449
0,0998716002837608
0,0986032129993204
0,0993621571312895
0,0981905082253239
0,0970290858207832
0,0991996008548991
0,0975316278763626
0,0991716607904276
0,0985536087120739
0,0995471529912915
0,0978372794341344
0,0992681826459602
0,097024459024039
0,0979885903869112
0,100739920220531
0,0987404528186843
0,0948221658379171
0,0983055266819981
0,0965702952961414
0,0982622971546441
0,0970246475972366
0,0952321092474737
0,0964838191394387
0,099203689336925
0,0966722123339502
0,0967387814026355
0,0945038723361937
0,0948152936733448
0,0959067547628907
0,0961206413024167
0,0945935848262466
0,0977181883977871
0,0959593112159614
0,0951498520958947
0,0930367112058223
0,0954533802493565
0,0953623364071863
0,0951282326745449
0,096508019888046
0,0972848118022669
0,0939462588817937
0,0960459686519725
0,0948074451688253
0,0942048108920345
0,0956863775099677
0,0966353678367915
0,0943831973324622
0,0956252737985542
0,0922739462242501
0,0945658850296401
0,0955647932872298
0,0970760237338388
0,0943442529645821
0,0947820751365689
0,0943789815563212
0,0951101381769644
0,0942157375783025
0,095447762787176
0,0931273694582281
0,0942715906908325
0,093175713608503
0,0928798173830376
0,0933495413094971
0,0959958878633979
0,0918991725253851
0,094769014487762
0,0958554267730237
0,0962177870459174
0,0941700312801292
0,0918992410290174
0,0920414769484569
0,0940640425349168
0,0931244013960367
0,0939489945639119
0,0933031715995188
0,0925570525683325
0,0914016936250277
0,0927660125883016
0,092430561565707
0,0920890768287913
0,091711686197605
0,092695920549973
0,0913353840076803
0,0920402060367281
0,0924521268850462
0,0936037026218068
0,0923706714087985
0,0932458921531365
0,0903755447584499
0,0898882185794364
0,0921960504080081
0,0939373826396761
0,0915877599908049
0,0915585807410589
0,0905042966377547
0,0925481612156172
0,0930671695193355
0,092530354905338
0,087685058111028
0,0910241831325751
0,0895644985389387
0,0892265510866305
0,0880296634032669
0,0896594252812428
0,0878546298508258
0,0873451587287216
0,0868595447277255
0,0884000944550255
0,086659319024635
0,086883047401648
0,0857066818608085
0,0869262912018873
0,0860014084932269
0,0842319986121181
0,0849362789620662
0,0872211016184882
0,0856082599762579
0,0849476788317663
0,0835774756943996
0,0848659367737732
0,0829550200044949
0,0860008718222305
0,0806303352228479
0,0838889505668259
0,0812359803265022
0,0820848272631699
0,0843021079029631
0,0823051536222109
0,0812143502628119
0,0809777146787269
0,0824462921495663
0,0815488513266943
0,0806309699012711
0,0788482205930862
0,0795305536070528
0,0804792636601298
0,0797875971730481
0,0799595489025719
0,0782521874153131
0,0771158804981069
0,0771952562118928
0,077685587133092
0,0797714770841705
0,0767429652231535
0,076746241114885
0,0787410108186985
0,075257521234593
0,0755019514757449
0,0770225808584505
0,0775208149064911
0,0757355478809513
0,0714980692752881
0,0812387682341993
0,0753713084056517
0,0738896899439838
0,0759770104257451
0,0765926415470338
0,0755538892703856
0,0772975887619438
0,075490094017381
0,0743338533819727
0,0743784814749949
0,0759226043564559
0,0752544117978222
0,07371266350608
0,0729880974555471
0,0761058535179973
0,0761129204782892
0,0745812612105537
0,0766805706267441
0,0750917695601368
0,075371299274984
0,0753905044945418
0,0722805183089575
0,073656986069124
0,0746542202482644
0,0721011534552575
0,0701515960336604
0,0722210848320988
0,0754925379429129
0,0747147330304468
0,0742401855781811
0,0717237045967496
0,0727984916744451
0,0716316209893025
0,075564078761279
0,0719987166569322
0,0722743285504728
0,0725090165818541
0,0700365158916064
0,0701667674852834
0,0730345231661162
0,0711926085469945
0,0709292043393721
0,0717172345489559
0,071523346877857
0,0705667818980102
0,0726752539531501
0,0713738353269224
0,0713668165278611
0,0693564194319895
0,071281442435983
0,068359352491946
0,0715937100415928
0,0637639349568959
0,075996446583385
0,071300983069417
0,0725884457012655
0,0717115066858286
0,069671391590658
0,0706750128984651
0,0720730635531192
0,0685454120300729
0,0680876219651627
0,0669484245245333
0,0667507117928393
0,0671962266741394
0,068992160741416
0,0679930897007186
0,0690885229546808
0,068132503388377
0,0683965364432135
0,0674999252127245
0,067908940271162
0,0673768043296461
0,0646556675518399
0,0697963486832873
0,0718984642167767
0,0650930254066081
0,0709598101633161
0,0620384805793042
0,0692796959908673
0,0776056185061981
0,0648913320017046
0,0695225067646665
0,0657726863548251
0,0687731272869921
0,0668948971302517
0,0701095600850962
0,0641978928033654
0,0702113553919644
0,0660408082085893
0,0695111689627515
0,0695239106794981
0,0674626893510188
0,0657845780375473
0,0638030332579128
0,0656927316248779
0,0694826519456588
0,066479313052957
0,0649945367950101
0,0644764366693393
0,0643315240760548
0,0644227116124071
0,0657144286662509
0,0652500864221046
0,070201956836804
0,0642702387160491
0,064278171946206
0,0630873819377
0,0661704367402596
0,0603364856490569
0,0698156561372227
0,0672704394829626
0,0649772215645017
0,0647210819640217
0,0619573519618552
0,0650123960857459
0,0629304513714617
0,0659208825689686
0,0639938403986136
0,0631445018781917
0,063095037369808
0,0650701908964258
0,0651031333818356
0,0652657131803484
0,0629542365760215
0,0632794447721364
0,0647351169232344
0,0674434753650622
0,0648895192084057
0,0640619431455341
0,0594626779834522
0,0623616016431604
0,0702793945831795
0,0646185878678954
0,0700037607784118
0,0653754000049763
0,0652053103854792
0,0647286055845162
0,0653552860373917
0,0615713260186571
0,0645536072046575
0,0616307751736558
0,0629612776068794
0,0640130505572963
0,0655931512927673
0,0624137139080926
0,0643000844228655
0,0605862148668073
0,0633957839155335
0,0613483456347765
0,0629107361740163
0,0648602585783565
0,0633091455678085
0,0613644393180545
0,0617235530934759
0,0645387555639105
0,0631928479537412
0,0572312441315193
0,051240892566032
0,0764364055793991
0,0610865642939962
0,067144086682311
0,0642583467158256
0,0627915070679838
0,0627631265318563
0,0623231257302102
0,0671791057429673
0,065814750447237
0,0605271042898972
0,0632358020192897
0,0638712102289748
0,0648372561487095
0,0597451446498193
0,0571167860201487
0,0666203034151564
0,0711651522274836
0,0623503681381112
0,0651051163300862
0,0547512772889711
0,0723965277732742
0,0676552622348516
0,0617900805747444
0,0662588733190496
0,0628504510261426
0,0645459175213042
0,062345428519324
0,0637693638954378
0,0643992388990017
0,0647580529082714
0,0626740142798219
0,0648532533376276
0,0635223211459629
0,0657635640196737
0,0652686673611913
0,0636157092115452
0,0701831468494842
0,0630990735865351
0,0621782505089801
0,0683524548703815
0,0638865291537916
0,0653004898586564
0,0659846220973887
0,0650262279356254
0,0620955480166276
0,0692119167865774
0,0659420773459291
0,0669151190342948
0,0693885119880443
0,0670229493160047
0,0684598805901128
0,0704397103950937
0,0687711461962385
0,065933812101684
0,05185717024637
0,0789672014652741
0,0684844439177335
0,0767011933070786
0,0697925695768597
0,0658129202817688
0,0702258293472538
0,0685077654195765
0,0645375330154128
0,0696086702068685
0,0748233769648664
0,0657450210826504
0,0727825318271
0,0649865211699085
0,079858429725174
0,0715127510398267
0,0736172409839264
0,0722729931131325
0,0700539404122984
0,0743911648909125
0,0769444945276753
0,0581177807794653
0,0730227942357938
0,0784836358422879
0,0781081600863667
0,0802252665131401
0,0681672358024409
0,0752441332494435
0,0825144346744486
0,0720940923664516
0,0743942705485915
0,0737775703612266
0,0736924762658471
0,0652605440479623
0,0823880192741492
0,0811817557664141
0,0762835519572251
0,0786431939948958
0,0766897964268365
0,080062387963176
0,085941874594642
0,0768307661478956
0,0795859619867158
0,0772570444514663
0,0704107647330505
0,0734664979604692
0,0964677203216953
0,0655243913340096
0,0954188990598429
0,0862872330143596
0,0910918184089083
0,0855081160958406
0,0865376311591465
0,0808980776383545
0,0968359902891612
0,0918471774480074
0,0829552837072021
0,0775416205183948
0,100747921259104
0,0917808248320602
0,0913336464949803
0,093993092344177
0,0814742863857878
0,0764466783928806
0,111362892970108
0,106875364793766
0,103467647139042
0,0962913741045524
0,0998166335638091
0,109027793184845
0,100264935135481
0,106456860812402
0,104079637327128
0,105501224868208
0,103782384864452
0,107379936769098
0,111230345941833
0,108480608079269
0,113178846711135
0,105907230300121
0,10741780326243
0,119500764060451
0,127868864511147
0,11731658171452
0,115574827624066
0,134697813690253
0,124395594163739
0,125896266793892
0,121020618278623
0,123638548512493
0,129980599653672
0,130559869381652
0,125249270608911
0,124238264874044
0,140463282215957
0,130751593835433
0,144812435658365
0,143427921230303
0,134942821432838
0,112969689539997
0,16025404051008
0,177710817677804
0,14636950109737
0,159886923052904
0,128428799260567
0,182781221204004
0,176555315913306
0,168905838512331
0,172847842460886
0,175292788500377
0,171889829156847
0,188109778076143
0,187108269849552
0,19352215405567
0,201619593232689
0,191772497778766
0,170260990387287
0,22634357620691
0,231805373147866
0,233243676134539
0,217577164088191
0,226243986631296
0,240617504213567
0,242483339942081
0,242191755862634
0,248188574086297
0,229079198133032
0,284164181763488
0,2656806642805
0,267491580610533
0,269712052524958
0,283803154756386
0,283876489186977
0,282231060022515
0,315270674980584
0,30061644056597
0,304888070860859
0,308959493777867
0,315872359530106
0,308936905190704
0,321240823836814
0,344782932552345
0,332709995296774
0,339235659749352
0,337061405986758
0,342935198962711
0,346010429500394
0,35490421200165
0,341731162563229
0,338625509368602
0,359398607998712
0,394345456380107
0,383520324293679
0,374833660436923
0,370868154802761
0,357452517045002
0,383149741392595
0,384193541541737
0,390705545045697
0,391071775841854
0,382390377917454
0,387189225184246
0,381456063898107
0,384126053570533
0,376638670740612
0,381712871626025
0,37901445506674
0,382076722191624
0,383981173084178
0,344973888575914
0,424107163461453
0,394358321045305
0,377867117677298
0,375798545737909
0,375189900181586
0,390283656709125
0,376342244668556
0,358760295811704
0,386063320375809
0,376877563579463
0,362175091621358
0,364752045203423
0,351660409463524
0,379658576728108
0,357852807994564
0,357122274560159
0,353071837808466
0,35271844931132
0,345198132430901
0,333379464674273
0,367542026137434
0,354706687316558
0,339464339159728
0,338542727664268
0,334434040427743
0,339195855515934
0,325819374806221
0,328499642805666
0,337253035566018
0,326872502730535
0,321873419732943
0,323930452831363
0,318179608439472
0,324306612931206
0,318754150736136
0,321176906968602
0,315803028798742
0,318272308841133
0,307863452487358
0,317180243636665
0,311015024623077
0,316909793096665
0,315829161845794
0,313081313667207
0,312118694753825
0,313014887936165
0,305635230833033
0,309106830724444
0,302821352064176
0,306179980884652
0,304577658250209
0,302778694927206
0,300041691049936
0,305968554792027
0,295597423286743
0,303284561751873
0,300780433129636
0,296459014556531
0,295552932490966
0,297248403784606
0,289015027300882
0,290843111599978
0,271652466119019
0,278369774562353
0,303773925817039
0,28865947032818
0,283524085547025
0,28687742308682
0,279007411115829
0,265291761067414
0,271613498878484
0,290526775630496
0,269666716421826
0,270289559863457
0,259079164361868
0,259181378928998
0,265754152240598
0,261842656124483
0,251481058982754
0,243924384695663
0,21095425200506
0,260398102743112
0,206115345298658
0,281308483755401
0,25743902246288
0,240919524148091
0,220913058270302
0,251095012422057
0,241201146798612
0,231525188084861
0,225526934132667
0,226963021976252
0,239259270777793
0,226324344734012
0,223617193460756
0,219654914360335
0,218738053287275
0,24032621245074
0,215438539328912
0,206799517654251
0,220513672596071
0,210767459384283
0,200061284696109
0,244078406389572
0,224264771958637
0,215789638393838
0,208138565430459
0,208287460519837
0,192653379486218
0,218082555523873
0,21201197838277
0,205201400413069
0,207035623512284
0,199495444130799
0,201093705534355
0,203381230267748
0,19445870067646
0,189401880028517
0,210133919071129
0,205019256987898
0,187262516727681
0,20007150499743
0,180689912626608
0,220332662134252
0,200460279018506
0,191894244442348
0,185007611383896
0,213903780902793
0,201419537542614
0,200860226865456
0,193893594163987
0,193129171193476
0,197643450710003
0,196350172644965
0,184785932509875
0,197347109636606
0,184836233185092
0,180316737880863
0,187896444619693
0,218029914283818
0,208600601050483
0,200677993241508
0,194662399303109
0,200458034853337
0,199376115461623
0,192928855753211
0,198645101447795
0,215412815624501
0,190015732686135
0,218428557435002
0,21755670665296
0,215751079180655
0,21730543104162
0,217765225485809
0,209357521926681
0,225472574220076
0,23776225283232
0,239823698380301
0,22464036149738
0,246045951124354
0,242175832213015
0,245406809694904
0,245074971948916
0,25665344498141
0,250165090261919
0,265097505619924
0,265295380024005
0,274825698905385
0,276401147761093
0,276088700112604
0,274639140121728
0,309079072792566
0,294546576935044
0,297888850176255
0,308943150502052
0,333669764597911
0,341874001045002
0,334185479662014
0,342279809602675
0,348670335630542
0,355697442146282
0,360431538699882
0,344711193136857
0,391392953634355
0,381431055472515
0,389307604743218
0,390578346307219
0,390731763732945
0,387322572196295
0,403371346462546
0,39110959555479
0,411738212896085
0,433668954261361
0,426236388350218
0,424293470879164
0,419555675399717
0,419250598039093
0,428096762718267
0,426681174998591
0,423901428408752
0,423614978683747
0,445579550173625
0,437930445860429
0,43881945923987
0,435315472683408
0,433024387147763
0,439250230138174
0,442107294673545
0,442443593544246
0,44823241604614
0,449953327600453
0,447350349071992
0,431821647533662
0,493615623822089
0,474004526282794
0,469491994727554
0,469505112786315
0,471954438301278
0,475511253804199
0,475854450871145
0,48115732349346
0,498530709630344
0,492329410527074
0,4933134064434
0,491643040877399
0,497123221774925
0,499523297633251
0,510160584336658
0,507594572599092
0,508777495392353
0,501376590553264
0,497574886463066
0,545613840998748
0,52107915588824
0,526766766162199
0,528622721901872
0,522386332745378
0,53152061979642
0,523523738349224
0,525622846930743
0,53386539100906
0,539584577560793
0,529943621644156
0,529172839272479
0,522865238316483
0,531025419548379
0,520414771653385
0,538089841752702
0,53907016713765
0,531170507004019
0,518392808291121
0,526914580511753
0,504914185754972
0,51937605091104
0,527124727388842
0,524527253230079
0,516846471067606
0,507414519349563
0,529255527981459
0,526709015761927
0,513791753832661
0,518593161524023
0,510262505351694
0,519853767410617
0,513217010395736
0,513838483210397
0,52668800272204
0,53621897739153
0,52886747130349
0,529197666816515
0,530919796806901
0,539028468585018
0,535949443706207
0,547004714124004
0,549436762041164
0,549373750897031
0,554627744766424
0,55760147194884
0,558357203804635
0,558419997126588
0,556024841215092
0,570884815674291
0,564186174653972
0,5663623288176
0,572109961662644
0,564041572559057
0,575209081462379
0,564573887950022
0,556074749617746
0,566439699626534
0,559769859842644
0,546480132245573
0,561105621996219
0,556098367988874
0,552643472495626
0,55758363025392
0,54448732157753
0,546392360274158
0,536890422269287
0,538555879324702
0,535556542343176
0,535915854581175
0,526962668438373
0,531364918883898
0,531628170476922
0,527264321699897
0,523964339664498
0,524187447488224
0,523778790881627
0,526378612577458
0,513462155121083
0,521896701936595
0,519612155721075
0,515074042089663
0,517293260868277
0,513856761954697
0,515764585779229
0,520805632819584
0,521250534033564
0,515109303689137
0,517038221028062
0,511241241960882
0,511497213050823
0,512091437591962
0,511894414119065
0,51976509068628
0,517018782465265
0,511574052032188
0,509112765977358
0,503724563335338
0,509529426335318
0,504636723890337
0,497315583114545
0,498385239185869
0,497465064287988
0,496323798638686
0,491640604551656
0,491912815177665
0,488297235721142
0,489545303533136
0,484299200189246
0,482752346379059
0,48300055862647
0,483689141941991
0,483908903355211
0,478149756193837
0,479858065818424
0,47279504706793
0,474502865330504
0,477862845182157
0,47566388811721
0,475036446116221
0,472151184224698
0,477274623626464
0,47382155426318
0,47353390344698
0,471548071509466
0,4624207746358
0,46195791406966
0,462533840580018
0,458643451578678
0,457855312615315
0,454388598879445
0,451213558825587
0,449412103113364
0,445058395204962
0,441289015740777
0,437526519497722
0,432108813338227
0,430239488543842
0,425409735026716
0,42288264518043
0,424971712380846
0,419097396273679
0,418242771507836
0,416891138120108
0,415134742693125
0,412883911192844
0,411385914574428
0,410467840880608
0,410195726958753
0,408858819125186
0,410847227835771
0,408529567208893
0,409935448538201
0,411988207746018
0,410119891474695
0,41345829049161
0,412894131005947
0,415583316831664
0,414878174984947
0,42010672858037
0,41554555708857
0,41570743943621
0,420715235522424
0,418211375959658
0,421750639818313
0,427267732261343
0,424163431270655
0,428489175501444
0,422593739537311
0,425361225187931
0,428081059190708
0,429633060778602
0,428986523488334
0,426560328136575
0,429291716607605
0,430569142068547
0,428100439724622
0,431665202632625
0,426621754913272
0,427971298112449
0,427189449330874
0,423380248138783
0,426381264585233
0,4254798993641
0,421614441362413
0,422476444402842
0,421711419965659
0,421293880785227
0,419736135550134
0,421812558389748
0,416522460118128
0,41506469375128
0,416674954990085
0,414835312073668
0,414445776504736
0,411638101793564
0,408870733269021
0,409338993378821
0,404847190643768
0,409923967711186
0,407050191382786
0,401158469751064
0,399598779603306
0,398638066480875
0,394542412492558
0,395280638984724
0,394556794177457
0,39040358055329
0,390968138771511
0,38741720036419
0,385252296867748
0,379156517018986
0,379198727155542
0,375814351249143
0,373898103428801
0,369382862251332
0,368410461857343
0,3652136092044
0,364267604153847
0,36191937438625
0,360248595613993
0,356567251697394
0,360898445842857
0,358409447844424
0,355691430198282
0,354712334805428
0,35399099718711
0,354864894667042
0,349747977601389
0,353197511854576
0,351217918480728
0,350681013009742
0,354728296955456
0,348712998819959
0,347550481597993
0,349830102842458
0,344229781915969
0,34276485497269
0,339628100579952
0,335779321050233
0,331645055461803
0,327466075413783
0,324295083445075
0,3190218955132
0,313737455526084
0,308644570127656
0,304574684582355
0,299387879218965
0,298685129219983
0,29556084274944
0,294188962144497
0,293302948829345
0,293542083291233
0,297112801056105
0,297174021730654
0,302291439884551
0,307379717229443
0,312346867385437
0,321025766902558
0,329912595775703
0,338404523095538
0,350033353938347
0,361280289791154
0,377099131705206
0,387830628539996
0,403964280411805
0,415207477634473
0,438270907376414
0,453663435998202
0,469176795916871
0,491335769623628
0,509191795727469
0,533378369227576
0,554392042623889
0,574171935641885
0,600731587153603
0,624306255784479
0,647533076879111
0,665653987091394
0,68800295896192
0,708230924009227
0,735689944695296
0,756093058150142
0,777083565442838
0,786037736686017
0,798776072749597
0,816263104721243
0,825844018412265
0,833097144967258
0,831962475553142
0,843985719533658
0,847239188997059
0,841830745893602
0,83932278852352
0,83972940707127
0,8302092431448
0,828256854688377
0,822537714978914
0,811490916617508
0,801589569685572
0,804776515105078
0,799784856370724
0,791471099894168
0,792542786166346
0,784804307359791
0,77912407602452
0,783106154970544
0,776310431562298
0,776981478576441
0,780974061799672
0,780492336015106
0,786452938814881
0,795260384320735
0,799925782856458
0,809874639187441
0,813093940849779
0,819050272622117
0,836990904783252
0,848740459386377
0,852277966101551
0,858807020912446
0,863716231130193
0,876193677576226
0,872016883093988
0,891120148542805
0,894595292788746
0,895598083984718
0,899351933850301
0,908628175388803
0,907131695023656
0,906545209150608
0,911867421161203
0,914779464222789
0,911191936118581
0,91663060245791
0,915195120173255
0,921345751131158
0,916673089211221
0,919702140073992
0,936406124365593
0,948727922804974
0,936580249221154
0,956094059821313
0,958571010673916
0,9670882087253
0,973959254770076
0,964734807627207
0,971505775669591
0,991248708885526
1,00157835806578
1,01412932276774
1,01013365159762
1,03405539856813
1,03684766226172
1,04305158747321
1,07269742780735
1,0905404189537
1,10290658299894
1,13387505907457
1,16554098664065
1,18112778799334
1,18772727960261
1,24359016051812
1,2624388889468
1,27791694675215
1,29948984068177
1,3689370124999
1,34163391678246
1,37578745161904
1,34799317217144
1,41462682703676
1,38170500416276
1,38939080284937
1,40236140035336
1,37568316275907
1,35040243922416
1,39714925461816
1,35952740769457
1,38638955342663
1,33945151248008
1,33961841995275
1,35901815096202
1,35352711051061
1,34839569004566
1,35723285320058
1,33833096200862
1,37331321484148
1,35830201903435
1,40627967507886
1,39780171143095
1,37448296503799
1,42761844944394
1,44537293459924
1,44970026660242
1,49205661370251
1,49640125648254
1,4653512258318
1,52497076721117
1,54633704919255
1,52608913854706
1,59872701313172
1,58090404793306
1,56804101619294
1,56242825286554
1,65611499394638
1,68340021059683
1,67458929523589
1,68459707744657
1,70585071502947
1,75543945495645
1,81016639747601
1,70792047883788
1,74948221160313
1,71333217624654
1,77486508785884
1,8213378833461
1,88707785081936
1,73950859453804
1,90313207549721
1,85090459616114
1,89944998584859
1,7966593142095
2,09692925104631
1,95115684759875
2,02831944181784
1,94770669344671
2,00466489633522
1,958476126596
2,11404422391633
1,9837207406837
2,12131577035567
2,0922181941902
2,11714309575761
1,94216577331256
2,17783356369601
2,03206294246102
1,99887913498882
1,93524949486993
1,83498899106347
1,83832815835903
1,86994897538752
1,78738311919951
1,78015032423501
1,68613676541468
1,70713531375913
1,7290395792878
1,68000397028991
1,60726236950077
1,64613296242195
1,65661157793694
1,66983169343883
1,55980700824048
1,56166171642407
1,56121947292099
1,56971411509813
1,52353297476454
1,54919210674807
1,44123411167636
1,48419529406738
1,48088717117792
1,45805492745115
1,40613889302552
1,39252796851678
1,31737725889295
1,3036828847714
1,26667893452367
1,2306707444872
1,18426056111588
1,14273697602448
1,10923367883583
1,09094526749718
1,02929789715372
0,986232551813344
0,939250041496717
0,927289984381839
0,879005642592386
0,851068676141728
0,812211279413979
0,793901463953801
0,745900721290107
0,722651264527332
0,697068718863426
0,679300742485441
0,651369962043958
0,629356300409806
0,600099086618155
0,577967029176718
0,561330012267559
0,546353649045599
0,527450546546932
0,52064149123629
0,510537833029504
0,499502207122675
0,488734124959584
0,475754097351978
0,471754985792117
0,470391508036913
0,465492772837136
0,459037539667479
0,45581427496206
0,463374173247547
0,45602151853026
0,458950627648843
0,457298610732241
0,463032955188348
0,467552465794932
0,468144233987936
0,471912181860381
0,47988649603474
0,478755668773058
0,484302290531345
0,490756274567867
0,494213657437202
0,495785961924496
0,507329933025965
0,500925065132089
0,502338913966373
0,50861310482582
0,511237372277938
0,510213229073864
0,512227747625438
0,508048812940159
0,510439466351607
0,515415538127045
0,518643681885568
0,516764874928124
0,519907630419193
0,512623132631445
0,515963661738146
0,521877731772864
0,522784669562239
0,514990520645833
0,521767365426276
0,517993564975582
0,512249514026417
0,514304746681798
0,50813971385086
0,513753800419404
0,518910968913209
0,508189678222489
0,506880141020451
0,506490185734887
0,500628212781975
0,496233172611832
0,502869096754613
0,492584866332168
0,489761896753018
0,494033862771986
0,488841204073329
0,49126573556553
0,497043744111308
0,49731452225481
0,500463771375277
0,498403365226176
0,503727633078545
0,508215692456994
0,518488665700016
0,518190471561897
0,521772529195725
0,53087907737293
0,534589132591045
0,556317398645396
0,569644801302154
0,560715958104501
0,554858502614652
0,544783648381044
0,541089103094526
0,54256073486081
0,538153063838225
0,535336214734328
0,529771146623917
0,525534043043731
0,519885647666629
0,510109974520249
0,500008038626136
0,497248711443511
0,501593979453825
0,495494559802805
0,503019891627152
0,511132710167644
0,498891767549828
0,49070010418971
0,508402778882815
0,498742729936764
0,506742222814051
0,509114690218653
0,498683094453988
0,508083299510556
0,517759662257961
0,498156116040457
0,506108339986787
0,507695691732664
0,509694388066915
0,507510166622821
0,513012115244699
0,512239427489248
0,52242832800885
0,505191197706264
0,508696829412432
0,524679342676854
0,513977075609282
0,509023238460841
0,528192029789919
0,518354936169776
0,517626632821922
0,517593047197717
0,518009050903752
0,519056917385257
0,511887215303212
0,507949793415787
0,511639301774245
0,503544968615549
0,507594206246711
0,506752539701363
0,511753244594587
0,502959727452378
0,500990740527784
0,496789347015336
0,494160068402893
0,49991935971282
0,507079571368794
0,490882396576932
0,482394769018621
0,475819254106469
0,482241100091834
0,482446475272318
0,487552915621057
0,481795907823628
0,476427634287316
0,471849390516717
0,475806967921019
0,461390940826979
0,460086722077103
0,464510145492457
0,457884726280939
0,459356440227671
0,463723361698943
0,457410607455643
0,460199987272459
0,449952794376532
0,461492711500938
0,454587018935294
0,464354002309707
0,465608802064562
0,454583304595663
0,453859361203241
0,469489948714762
0,467635665697031
0,460159408725531
0,465564858735288
0,466879554531422
0,468898600270725
0,471141733267996
0,477533318051323
0,476623043158289
0,472897159292079
0,493104964694789
0,503315349140683
0,475610594842437
0,498070327829656
0,519825652467542
0,501206534506582
0,51677130317811
0,522532686550933
0,527150218567432
0,536534478801969
0,551797487670687
0,552967124616372
0,553318947743539
0,562951357904164
0,587541720204622
0,609059876621392
0,612690855378495
0,616881688015416
0,633706259383611
0,62793911188284
0,659398808282815
0,628331719540484
0,628164147025834
0,675495106045611
0,70242047946335
0,663237037706954
0,687639712656519
0,713198352758749
0,69962767497969
0,67051546976862
0,691148150580437
0,691276491549993
0,697530097183997
0,713742876027005
0,713307169571405
0,697701534923038
0,720843973365686
0,735035118581011
0,732718956280083
0,700367678165723
0,673663648995085
0,712120493861961
0,737875380667747
0,664952540358223
0,6838230465627
0,722450535062004
0,742516348664148
0,692554455728911
0,700189173614176
0,704015166932729
0,701240706065997
0,707714847684768
0,733670664429171
0,722367473247799
0,761936401350634
0,70070260774325
0,663061850339235
0,700845351688611
0,697563642430019
0,705216155221496
0,724197248061268
0,669605702364924
0,630724824553334
0,686742959775697
0,697300809803957
0,666093365601626
0,655909350350971
0,677290287355704
0,675736049184195
0,662504617926236
0,691121503959801
0,707722764710384
0,679998665811189
0,664843703900979
0,752256359707875
0,703123604760804
0,645118115013428
0,67722297132713
0,724946621205872
0,763143532149385
0,700179013554115
0,670777810958394
0,729067268523475
0,68246910250676
0,729037290477027
0,734891938230189
0,732205095473965
0,693728178782592
0,726685109955906
0,729189790225332
0,716201934510815
0,773629550733967
0,788900910728337
0,770930556630333
0,805540528975621
0,83795148650442
0,687650241930749
0,746492697561005
0,750235430498435
0,725561832242865
0,841776589324919
0,887038987665196
0,793700375598317
0,774198667614726
0,817976665343547
0,828585373994462
0,834954070761617
0,729714455052951
0,891221449292406
0,886998729630496
0,851918218045724
0,957581825652238
0,844233610294032
0,797610652825936
0,81893741583295
0,822612181884782
1,00393853149585
0,865007312179016
0,943586004368994
0,913841709863753
0,817905066289179
0,728227722643403
0,783944399771129
0,776692585628522
0,841324703273125
0,93214555248258
1,06374650083676
1,1088674606585
0,806655151597378
0,696675369382355
0,807928756237091
0,891284142374033
0,805441360690411
0,841338311171382
0,956987429317339
0,912031629564096
0,830035298790223
0,890762422627368
0,865305714997044
1,03318513084119
1,14460112398989
0,878981455239072
0,813973275232463
0,974761285009403
0,922222786468637
0,668034551230805
0,840129935351561
2,7710951169788
1,24629600560947
1,81499865133748
5
0,560217046254176
0,687198982040657
1,19417379216797
1,09286991364458
0,690626199286621
0,766292550871085
1,0094792120118
0,660468621708475
0,672265248702813
1,07113538182211
1,46393718991761
0,954081116675989
0,64371772096513
1,11838007729379
0,879446945570811
1,23625727053931
0,906936464844802
0,39636747176119
1,01898921369949
