3596
4000,36533379555
650,420452594757
1
2
2
0,0616637401226174
0,0470743309576252
0,0470889895580903
0,0396732969165285
0,040766141576006
0,0545845830805122
0,0502157791478882
0,0502604368280805
0,0490130075250609
0,0520981397131955
0,0516893804036312
0,0518018419725857
0,043767389037721
0,0535285648702657
0,0471961554546821
0,0510191861874738
0,0475326724515476
0,0541668147001044
0,0545615071134653
0,0457018330671898
0,0410791281581234
0,0419686977924176
0,0514971864113148
0,0507113978720521
0,0497280590211297
0,0500171282007669
0,0446559830394687
0,0492053560969228
0,0501076396639254
0,0564485065804838
0,0494285252028807
0,0515061590417405
0,0439562464319767
0,047969771933069
0,0400586317088545
0,0490168521551599
0,0502571244623612
0,0529453403667609
0,0546446322767958
0,049628967459007
0,0475258980823605
0,0425684851468437
0,0435055572835835
0,0485012290260296
0,0485345868871576
0,0567773295805614
0,0528511612827927
0,0429172671072895
0,0424043205284353
0,0557840781692814
0,0531658162064685
0,046404862279248
0,043703269521493
0,0549488959058532
0,04662931060789
0,056302234320537
0,0488332521681568
0,0364817906289008
0,0441103911944894
0,0420119267588159
0,0534087160484453
0,0556445430681392
0,0506683747769604
0,0367551769950362
0,0427182785840056
0,050141954670428
0,0489870705301978
0,0365294081122046
0,0439014631208153
0,0460856738495769
0,0385542131560186
0,054088459478951
0,0558929092333879
0,0551675665898044
0,0513915815033939
0,0511986323724205
0,0476339130060427
0,0375190014917493
0,0321004155004669
0,0492970614833082
0,0587064558856195
0,0556855318202011
0,0430004263926144
0,0326394309264472
0,0464503943327282
0,0613887200551458
0,0356804553488502
0,0444818025302404
0,0534860277171444
0,0581548834203426
0,0398980780528045
0,0472903255181946
0,0401022038482148
0,0451574393209969
0,0433332436342802
0,0384313953803206
0,0435501387064646
0,0587689272148019
0,0352099566795647
0,0541342505608038
0,0223665171703138
0,0785570214899341
0,0522329089397925
0,0293201979789542
0,0571770196248634
0,0420389787058858
0,0342185363029709
0,0623270068620987
0,0519850580391833
0,0450594079393439
0,0388313408751524
0,0384865959756217
0,0457003300408214
0,0474116915292844
0,025699300887161
0,0441094047070406
0,0555722309992362
0,0566930054441302
0,035446737782235
0,0416604169450931
0,0167174836899949
0,0667684204709205
0,0610788641011462
0,0502933095626364
0,043934440395955
0,0417446730993743
0,0192105857580895
0,0762621420509956
0,0582225866918681
0,0569720216653554
0,0297009523007476
0,0497875587538392
0,0201213115843063
0,0413575298701954
0,0453383526869603
0,0583492224482912
0,0362116063107307
0,0231313193412164
0,0343567622096322
0,0758298408272649
0,0582876255569091
0,0457666787258686
0,0171255449339636
0,0405850518672177
0,0582821872093918
0,0661752051793808
0,0337203517178251
0,0613531126663505
0,0428382659547115
0,05307682426431
0,0371206141504162
0,0285630686595708
0,0481401244660198
0,0450751415456093
-0,0215514543470287
0,0959347630811981
0,026371075720917
0,0730654146950011
0,0675530710440147
0,0573041908766427
0,0380846701435586
0,0405908771594017
0,0463126750528974
0,036580600687302
0,0420453619505175
0,0258666078702632
0,0466683711773241
0,059940339444299
0,0438273585769824
0,0346972184238061
0,0574704041334437
0,0395358143966612
0,00299451492690989
0,0893001955311517
0,0424039251248125
0,0422811604114452
0,0515640068149903
0,0573818064832059
0,0202315954676355
0,0638707297482067
0,0570431434907361
0,0481361431479147
0,0457352587835583
0,0370646659334235
0,0203952130909361
0,070085655908288
0,0355829831360328
0,0477118707201457
0,031319027433515
0,0250994720024877
0,0136122818731717
0,0960370961711487
0,047661916474306
0,0537159167404878
0,03183159904436
0,0139291163504136
0,0658236401688927
0,0735098321964145
0,0481230460801448
0,0451487586560233
0,0404362094111442
0,0452696403059066
0,0325793511659278
0,0547724949363705
0,0284029169090507
0,0147100427382936
0,0565727103109823
0,0592702714810648
0,0511419266795773
0,0340532129203926
0,0280207484748186
0,0148457588413464
0,0739386500170111
0,067600788728967
0,0556430034895013
0,0400045217076215
0,0244386385560498
0,0472554081352387
0,0456614375017591
0,0531185433187957
0,0406238551824851
0,0421786420541002
0,0436217989260953
0,046138673012554
0,0363901603040564
0,0502773265628893
0,0364079243965868
0,0536157198680226
0,0397227346473196
0,041264495429154
0,0498828785155869
0,0496392285182632
0,0369040269849387
0,0505648064542494
0,0247275288579998
0,055043111399212
0,0489487226173474
0,0528301374534618
0,0378911922464327
0,049654026798742
0,0385247216812351
0,0439205213371962
0,0334384339341453
0,0496942570284725
0,0265052542429967
0,0440644499542874
0,0611484566691632
0,0577814020025154
0,0442881952685766
0,0231329737142693
0,0602876018774237
0,048044537685719
0,0543612322695178
0,0334369789636938
0,0535538323952005
0,0236225109685828
0,0274723583525021
0,0622481528663237
0,0480845408763793
0,0360801421555657
0,0624685540035058
0,0473538682186866
0,0510314026081421
0,0243894736429883
0,0136433449908715
0,109903071248536
0,0358098932249848
0,0281276558268219
0,0905583321300562
0,0526227616573699
0,0588468989793778
0,0261532309324506
-0,00434116583596075
0,11599872508108
0,102323321988136
0,0480857008209968
0,0374679881585707
0,0639197375471261
0,0356947720381121
0,0557669127238145
0,0288191180141659
0,0638250904116687
0,0242078576746565
0,0755741087909401
0,0732111844816894
0,0270248126618642
0,0764298396940172
0,0591826380187646
0,059745333680399
0,0497581631794341
0,0476968761903145
0,0292343385866341
0,052775492253043
0,0504584450918567
0,0691708674557167
0,0400575297851892
0,0368230096326332
0,0621422097852777
0,064027342966211
0,0405885984416251
0,0577971193866567
0,0608487617878909
0,0565148706577948
0,0550525551842637
0,0436337840400068
0,0633877783394737
0,0292512050310494
0,0306835479535097
0,0895010219231692
0,047719553421182
0,0475803624795605
0,0787566555453871
0,0573423140412508
0,0496627051848755
0,0508950682837098
0,0587942424244434
0,0567529332525404
0,0468890634593462
0,0387779079128871
0,0751177047641862
0,0551807612655194
0,0639726458353007
0,0512386975976242
0,063525498799128
0,0486969794341068
0,0634875567485061
0,0488109729289756
0,0667335535593065
0,0574695549077051
0,0282255983959855
0,0646037782080597
0,0847918364847279
0,022631695312314
0,0886817208216546
0,0716837492186241
0,0803775010793976
0,0562181818425453
0,0706801840916113
0,0638943371381311
0,0620006655687989
0,0573416307010408
0,061680324753332
0,0555805131331883
0,0896517794916209
0,0715754309825061
0,0661144544234417
0,0404263347705841
0,0967669636409712
0,0993559203146206
0,0892052767877414
0,0745365152622953
0,0366871932535085
0,093230603003406
0,0739336016874648
0,101344367101881
0,089124363052692
0,0749847664607881
0,0789297065176788
0,0738162991673873
0,0870750929609494
0,0736129974740472
0,0877964060792913
0,0723193001336656
0,0906730398486162
0,07622916016654
0,0977462122994463
0,0646007884750982
0,0945381572832082
0,112290466471904
0,100983298350665
0,0910130282205622
0,101080677396736
0,0686526952108484
0,121595426462414
0,0686808241892174
0,166970899569045
0,0801572151933092
0,127706743224053
0,118852376107836
0,111279048681301
0,10558874102658
0,107686560358819
0,105631606925692
0,11201133694728
0,108038260276198
0,120574302420315
0,0981273393723741
0,110961826795796
0,114132656723613
0,131205162594641
0,108849550878811
0,111301980838344
0,137238533679053
0,121568008110727
0,129549549056158
0,117476547377426
0,127204061462173
0,15703457836716
0,173734752196652
0,136558146996136
0,148237684674279
0,138403433705267
0,142357833041002
0,149168901088451
0,149267762024852
0,149002893182984
0,124902129356029
0,180628460525375
0,140677192713153
0,191893176175228
0,168026113330479
0,151743999688198
0,174141927935589
0,149945447575995
0,170459659801602
0,18365497497519
0,170146991880211
0,146572461648647
0,194236383703079
0,175365253892323
0,176644767795502
0,206603281481352
0,176333179478265
0,194163413864317
0,172636536073278
0,209221756565944
0,176786187412641
0,204440615614472
0,1986295863732
0,210834927410344
0,200210871802604
0,217044637650542
0,192384851848016
0,242929761971672
0,18731524221353
0,218157492601171
0,227693770982237
0,213305304043066
0,22014659012788
0,207311102987545
0,243018612195424
0,215719832093535
0,244965526384975
0,265887900057114
0,227791766857551
0,237634116558233
0,228833062932445
0,260140767506633
0,248491618362205
0,268104582301389
0,257487070892591
0,264132492153554
0,250891714224789
0,276354337667317
0,255949180079343
0,293947430578806
0,256071195427883
0,296139713106769
0,281015923061542
0,282705070529376
0,28007361691132
0,272607484017198
0,313953467848569
0,315733929294719
0,308269708305871
0,349306597224486
0,295413577518328
0,327295322194384
0,302782564508186
0,339761227275803
0,300966870879904
0,343171560633916
0,312356891950964
0,345764877047727
0,327866455310962
0,349608835659299
0,343020984470988
0,357235214653537
0,333357438253387
0,36712128521132
0,343005535976011
0,348810778864584
0,332559043314801
0,376376994475935
0,344464246809249
0,390073789322074
0,370484083865111
0,400217224384498
0,386586376779183
0,394746421203448
0,379492638690304
0,401827826905617
0,3829276727725
0,413887459701861
0,385251238206691
0,414280658157505
0,423598719368428
0,443452494393527
0,423683886007183
0,440115383697238
0,408212968376248
0,446467078799414
0,44284783303507
0,443448223548095
0,425144030963449
0,453474163140971
0,423532077658546
0,472940314488302
0,434366001569662
0,475590683139333
0,455625015329486
0,486193228893484
0,450121212901718
0,495312199934229
0,461852536669183
0,502013072784041
0,460294757571491
0,506138917700017
0,475735300773178
0,50593143314112
0,478084436105496
0,51894740565089
0,489639999442316
0,551315579910002
0,501638657538898
0,531803575011278
0,491986621065451
0,550023372473658
0,528419899699845
0,570049745582986
0,507101827173381
0,555665095915807
0,531288065464934
0,561904612669172
0,586062157692778
0,575555570490506
0,544939138906499
0,586887228298232
0,556479791656968
0,594180283080734
0,546389654994917
0,643755768191309
0,585815714404759
0,587257196169019
0,574921274041983
0,614522770974987
0,587678338325052
0,620031835095944
0,595845095100932
0,656282634280919
0,608756144228564
0,673202079598162
0,618724982488908
0,659381913135578
0,604898352326357
0,630812865672734
0,616552105759365
0,660212126784616
0,651145591391026
0,677264292073326
0,664707735043565
0,680879601246529
0,657369943605521
0,691808631779466
0,653273658397356
0,728981405473478
0,660253069995875
0,660076006034522
0,663743490896322
0,711199022270144
0,687366977238096
0,709981367423421
0,706654343027547
0,781811954989803
0,722148377810829
0,747955621005271
0,704901634842867
0,75692425337305
0,734848082062758
0,777606357557066
0,726811095551417
0,772612112108278
0,732180784545336
0,776832094803329
0,780703014646137
0,788343932157776
0,748774121619962
0,811821619532967
0,758390261914632
0,786290414094725
0,774526439519146
0,817358133629216
0,810146291687459
0,843164120821063
0,77199909696798
0,819370341542979
0,803549559119553
0,823485341623091
0,776547253828238
0,81096138127706
0,77037834399946
0,852618452663196
0,777689117313882
0,84682370796706
0,816738609681481
0,815800914915435
0,828555596657079
0,857470746536612
0,809545100062645
0,899254102676161
0,839092451214167
0,889502272583032
0,831949530980234
0,893687550643005
0,901043420946443
0,9206632200444
0,867998496949435
0,881524891021727
0,879853023772526
0,915047348180526
0,863698361500968
0,929775568123827
0,873702856919002
0,879308807550432
0,871493751568373
0,911716562347443
0,881785459889082
0,95036147989874
0,893209136999826
0,958614307418669
0,920436830426703
0,954666430348493
0,900654044905419
0,926806977661066
0,939385988867289
0,945341702265831
0,92003385183639
0,965565135158574
0,912649668656479
0,979266896177198
0,893209165882571
0,920768483030442
0,89032662431819
0,946766665390525
0,954508712313002
1,01627186392503
0,913194135850448
1,03500085937467
0,934136449878618
0,945258687945528
0,961594012379632
0,953048408433075
0,959263134298354
0,96677012812971
0,975319127987887
1,04756562531776
0,941590988307272
1,02862284494659
1,02519867057705
1,03537179074994
0,952588755301052
1,00197701222748
0,992905934489796
1,04460098588025
1,00432188707493
1,03078686196427
0,973106913965983
0,996639289199697
1,00504089002394
1,02203036001191
0,995850080392425
1,05064024946977
0,995627748727747
1,01711553117316
1,02177738704922
1,05154783734077
1,01854423138415
1,02092638153228
0,965956713963192
1,10384993272654
1,03352815300721
1,08251464182794
1,00130164562467
1,09178356844017
1,0061740429973
1,0529646339308
1,02972272320964
1,10577670993147
1,09535376989839
1,08287746068575
1,04058816749037
1,06981513777077
1,04030010716876
1,14572433400588
1,0163642817242
1,01526790998548
1,04822321350857
1,18787961370691
1,08253302772327
1,10552213804198
1,0095086496599
1,0753364451499
1,08236939548415
1,07516702076502
1,05844439430164
1,10095427167034
0,991625342262021
1,099580607224
1,10002389810417
1,13420843827943
1,08046721225991
1,03240947093358
1,06359473271783
1,13029932321825
1,03317151860764
1,08619908385726
1,06164404383695
1,04030650255788
1,00931495931994
1,11969504086638
1,10529435898931
1,12375253351206
1,0407063965517
1,08635180447593
1,09226013117573
1,11148127840808
1,07352908672064
1,15858307893127
1,10529584708391
1,05305878831154
1,08483714276043
1,14420971483
1,03275206205206
1,10816434007357
1,09279839190246
1,10785968685431
1,08669877813755
1,12892790922296
1,07385435837879
1,09930533074585
1,0889250996007
1,0910874312804
1,04953080091168
1,11429346690486
1,07335474832544
1,06876672892273
1,02972278353404
1,05136607799086
1,04450079619388
1,08834370960457
1,0577243336941
1,1022866909348
1,04859155136107
1,06130740333347
1,048889101817
1,06910170770663
1,03375821650227
1,13616784684285
1,09191862636199
1,08593059363979
1,05953555927363
1,07738160748878
1,07162203173857
1,07264652524124
1,07947193823588
1,0837598396983
1,06938903037581
1,08913815706838
1,08056933318748
1,0582628074248
1,07413214623264
1,12398205759383
1,02216390532
1,05939786383889
1,10039642390217
1,13253853160148
1,03450198466109
1,07736852123154
1,06753144152846
1,08644183931663
1,02045056193196
1,02179426358007
1,00869848989256
1,04335376014013
1,07061149422247
1,08583549099468
1,02419185304964
1,08411930808535
1,01879775955531
1,03901892145635
1,0576892167796
1,03721724458551
1,07002453059602
1,06786900848248
1,0285516045929
1,05881796505386
1,03028591607126
1,00292774748736
1,00233380546801
1,03377826163361
1,03944322096348
1,04812985182771
1,04114450710477
1,06553192465681
1,00922682578547
1,00432675972597
0,996028441626292
1,02983667044714
1,02587039054022
1,01282943669786
0,999515975809165
1,01977578594452
1,02988565532783
1,03327400153859
1,00994505195244
1,04125000144345
0,971719668872201
1,01494263449435
0,994362881283461
1,00349251884818
1,03096409084704
1,02323813621449
0,978626395109283
0,997996749399785
0,985191895319693
1,0102861522104
1,00466175524981
1,00662560693343
0,955205973389463
0,975480705839832
0,978250570666072
0,956867061967874
0,956256355311432
0,964332789132911
0,962557605207454
0,973079024217958
0,944300872851645
0,99192655413103
0,957885073426038
0,959041015438278
0,945556651626978
0,959122430102911
0,962134229856368
0,966500563274786
0,956596104918317
0,918724507578217
0,915739709637688
0,939213568813323
0,894696881593145
0,935662735055892
0,9230633955973
0,924921613571861
0,916484975053224
0,925297434454849
0,925641839590045
0,903520606912098
0,907350681078692
0,90628939781229
0,902382315872424
0,926343513553482
0,890890166144611
0,909509195535527
0,884552120337604
0,887570200991948
0,904263622988673
0,896881392580676
0,859192518224301
0,885297578345525
0,875613618534293
0,886134311919638
0,863677358302407
0,867008544873826
0,850738240402914
0,862834756103105
0,855097060187665
0,846729816637034
0,844844426899485
0,84110380023949
0,820173849742428
0,837106506930769
0,823933300373722
0,821369779219004
0,816049231077671
0,837441621525526
0,806028327561601
0,804817791714223
0,837983806058427
0,814964461955344
0,782208497997776
0,801014820186069
0,775901808558949
0,784321494651222
0,780784047772359
0,795966533521309
0,792529709919361
0,799757691380679
0,792840324039938
0,786712064013999
0,756544010058677
0,771057062548503
0,768987260065603
0,760472239262377
0,758191137980946
0,762452087057328
0,753587314278341
0,75304943645216
0,733953222424642
0,741838239078519
0,723157884849714
0,72157757669965
0,732974650002037
0,734220152314553
0,723666402312442
0,730687258632302
0,725562795731264
0,71068723219079
0,702076639298561
0,715023114876012
0,708098315262593
0,71404310358476
0,71748838644126
0,700971648521407
0,684650332835031
0,693504394203901
0,681095502778834
0,67375048971889
0,674630421259561
0,67174145788442
0,665638034752059
0,675288283271011
0,664441117594712
0,659479819700322
0,650736651429495
0,66682126895561
0,666310145197731
0,654518369034341
0,639843000493133
0,646132456749916
0,624291126408153
0,626114522025587
0,637267636606566
0,620227732366681
0,616424092972225
0,632886440602789
0,619012820363493
0,615289047264317
0,617556892018944
0,609121026984829
0,603218917739325
0,609501627497576
0,608941520155891
0,607405035247224
0,592997049139125
0,598975727722313
0,591446147057703
0,574875186453348
0,576883365494423
0,58857771895742
0,575772430534908
0,572162118447734
0,569929906773664
0,577011034758814
0,561986337049764
0,554663988606456
0,553955330267407
0,560978013262823
0,550152086708277
0,538844285671436
0,545317477416023
0,551666062434579
0,543157034093262
0,533368309135229
0,527249322475994
0,546804087996185
0,531973217548509
0,519066693381764
0,533814024406535
0,54146991378948
0,526849645030504
0,514146063429904
0,510814440811098
0,509711944384074
0,513892682741174
0,513671271566924
0,500489775394408
0,503980870083127
0,487869106562486
0,489701333625577
0,495104864029639
0,498880244423367
0,487187884139281
0,487509461372251
0,480646232619771
0,47762356304275
0,481804803287142
0,485532724789833
0,472137242712343
0,468816751557812
0,463053133819125
0,461872847172935
0,455515958288807
0,454300688676846
0,463699748212044
0,467967448725878
0,45499039143538
0,458650313931979
0,452830232582285
0,449917923797707
0,449451225006721
0,446453366546726
0,44111510966862
0,44034530394195
0,435552517455425
0,440219699089183
0,430935827647944
0,430261354024809
0,427899677775074
0,425973661396732
0,426932242635061
0,424599680467193
0,419170972688585
0,421988659002093
0,415139672393093
0,406600856437976
0,406855851247272
0,413480271932841
0,406079168041998
0,404529485710116
0,402581935091612
0,395700207243126
0,398973841254983
0,404510562522299
0,392379443743452
0,392916280421713
0,385016855425401
0,384042183929512
0,383856858944382
0,382879021914402
0,385842148809567
0,389574536327532
0,383133221024487
0,373014681975657
0,375079332638389
0,383607503552661
0,375231355967841
0,369758439428684
0,372214069636366
0,375645418756498
0,370641391305451
0,37059416295302
0,363854033113388
0,365490050743114
0,358870416645584
0,359166184520103
0,350792016084268
0,357288413125999
0,356644754832265
0,352446694051266
0,34977768262547
0,355471294367937
0,349294269651043
0,353201329714363
0,351466860374334
0,3476305221511
0,34662891392518
0,349850803956363
0,348399354461937
0,347276748081061
0,346206824890213
0,347439108469177
0,341227800673549
0,333300808038671
0,335091723103516
0,335242217432792
0,34227989001116
0,337303056721773
0,335021013355728
0,339527156371396
0,339731911565742
0,33144167476841
0,334810325633911
0,33841688615351
0,341447247791599
0,338027484170477
0,33909529336994
0,336819772208285
0,331904470228303
0,336855128307137
0,337634395811209
0,339673786530293
0,335084871055629
0,330601574355414
0,335731046312783
0,339839730982104
0,337215896028671
0,3466326525749
0,348954520393922
0,350517936857729
0,341032791151429
0,340954575653108
0,344241287745684
0,344714006301024
0,355424227080057
0,359872162177816
0,358339885903931
0,350332431045472
0,353100485343801
0,360511450546509
0,359288230926145
0,360338711031654
0,361564946888311
0,363335799803535
0,361153258324599
0,366379135763231
0,37201975404715
0,373748327317241
0,364508959858635
0,374372228349303
0,380214452433908
0,380790679319121
0,378995134019954
0,383048607819955
0,386159418098419
0,383143976220537
0,395108990970437
0,390413701895707
0,391237794179284
0,391540798672094
0,400324396041163
0,402698107866367
0,405440336775903
0,407198813695335
0,408631583535681
0,42360131164241
0,425521719535252
0,42388737180794
0,42607461028347
0,427052166470428
0,42938397183179
0,430979446387395
0,438073281925722
0,43477126533811
0,446405225145393
0,445015321266786
0,442248643428919
0,434623665846585
0,438550362171725
0,451998763152603
0,44760356874601
0,448428334045019
0,453226225929288
0,443665191289355
0,449537213371287
0,445544724081271
0,451552177330229
0,455964448170294
0,444582602448636
0,450618290185084
0,450339195421673
0,453760909241616
0,4603969136064
0,437637347822724
0,442394009722026
0,449344607839599
0,445726318504903
0,445858963916455
0,454640931168695
0,450630211510001
0,440177301934662
0,442922024570657
0,447307400320914
0,43605963515291
0,44845353785599
0,443926986738977
0,445340880250173
0,449111172794267
0,445885810663526
0,446392360674605
0,447702027120066
0,444268280150502
0,447084209625351
0,443265405614979
0,447146447418445
0,446734378780485
0,447095321525989
0,440990919647919
0,451762340703124
0,441582132328352
0,44860136310304
0,45281998517275
0,446356526270787
0,449020916450337
0,449999331394222
0,448755988151789
0,452900400969438
0,44465438999499
0,44440152867539
0,445244597683832
0,452448519057218
0,44257840966724
0,443946800734305
0,441728191514015
0,446984983302108
0,444279012417942
0,438786437996351
0,435742942008888
0,438738463463723
0,439831014001261
0,433630898851551
0,419720781893806
0,426971816862061
0,422423116366973
0,422281604491936
0,416169577684008
0,421585666046991
0,417914687790381
0,414898672244793
0,410473915073827
0,408292259740733
0,407817337022789
0,395111619550564
0,398107760463994
0,39896616574231
0,396228599400084
0,392688113182637
0,395232716387139
0,385887157508467
0,381144778661917
0,384447122890738
0,382044641107529
0,376892495490287
0,373714334581708
0,373101915568121
0,364027729000127
0,366795555833885
0,362964127992261
0,359907509824355
0,35152903789367
0,355006007294018
0,352477143517741
0,350505479088258
0,34854961730958
0,345472260276869
0,342173754813059
0,347613445523596
0,333576864534242
0,336795138407365
0,335719431569074
0,3280628663875
0,333180853830735
0,329827257107158
0,328112660383842
0,33004381329591
0,329019297473702
0,323673725113785
0,321697668464315
0,321150052235056
0,319839989548225
0,318064176844118
0,318718965955986
0,315796765788705
0,309179026590028
0,307746585361444
0,304490606412254
0,308666726701432
0,312425529482113
0,308962603532775
0,309581906883268
0,311711608737148
0,307559094228791
0,302547966035537
0,294174621155729
0,306669612375781
0,297115874895659
0,297133121193807
0,295922813636332
0,297370984615782
0,294868875315132
0,297507248692607
0,290060463859064
0,28665564617774
0,290459993677662
0,289642932292332
0,282162562484343
0,286296661502858
0,281185054345873
0,283595772352042
0,284084253067663
0,286268314392407
0,280621311875215
0,281254118207512
0,279453228172481
0,282964792896133
0,281433005726574
0,274530158835481
0,276460305350847
0,277869028990143
0,277794259225418
0,273939972549834
0,275192344426163
0,2710529780483
0,269212854294929
0,273759169103184
0,26783636045145
0,269389987572739
0,266188252331045
0,271549720801657
0,26837060647076
0,270184310916075
0,262199338470025
0,268148063829218
0,264400575368152
0,265317365598809
0,262758740071722
0,26189994035568
0,259043882012387
0,261735753716937
0,261036370063368
0,264449992230244
0,258030424536436
0,263888685871362
0,254835236146762
0,258343576643801
0,259313635845007
0,25731241811609
0,252992672583946
0,256453558869423
0,252986944872519
0,253052595247464
0,25088965688595
0,247800920404103
0,25003019811813
0,253472634874512
0,251349792028799
0,254172099527191
0,246165370806303
0,252329347112066
0,247401635511523
0,244603969285702
0,244794435897852
0,24304812416205
0,249239566498215
0,244813559386318
0,243031550889589
0,244645767092962
0,24552396994644
0,247287469775401
0,245352096228857
0,247285262892698
0,244113899576272
0,243660909960824
0,243626007832095
0,243062627597255
0,238787992000404
0,240332537623644
0,239938717152213
0,241007864173505
0,237260416081838
0,239204059107706
0,245074300275234
0,241943177404461
0,235620290624801
0,239594193046787
0,237869576304499
0,244212233559434
0,241096393770923
0,235296442430001
0,240325023447072
0,23936531090333
0,236840685979347
0,235197466304398
0,236507382081489
0,237328148545957
0,236836331601113
0,234134672079932
0,232411306947962
0,230827381601837
0,230981634541946
0,231504774712825
0,23220060990289
0,23434338988268
0,235067620971142
0,22947212781971
0,228578855412262
0,229456163756208
0,232929799605854
0,225307640106679
0,232977515768717
0,226464469042632
0,226353238245089
0,225605473265781
0,226671978781135
0,226125593893801
0,224081715853395
0,2239657669188
0,224040240391205
0,223246329163007
0,220131759830418
0,221306309204463
0,218841098528256
0,222559384934597
0,218045454510653
0,221671434522363
0,218833706564618
0,222354786881403
0,218683136501257
0,221259989634776
0,21595456333885
0,215873977501685
0,216347570851976
0,217766321077973
0,216848280880921
0,212760798951816
0,213590814936637
0,216830038090547
0,21372911220326
0,213676778854976
0,209874405947409
0,216152671780863
0,21271012151673
0,213739030926982
0,212489012034049
0,210310923834108
0,207351644033471
0,209144490107745
0,204200023924235
0,208017405979922
0,206224241909233
0,209203374582973
0,206338896202081
0,201317462202606
0,203705118214215
0,204785189322964
0,19954424914759
0,204904740541258
0,198142772329848
0,198177751882434
0,198162670703044
0,199138135630708
0,199138245077233
0,196682927188453
0,197174916609602
0,199804787557068
0,191458385291052
0,194861449021627
0,189145536485254
0,193009647993085
0,19267389915397
0,194984123891518
0,188726483500621
0,186868599248788
0,188915130447271
0,189195489470603
0,187089360396082
0,188767137737229
0,185577571241064
0,184298774248599
0,186004127559456
0,184095020898367
0,183196824503596
0,179612210867029
0,179755794104316
0,181608174200241
0,184297175976045
0,184012537509938
0,176949724750917
0,181197023930354
0,181245504379912
0,177906323307467
0,175330409653626
0,173517609155409
0,175245026706001
0,17754706951065
0,176615421681446
0,168556498554685
0,16836804535011
0,175886496953723
0,168854899852408
0,166826947837325
0,16984574524035
0,169764363903484
0,169816689748018
0,168988711221051
0,16750239037864
0,169865343752049
0,168737636451597
0,166395122056604
0,166564981635006
0,168929620299991
0,166057044699919
0,167770131042948
0,16540146165933
0,164785466597647
0,16297493299389
0,160488327689546
0,163138664108251
0,160008437338665
0,158700790899832
0,159416275929302
0,160102739759189
0,159096842727375
0,155917206708767
0,160404262412242
0,157181039757504
0,159732593556393
0,15425385888503
0,150162212334444
0,153130692080046
0,157408701018718
0,151352629828749
0,155248980863984
0,154728545943196
0,153912179866112
0,15268127919892
0,154141907245078
0,154989119398096
0,150541713950457
0,151137027789878
0,150327060828935
0,15097767114042
0,148882008829147
0,149409444076893
0,147007851516289
0,14613884576868
0,149378240998101
0,147334294462159
0,150207139257143
0,147677979724451
0,145179593980659
0,148491506718517
0,143272205026971
0,144981655023389
0,144443973590909
0,144223935246195
0,143073565181908
0,143150770369046
0,143500945184568
0,140510365333887
0,14177293502701
0,140294343894371
0,144090906822678
0,143248169513769
0,14277776456712
0,144022257953809
0,142429049264992
0,138781470362784
0,142536757045286
0,13756227329398
0,142091549215562
0,14004215930097
0,141524295500119
0,138810512341912
0,144012186927446
0,139668388768902
0,137293607851221
0,137681580275764
0,141234741538043
0,139790328651704
0,135914090646866
0,135131016044393
0,135973996452556
0,137679016224462
0,134146322031536
0,13505630371671
0,135376240868435
0,136886822127975
0,136879719440299
0,132827613484906
0,134055405505254
0,129586990435036
0,136562824321979
0,133961975957586
0,132694158596789
0,133219240874287
0,13306502755429
0,131061482070162
0,131538114662554
0,128691044031597
0,129695223827498
0,129581674529862
0,128486370114569
0,128022175506986
0,129923884181083
0,127105716721869
0,127940027343574
0,129912660562523
0,129942239689615
0,126022184104094
0,127170155459525
0,125871102003991
0,131213535316221
0,127213683881208
0,124371976698016
0,125818870133682
0,125599782244048
0,123709077662445
0,12686418679284
0,124679958982206
0,126708458018885
0,122116934923183
0,12641169636418
0,125297160892872
0,125210265543196
0,123191898512957
0,124024167151489
0,12477500644822
0,125889621565974
0,121876059972185
0,123803820219908
0,120757786505005
0,120851174732038
0,124070265187864
0,123530470343427
0,12245461686426
0,121514250262061
0,118930567247733
0,121106354506609
0,120602433674725
0,117806069465748
0,118214804201115
0,118282913804368
0,117199362819968
0,121050811024611
0,118725584089297
0,119272514364067
0,118808304894103
0,116660111513011
0,11513989025037
0,116700338117179
0,11497717095926
0,112573017665188
0,112835896992546
0,115338785363333
0,111878280014628
0,116596456283212
0,114704370501657
0,114701892896799
0,109946251936395
0,108748091717433
0,109160265695909
0,109441882427429
0,107201193360387
0,109918428551516
0,108365886990141
0,108699747816115
0,107186623767402
0,107357896254231
0,107361471072692
0,10890402971928
0,106232384321303
0,107231060469088
0,103577190012034
0,107097038296665
0,102043258554783
0,106501992944164
0,10564219134562
0,104160582662884
0,105674084788497
0,105715720553614
0,103500320433304
0,103576037118091
0,101498984443388
0,100761262198276
0,102137692121388
0,100703976722652
0,10059339248746
0,102203844514048
0,099603360119854
0,10109215287498
0,098413547034286
0,101769508445589
0,0992450718541423
0,0969509392232834
0,0979361765173657
0,0981474097690613
0,0969201664393144
0,097557974358327
0,0959468349920175
0,0934308337746046
0,0984701167595147
0,0974922766940562
0,0924477190596485
0,0932458069877036
0,0912714392596067
0,0935693787655807
0,0942283532829373
0,093604631135569
0,0912301144960785
0,0924071294200769
0,0908386906473796
0,0909884874840812
0,0897882072927547
0,0885597005844561
0,0886626822789328
0,090351901688661
0,089439990897911
0,0909378619264232
0,0909377982922281
0,0891764534594099
0,0853340078666237
0,0880564325340494
0,0875656528863694
0,0868382476987385
0,0840274840955527
0,0829634943284206
0,084990601781795
0,0848576718185972
0,0840839883098546
0,0843526455081265
0,0838099689988659
0,0850468195903845
0,0841431180871155
0,0849380585522964
0,0843039724917873
0,0834002568067432
0,0829404817823574
0,0794274010317211
0,0783824133012091
0,0828967249733844
0,0790464376032501
0,083085088128285
0,0791335399933197
0,0772618683397262
0,0803253736269146
0,0818232446970555
0,0801887192114303
0,0829161960180668
0,0803407615510049
0,0798507439104302
0,0797953807231232
0,0814153799187492
0,0796209067160113
0,0782130886718624
0,0783470740887396
0,0806730080419849
0,0787003027624647
0,0777649230264779
0,0800325081566421
0,0771857897481174
0,0757893994285679
0,0750504233858866
0,0768211908319933
0,0795299691515023
0,0794280735506392
0,0771989106337792
0,0772500085977337
0,0767892119184903
0,0749725271702532
0,0804714599578413
0,0786943170655105
0,0732559048513459
0,0750472426496441
0,0757706052018183
0,0776894687028048
0,0773358048812973
0,0717367897476738
0,075734069369376
0,080564008198929
0,0748672837103357
0,0733157544475078
0,0792559096428141
0,0751726779274517
0,07579777310201
0,0730484290562664
0,076721965419548
0,0790373179782059
0,0764311135224123
0,0797893757723645
0,0715973995023646
0,0751060178141233
0,0715134564204062
0,0741359455625079
0,0645258090752741
0,0697575936325962
0,066317612581665
0,0700017286953009
0,0665632577441311
0,0731784786550668
0,0653374557432458
0,0786065632273462
0,0626213831597526
0,0770451447518942
0,0616070269841598
0,0814666705689684
0,064324704203276
0,0831154102751774
0,0628467439921556
0,0818023934866938
0,0550084383720405
0,0827226503779462
0,054245358255325
0,0862367415647505
0,0544085308652235
0,087999678573623
0,0509699358332199
0,0852923042433408
0,0508041374451672
0,0913731371380766
0,0533747950829454
0,0844457699108142
0,051631490912636
0,0912685501198068
0,0592903025014844
0,0733320327229876
0,0644725038939055
0,0736310600430674
0,0677452355909918
0,0620865975714944
0,0751243680602833
0,0558212995136814
0,079934044716513
0,0560751621475305
0,0808167816939503
0,0572419468493289
0,079689453222045
0,0619009680860954
0,0711810793331397
0,0638067232592019
0,0679871160228594
0,0663820339657746
0,0655035760775758
0,0697808742065377
0,0661995937322981
0,0620937136678768
0,0672739938780624
0,0622325599471535
0,0703195707134882
0,0630854464801051
0,067807816783769
0,0624484559476902
0,0683795109110372
0,0639750671153234
0,0646436750257066
0,0626584930763983
0,0659163077053883
0,0626267110077593
0,0648335348935568
0,0627743385903427
0,067939867426193
0,0645377991212004
0,0658635477346959
0,0634643091036432
0,0677973639663206
0,0624572744374918
0,0646835141410007
0,0639908918010089
0,0649717536208102
0,0616295119485861
0,0644188858899233
0,0626555103059648
0,0649458598645572
0,0624272261538062
0,0664060476479242
0,0627547989548089
0,0674351487208278
0,0617542294890262
0,0668546338448466
0,0642567327974856
0,0638095608947242
0,0629754923490374
0,0657414326902633
0,0637983060293327
0,0669442055252475
0,0632921146884579
0,0657899522499138
0,0631985497851587
0,0628900704081157
0,0609434783932119
0,0650231137712582
0,0630973789294475
0,065087690181904
0,0617131764936206
0,0672484108014416
0,064650367352737
0,0684567747168432
0,0635998505536888
0,0642168724367141
0,0628417855130004
0,0670921733231942
0,0623502580694556
0,0662638271943711
0,0626385595776939
0,0656435019549804
0,0614558417363288
0,0668844116967978
0,0625562529142152
0,065455163830533
0,0644335663560988
0,0637453058019794
0,0631766898001926
0,0644821146734534
0,0628627191856374
0,0648161023454618
0,065007169895179
0,0657999189719075
0,0640229840624901
0,0669075812632184
0,0631682325866401
0,0648732836046333
0,0633388060019148
0,066841607003899
0,0656824371704394
0,0632090927706596
0,0616263388239531
0,0657145202483564
0,0609188688913192
0,0652370037228702
0,0640281873256829
0,0653522707638279
0,0645063727644785
0,0682763771619148
0,0642885852261705
0,0655172182784936
0,0645586029153948
0,0656241839620455
0,0614687975180521
0,0657510572497696
0,0658245682128383
0,0674087095520209
0,0649395245179532
0,0656911248998572
0,0642702898279399
0,0685719125593635
0,0636836013868227
0,0672469149620892
0,0630927692559125
0,0682874949982385
0,0659127601569991
0,0673519004071771
0,0651740212615055
0,0671249821475764
0,066331500265956
0,0658068129818531
0,0668251817719168
0,0667709485552347
0,0665407372848654
0,0688205373591155
0,0653046133068068
0,0665630682576251
0,0661961795895736
0,0687253990524094
0,0657410440271884
0,0673527684942922
0,0661941566042121
0,0668017917456511
0,0652701493161779
0,0665799944009409
0,0663476485323745
0,0691024797250132
0,0664009336186116
0,0691480114018214
0,0670746314097635
0,0686613019530948
0,0690931778848058
0,0692535316794755
0,0668372084651636
0,0674008867029137
0,0651364401843424
0,0703519449589861
0,0680176509082032
0,0696613655341922
0,0674907416257261
0,0689972158973094
0,0671032536625692
0,0717752910948623
0,0681242379988096
0,0687116638106135
0,0687738478778071
0,0693842466242489
0,0666368328400819
0,0684737788945493
0,0691688112992875
0,0688607527258507
0,067443902770057
0,0702882882219577
0,0684508685454729
0,0718146281701629
0,0685419601621097
0,06945481042777
0,0694512502483005
0,0714206573418439
0,067978023176829
0,0698179466437512
0,0680489563102709
0,0696435879684837
0,0688228327683807
0,071135607348002
0,0668756971872476
0,070773324328467
0,0683803434179466
0,0703504952152538
0,071204864963179
0,0710213109820911
0,0693641149857195
0,069247542411545
0,0658604976651334
0,0702148651177714
0,0687608145804771
0,0682521841635649
0,0663991469426107
0,0671185381107468
0,0660929124745955
0,0687433777499055
0,0655996079121228
0,0693622105957871
0,0662253398657276
0,06611890541634
0,0680138228664645
0,0689144724517759
0,0647799188528134
0,0676795997791417
0,0663502538603418
0,0672552564153386
0,0651698052370367
0,0699617851508175
0,0682893982864631
0,0670500614926329
0,067282970608107
0,0677408818710156
0,0643838024917501
0,0673152254117393
0,0638351847200662
0,0668163857231494
0,0635439701342889
0,0648024826207463
0,0641108692497874
0,0668163295084396
0,0657196829550626
0,0652783050899524
0,0648088359755405
0,0664160635816473
0,0664136462613117
0,065529143686017
0,0644544848984919
0,0684841571823223
0,0649664418777791
0,0650945572725315
0,060991661469262
0,0646315654314455
0,0637592847955432
0,0641344507147022
0,062986980359347
0,0633825710384135
0,065352978078668
0,0646291726429296
0,0612200547725709
0,062928342339724
0,0652616034445712
0,064365024842247
0,0612649231560402
0,0635235652040304
0,0602004337938433
0,0639314822186906
0,0658405953265205
0,0633173858142219
0,0601079200084008
0,0651966911497528
0,06187003160884
0,0640673654972089
0,0633975676785519
0,0644299360628549
0,0616176807896216
0,0627770929327487
0,0624989553735396
0,0625852504615465
0,0618913571233203
0,0672861102801522
0,0612120179186991
0,0635489565706886
0,0634402711033821
0,0638583423209488
0,0635447277295278
0,0639191113278271
0,0617303867122417
0,062684924243309
0,059678399594225
0,0641474146364023
0,0617525027287971
0,060511113147425
0,061745262722031
0,0621173138587154
0,0606986078340517
0,061083148536162
0,0586270573714503
0,0627562685997465
0,061362878447949
0,0627316544189843
0,0606817494541414
0,0614559516365866
0,0614523362745774
0,0609175639013166
0,0603262071895662
0,0609563328266582
0,0602063385933205
0,0635626885102756
0,0616672274242755
0,0606844302381219
0,0595955108069621
0,0611743142459154
0,0585121893795458
0,0612452740823047
0,058420243392703
0,0612139210396292
0,0587245709507203
0,0593268698667536
0,0564911104493381
0,0582682400411339
0,0565821578288664
0,0573028813484255
0,0551682587183013
0,0576406184652462
0,0575517149631398
0,0583192024464331
0,056076237453221
0,060070440955911
0,056193860874027
0,0560729566774074
0,0550847154069385
0,0580936742033379
0,0563531632450276
0,0561042662220924
0,0544551946751276
0,0577129394364476
0,056932481784425
0,0591470048054784
0,0505717956470077
0,0570593344314015
0,0512660733524032
0,0563029897534387
0,0553050681197725
0,0555606947263
0,0543274670536086
0,0523604638978638
0,0531791432309035
0,0556866831094609
0,0533954548856029
0,0520837143238165
0,052393206666071
0,0539691353911423
0,0517038302282839
0,0518507671900901
0,0527969792787846
0,0515981184937523
0,0519161864871214
0,0517787647571894
0,0496928149029739
0,0508578244159574
0,0499624138319181
0,0528131588517676
0,0504542343149906
0,0498891090765152
0,0502410759315492
0,0517871410010899
0,050052527727253
0,0430742907574769
0,0583710483435129
0,0494870238038022
0,0475383856646926
0,0498923447865253
0,0514839051387572
0,0499667850252258
0,0516669492373222
0,0489179862066091
0,0485706423153076
0,0484600970437271
0,0488950493187884
0,0484458721364087
0,04883867763182
0,0492907429122864
0,0483102866904631
0,050796667901199
0,0502605541139401
0,0516492050867572
0,0484728638188669
0,0488513822279891
0,0503412929571706
0,0491603543068258
0,047009270272878
0,0471691777067462
0,0487399156415314
0,0441084791159234
0,0465818139667001
0,0511557665703485
0,0484786891735114
0,0488556520809517
0,0460747144880977
0,0474220260174996
0,0457083196364114
0,0487958747864568
0,0461449113928885
0,0467921466616619
0,0458241199293042
0,0477140878193265
0,0435383932053251
0,0472272950687483
0,0476064807498895
0,0462752241580834
0,045222576337019
0,0471480228505137
0,0480568485810433
0,0489034291078788
0,044546500716657
0,0474763494663818
0,0433723329488038
0,046162653489314
0,0427420224532152
0,0487509071796261
0,038080627101225
0,0587082169822665
0,0472847970280575
0,0503805137424268
0,0449485258959393
0,046453757997786
0,0454358011195467
0,0471554398355169
0,0437632007722469
0,0452129408257378
0,0423472549502186
0,0435332248825812
0,0429693087592636
0,0462364533084519
0,0430805140621868
0,0449700998498769
0,0450424956432558
0,046209021413305
0,0436769928760907
0,0455521807916001
0,0418736338267553
0,039484061975335
0,0468737252157864
0,0527097707452871
0,0403171266027459
0,048236517328148
0,0342739741168933
0,0479154268679425
0,0544714164350119
0,0403406201041945
0,048079900972741
0,0401671715573913
0,0458463129024112
0,0417283038282801
0,048563667620492
0,0387534237292551
0,0484639651300552
0,0406759909212892
0,0474333697273197
0,0455824435999679
0,0435340972615918
0,0434483715025889
0,0417843832380548
0,0441878346189274
0,0453260381308824
0,0453288726581324
0,0461003518993201
0,0446826246739971
0,043099970107695
0,0412291350247
0,0432350777391864
0,0415752155711277
0,0505933558847409
0,041572336078595
0,0452633098703804
0,0417450823998368
0,0446176877130251
0,0369481046674995
0,055937990894992
0,0461349736110064
0,0440647824946265
0,0433304201146293
0,0413167484037115
0,0448176155021218
0,0435221248672362
0,0445391870748795
0,0433874257475337
0,0453156191387187
0,0426142644418897
0,0443847696181954
0,0429527578239924
0,0433779831129376
0,0408861783018599
0,0438819391159761
0,0438352132603144
0,047586195115855
0,0423533903361108
0,0455155287680569
0,0391533171633278
0,0405180650043579
0,0546632868794991
0,0438024059092782
0,0492318784784024
0,0439560451447615
0,0484554746000968
0,0409246515861127
0,0458509233230503
0,0410780748362668
0,0449512055529552
0,0411666386052298
0,042952807039935
0,0435011695722849
0,0457977627694452
0,0409182990947489
0,045691164926494
0,0421434497321113
0,046404832716399
0,042106384490867
0,0438042957561857
0,0435016359043819
0,0449670400111366
0,0421723003348083
0,0423396322682898
0,0469708398292164
0,0415937080629426
0,0397954884259999
0,0284767396562051
0,0684902159935213
0,0412874703206964
0,0520727091785777
0,0421582721401191
0,0442517914124834
0,0452665907717679
0,044235643883297
0,0458421598278581
0,0477061975459411
0,0418832602478853
0,0479588438617327
0,0452151308569367
0,0482333668639179
0,0399972893825253
0,0370985284926221
0,0566214530539913
0,0586291080550007
0,0434775384579583
0,0493391976501998
0,0287560829387201
0,0625765959976947
0,0522064715937545
0,0423152902852638
0,0472743426392134
0,0427228272989086
0,0461512118473225
0,0447744192334853
0,0475012659733351
0,0460249961247433
0,0491689268062765
0,0443557783680901
0,0470435626369601
0,0456422685013466
0,0466089749473323
0,0491670883983144
0,0444603400864376
0,0535047060724463
0,0477902864787285
0,0446834255748382
0,0506073369248563
0,044212518184394
0,0482440140274766
0,0469506889274786
0,0471314726608274
0,0448883263408199
0,0523649879715133
0,0484502297837052
0,0485058536574824
0,0546851875745227
0,0491925562468284
0,0494465567666146
0,0572884194758797
0,0505415523780749
0,0500759557156529
0,0242634302870463
0,0701256200096806
0,0457419584230376
0,063660596031496
0,051521409628183
0,0489025273333981
0,0514689301868618
0,0502069169209897
0,0442909404533973
0,0518742796074792
0,0625875910821169
0,0447635384318998
0,0592083038517281
0,0363605199117648
0,0672331554334435
0,0522725902639172
0,0598565008559603
0,0533522045553443
0,0527423493986517
0,0508874908915401
0,0634658753765706
0,034124549685648
0,0572301997208601
0,065194303961153
0,0627458112175879
0,0667089121992093
0,0468109901318188
0,0630669424945423
0,0700459541874454
0,050414651576085
0,0627232872383312
0,0522883052875334
0,0584820241284494
0,0417667844677586
0,0736594676299717
0,0685566015355421
0,055892214098589
0,0604947783562363
0,0560739060223576
0,0613821797335158
0,0755095468641288
0,0580266830850252
0,0639805775865237
0,0580156915216397
0,0565368322720163
0,0427434545458985
0,092143352379516
0,0402609534721532
0,0870105973104492
0,0618545021094375
0,077499506068741
0,0670458722374736
0,0716440712005586
0,0576733325225839
0,0808106132456059
0,0723139709317915
0,0675075206182985
0,052811226362558
0,0941814442728801
0,0744696502436164
0,0756956393737552
0,0782781213108207
0,0609633309272486
0,0676137669216538
0,104512781747362
0,0908331201127555
0,0901976853037946
0,0771014016943546
0,087577331869188
0,0945728098851921
0,0785963148683028
0,0880880795771197
0,0856610411575198
0,0893029249637772
0,0870495450597014
0,0898882356868444
0,0964093429276022
0,0873271821089107
0,0982161104836258
0,0802836038327547
0,0945813403652974
0,10625852894734
0,12127284196424
0,105029270337005
0,0953116675121128
0,117306982063447
0,102460615465972
0,10828625894707
0,102963189109647
0,105314126830847
0,114045427754922
0,110326323733829
0,107044245351899
0,102196581780758
0,125628808712698
0,107280779697065
0,134105066983194
0,122069759880583
0,113805583669484
0,093273601141787
0,133098136627825
0,167138757588426
0,119611401390199
0,142007096556513
0,101697774767151
0,170781653446285
0,153804065414743
0,14353304589
0,150110177355701
0,153012482245261
0,15043610590772
0,164434670956382
0,161656384448097
0,171305206104064
0,17423802773665
0,162932302111879
0,141507657180149
0,221155531410308
0,208246692313056
0,204848462734526
0,189855158317955
0,201815792079802
0,21346666477256
0,213277427782914
0,206945818044901
0,222408105320727
0,185074120651632
0,259395439955839
0,23652585522365
0,234889188636015
0,241567827783827
0,245953574570801
0,256528300541805
0,236835577472324
0,295310315541125
0,261454221039746
0,276830220158433
0,269039946984926
0,281003538421937
0,274676750342856
0,285662744006921
0,307790378893562
0,293472978075994
0,298673619561558
0,299704855754963
0,304980804936005
0,307753513465748
0,313387351971937
0,308194017656163
0,295559621875212
0,338211344485854
0,32896328413264
0,362471734637704
0,324229124471108
0,329436545222773
0,314539373477584
0,326969958174307
0,341440259841176
0,32981924660008
0,349530535492465
0,331572356992935
0,334394261329282
0,328573550257724
0,339630977917039
0,3371572724324
0,336893922377144
0,341007907502377
0,331854108324214
0,347991360704659
0,293572922894924
0,395340700497956
0,350281033994296
0,337160807623997
0,333253436248443
0,337934172526187
0,338969256480674
0,335030873648582
0,324500153213586
0,349279541860932
0,330905261995534
0,322975971458869
0,326986850209941
0,316974117844882
0,352982214399307
0,326363818120031
0,320575835834172
0,32474253059039
0,317127825863005
0,318784982755234
0,295830537732328
0,348045732756818
0,328139317155163
0,306568256119661
0,310113269589847
0,30354798677961
0,306739163657819
0,305216312131373
0,310462663984732
0,303392302772339
0,306868908282395
0,305809403854401
0,305975144500071
0,295452858583461
0,303367893065217
0,296625398423143
0,303380290116288
0,293261789486132
0,306810622172921
0,292952682722357
0,300114433290754
0,298999858014412
0,294548131027147
0,29503855910822
0,299329961722365
0,29664404137656
0,301042315370874
0,293174588489521
0,292008009851864
0,286180865145488
0,29783729312292
0,288990926402419
0,292818538563717
0,289546220380079
0,28947321210184
0,283135680517476
0,289903793647991
0,282686007959099
0,287534479440408
0,283157184549876
0,283770319937122
0,281665789576128
0,272959840750232
0,268635140818837
0,273806560728884
0,300300903452382
0,269567031338839
0,269319776896745
0,273376968146484
0,2665175373067
0,25766426629227
0,254532879225232
0,284388138833956
0,256959943296894
0,256620533630062
0,249714696863118
0,252167019043838
0,256095432923384
0,247304191515165
0,233124943990546
0,236569636987217
0,185663295443739
0,276166819777979
0,219560630901077
0,30332155686274
0,242949476048375
0,22360396673925
0,207674998066242
0,237067373806645
0,232698131937245
0,211547192408221
0,220672279892564
0,200301756902553
0,231882384185009
0,212735491158144
0,20682437249663
0,202360653501096
0,203243012617467
0,22375731564412
0,207127178205509
0,200297969552582
0,214496005123306
0,208607521330305
0,188090139180403
0,246575719829867
0,209809338814907
0,201854585718675
0,189677269512189
0,193791405676941
0,174815297509957
0,188047038791161
0,204522034877723
0,185925493572375
0,191434105350235
0,179277991154303
0,18296706521333
0,190843312231663
0,175750224062471
0,179917038543336
0,187977527513307
0,189196551270451
0,15816694928963
0,188562444796804
0,171524480816341
0,212183404743036
0,180061440412166
0,172652029098236
0,158221463540264
0,196278562227938
0,186445641735508
0,178522034749268
0,178146012741393
0,170205447424609
0,171267475391511
0,177974180559219
0,156130470930068
0,178959396920651
0,174751124697969
0,164952928326531
0,171469019002668
0,201243658891611
0,183736232917639
0,174272380111273
0,170127781203958
0,17858941228671
0,167443558337391
0,175767044181611
0,168717474474311
0,191676893704249
0,16679134206827
0,186896567260824
0,195959561043826
0,181468588970289
0,184374664727791
0,186580235661409
0,176188802918731
0,198681080134832
0,207763251896105
0,205409322620357
0,194517834332731
0,211077989355895
0,208458595171095
0,204108928253934
0,2126708990117
0,20961388705156
0,214184198458745
0,224274660165739
0,228338056913849
0,233088905227431
0,232074482548111
0,231056561204818
0,238759349985628
0,263892632892096
0,255480820200701
0,239322389576668
0,28047695759297
0,280710263211723
0,291775363161258
0,282468418697953
0,286128078791012
0,292328747128842
0,295279908331711
0,295415338119699
0,290175737833022
0,318256582815602
0,322301520573539
0,307955915300735
0,318400139421333
0,316134466393121
0,319477570090874
0,320046394084344
0,337069617968671
0,328934336381349
0,359562496601052
0,354928775790106
0,346874429353601
0,34220053541516
0,341827199519256
0,349674864514606
0,34661609412541
0,343834003808589
0,347685328593026
0,358070372909624
0,360739232580275
0,353099086414218
0,358520595678489
0,364207954311705
0,359490771181781
0,370386527034289
0,368644715302382
0,371364807196602
0,371714237848389
0,372572431443817
0,366714309814053
0,3990578431782
0,399968983266479
0,385306129653658
0,390961611513168
0,399131920000013
0,398354315815249
0,399876896847311
0,399109060379697
0,416341356705178
0,407213767631303
0,409237014342039
0,415369968551728
0,408258311378365
0,422440759875588
0,425836180667452
0,436660655820583
0,430832384316593
0,423866672299914
0,415767251318653
0,447177516199448
0,45172677769594
0,439262483477903
0,449852202019843
0,440985917539043
0,449528044361628
0,439804132022977
0,451623202551914
0,447922570486802
0,451657040115189
0,447636350603095
0,451572215901177
0,445376416970636
0,450116982600783
0,445682779695082
0,452146208214042
0,453575770866339
0,440057452562255
0,442486339035807
0,445012720994397
0,44160694150249
0,447561225155943
0,459922360606145
0,44681237027745
0,442716732546156
0,43736449037454
0,457381860179478
0,459085292831036
0,445906903444243
0,444723830581786
0,440443661178473
0,448925383751753
0,439806212581662
0,44896130543202
0,454084158114335
0,463458963061959
0,451804029846052
0,465820151828446
0,45376306225878
0,4662465292314
0,459462084893204
0,471407666003972
0,472623531537325
0,477235045529215
0,48084955320507
0,480133083435075
0,469367808658161
0,48199232738679
0,481377231108417
0,48962868640199
0,473568806147322
0,479052534806794
0,476922912463294
0,474373900848898
0,477943287020956
0,473398775269438
0,465570080447928
0,469766043452065
0,451885162611685
0,459805972801244
0,460255896470152
0,453997837167791
0,450185060531669
0,456300621850128
0,43866944221496
0,43628649979967
0,438887854125521
0,43389128828824
0,4329702093887
0,437596053478813
0,430179995801009
0,427256789584338
0,426341649641208
0,428559380984041
0,417793982362881
0,423319489506669
0,412174606470732
0,422507015964049
0,418218961456931
0,419927983720232
0,414299548248669
0,413068260338074
0,413602690888693
0,415217579199211
0,411028737956609
0,414593781632725
0,414402679201045
0,416274392712222
0,414470439659588
0,413193161965991
0,415780727105787
0,411369370110598
0,410427111963015
0,415568846896778
0,412187611153702
0,409944427800456
0,409410806484749
0,410843849609824
0,411593279581634
0,413121841388867
0,407712712322268
0,40285181370729
0,402059641827737
0,408683027337403
0,40428487719337
0,402262792465963
0,400416988199741
0,405751904577315
0,400056276211067
0,404277579764292
0,402839848115686
0,404129946253855
0,400541857221504
0,4041343467417
0,402398793386655
0,401165081472836
0,405805381282127
0,402216964980107
0,399147356461627
0,402354505963674
0,40153103827481
0,403717608766531
0,398755520272979
0,395020998504906
0,390313115795935
0,391351913812065
0,390507080630687
0,388447221740491
0,385205521726585
0,384179226448164
0,377180251305426
0,3727273383301
0,373938309208004
0,369542379652052
0,36834205035023
0,366198797255361
0,359528828535952
0,363514388911552
0,356684865535639
0,352926405444134
0,350977343802237
0,351786383973423
0,348793692603117
0,34635295221844
0,345252630922853
0,349397017661759
0,342485921062092
0,347858412978452
0,344292735026713
0,346564774399968
0,34553813176588
0,34918286919728
0,344641519590856
0,348226626556304
0,347348835115215
0,348057139773819
0,348797920348494
0,35096711192423
0,348309219807431
0,355266370604506
0,353858594457162
0,355481450620276
0,352856563712887
0,358757036959265
0,3581625293256
0,360604768296709
0,360131049293866
0,361057870216585
0,361240804182806
0,360980435360673
0,364235960821973
0,368387355066728
0,365900256414285
0,361784787053629
0,365918214307123
0,36485116672707
0,361474756025183
0,365656364840907
0,365688811398467
0,360231170258251
0,363851016148384
0,3643500764072
0,362191863587748
0,356063823880907
0,354432047194842
0,360147835988578
0,355456147798974
0,356589130133835
0,353478276939534
0,356640762641844
0,349557200294116
0,345443313881394
0,350654419753969
0,346925690599846
0,345864299238211
0,347688307316314
0,345869605712614
0,342671608345678
0,341926802707775
0,341437584588818
0,335826594178104
0,338987627206798
0,336934285151259
0,337198503022073
0,334914959444862
0,333220436647383
0,336292877731809
0,336817517328815
0,333132610475973
0,329932758574721
0,329361709162095
0,330187056997249
0,326166694139774
0,321735200734683
0,322464404444094
0,318710879749384
0,318879301206313
0,316365246370965
0,315728122953144
0,313699814655744
0,309162040976345
0,307893759243206
0,308067959568116
0,305875101014196
0,30297054359283
0,301502287412945
0,301156423472593
0,296809988870575
0,29505489612567
0,294973772611029
0,294766210486616
0,295004122461105
0,295112982970817
0,291221731334221
0,291461113893959
0,29043089316691
0,288939708397544
0,288016433555137
0,283854711180775
0,286115898563829
0,28010971051937
0,275499203973265
0,273700772390344
0,270072446488304
0,268020656172197
0,261550673493706
0,261602145440131
0,257023372879647
0,253581317986094
0,250975329186615
0,252699608358773
0,255576234944937
0,254434056283809
0,25712804622584
0,259548358364349
0,266940467557606
0,271651850032975
0,278623453678368
0,285992742927658
0,29608890704751
0,306809612625909
0,316547499239983
0,330921642831189
0,340553515637449
0,354252422240359
0,367840111546617
0,379982095071368
0,393925507689898
0,407066361902078
0,423898985200705
0,435365325064526
0,450257107787608
0,465333777922376
0,481870812221708
0,49509291428779
0,508453075498362
0,51652167968703
0,536457416481254
0,545505749078684
0,56139793731074
0,570520806957329
0,58188081156242
0,590063884149061
0,600116380480325
0,607230428706308
0,611346431207969
0,623239701884712
0,628157633818126
0,632700545252161
0,635333728074278
0,631664959446228
0,636298276252056
0,634907841843301
0,641664857631915
0,638435117650898
0,634956284076192
0,635908153288141
0,628727832671514
0,632619678848915
0,633333014620804
0,634995552679066
0,634404223543031
0,631859355932197
0,637768651672714
0,636716561592535
0,639443491757093
0,64344876847799
0,647525921816275
0,650173911315905
0,651708659409475
0,662662358524603
0,665288169983545
0,67339090849625
0,681563264880341
0,691809432029108
0,698374766262655
0,70109221210965
0,719242093673649
0,720419224059827
0,744628327272607
0,745100745597302
0,750059516715732
0,764037680596952
0,766555874403622
0,77935192020618
0,780196409649696
0,781286059923724
0,784951843065153
0,789672426671196
0,782243292849724
0,775368153263048
0,780432277303291
0,777289882589806
0,777204123176
0,773971084836186
0,775509091560661
0,775140781202312
0,782695441763928
0,784170608738687
0,794352781093041
0,798920599611506
0,813007856418763
0,820585124062984
0,841420185955989
0,848721196807391
0,849758451907152
0,864891372843559
0,879944507857236
0,88729273587201
0,911704531261638
0,91420224743451
0,937910490267578
0,940034845583012
0,94419321975441
0,951973980286882
0,977880834031972
0,984828877612747
1,01145010848713
1,03049384036135
1,04994451212308
1,07261113293189
1,10291563228672
1,11768429078815
1,13508925170064
1,16430835467167
1,1678951243063
1,19952325027176
1,21135556180327
1,24128524708818
1,28270703757357
1,27158698021526
1,27944248883355
1,27652781222364
1,27785436176957
1,31407105824108
1,296452638129
1,3123885277199
1,32033082527899
1,33639078965609
1,31255910474455
1,30957061156202
1,30759757280926
1,30986034292466
1,29566017485385
1,29777636804746
1,31744708367635
1,28764814470136
1,29461257334944
1,31158519970207
1,28778813330567
1,3173853099182
1,32630756999138
1,32595250963556
1,36049893828013
1,37561634500575
1,36784306617645
1,37498058863308
1,37857286556363
1,38834112667694
1,43572636059297
1,45946237488772
1,46121425842441
1,4586975123335
1,51900507273235
1,51768822952084
1,52885575366269
1,54010925218113
1,59122593751098
1,56158123911766
1,61281667647992
1,64246833961402
1,63868416361603
1,63824511301594
1,63530188519131
1,62289677202626
1,64531994852761
1,69879050817091
1,66163160232019
1,64632537238599
1,74153356347398
1,74290692458953
1,69093300742813
1,7203600794987
1,72031673259985
1,72245783600662
1,77233879835369
1,7433275201227
1,78726897776609
1,68045984188559
1,75391004513393
1,84868690404822
1,73273171489428
1,81748049957844
1,74316940948335
1,72357664977052
1,75091811844713
1,6238815493681
1,61381788131867
1,5785810111826
1,57357855702111
1,52288171066064
1,47275065086896
1,40356712547374
1,39781857563351
1,33952911316564
1,3345318442792
1,30767011407765
1,28168461177693
1,24575108502492
1,27144827402512
1,23641412135038
1,21760272652192
1,199612709695
1,20409145120151
1,17130448969737
1,14121076216883
1,17272193707596
1,15277750722995
1,14510156159495
1,12610884901282
1,11877300460008
1,08721657495234
1,06890973220959
1,0388081105014
1,01362731328857
0,971903514204466
0,974150017062404
0,9403049716366
0,91551379781935
0,893280031552633
0,864093609311692
0,817498080730206
0,79708102195407
0,757141571119088
0,723566999295403
0,692185355924529
0,662861798309708
0,633610699147644
0,604207116527447
0,57280047974248
0,552106980960841
0,530439034797448
0,508335923687092
0,492532601825843
0,474327543708083
0,454346362643921
0,438624743936779
0,429419817925886
0,414195811438958
0,402629568231899
0,39762361747412
0,391968595140047
0,385608459861065
0,377357071296658
0,367404139534313
0,368949113246762
0,366197964726957
0,362223173598031
0,359236741706526
0,357561964116831
0,359501374650416
0,361455331050129
0,362297963886409
0,362879695542794
0,358985351247376
0,365453905300136
0,371351927008033
0,3661774445693
0,368198230723221
0,371703820482785
0,370948261549728
0,368235183038791
0,369942014163357
0,367143107790527
0,365156650718273
0,363984579066923
0,360179376568666
0,354867562051942
0,354111723685671
0,354788501788749
0,354255548745806
0,350272965577711
0,352959971657076
0,350706065169759
0,353576148851961
0,355909394155423
0,360785020087772
0,357085589634999
0,360347537181621
0,359572071022691
0,362799982560326
0,364276488046885
0,360810975122725
0,370463494462555
0,369370136569201
0,364500952119112
0,370475519002352
0,375725500581343
0,373302471240127
0,370481287401748
0,372500739403757
0,370637197787557
0,379716513988512
0,371618561323345
0,371254771418794
0,368024050287787
0,370951230745482
0,376212072697168
0,371384758313198
0,382351568144789
0,378807527451251
0,383227207110973
0,386478882071805
0,396729085668614
0,402882242233916
0,406430884020551
0,413331876719962
0,431387677924388
0,431672328821374
0,449394856329368
0,456874260175909
0,459747954927969
0,474572987779217
0,480458149912485
0,481551662776648
0,480122476835679
0,479066968233979
0,480286055140575
0,472864806959134
0,474840338180099
0,45778927219188
0,447665493777276
0,442636987212776
0,436054830201951
0,433071853877738
0,424239025376773
0,425579552049445
0,418951287280793
0,426943565512217
0,426655372311273
0,425145006045077
0,43340518643373
0,428466570063327
0,4271752755711
0,433296899421851
0,433222649275003
0,434230480398013
0,412169123948987
0,417021137057638
0,407300451979118
0,409344253028658
0,415227242545538
0,407320331851406
0,405594684808037
0,399347009799681
0,395769799177281
0,401243858925095
0,388185924367828
0,398965437916589
0,392953166311674
0,396774540338308
0,38580715103034
0,393103222656175
0,384761832949121
0,384974910500011
0,385437475030152
0,376169052478649
0,371872664425557
0,375158498047661
0,36975849251855
0,376241801435741
0,379300047007424
0,37140688763608
0,36832081494181
0,379832388755385
0,377090568454587
0,367450935134576
0,360093529603716
0,360663412836949
0,359466703908313
0,359921633295694
0,353923111372922
0,358328001743096
0,351794632256166
0,351237625565088
0,351336643065245
0,347655483700249
0,357087068188041
0,344667486741683
0,335212869926804
0,345443076903661
0,338172454590099
0,346817818079502
0,340831978272547
0,323034583674065
0,329988894081172
0,346323655925997
0,332996675640613
0,333595268831553
0,345402314247454
0,349727372305501
0,343616801680029
0,347696880037565
0,345054299540879
0,362603955760627
0,355734948271492
0,343612227405659
0,349789425287915
0,353496290398176
0,350322978880633
0,354899037973478
0,361081293175661
0,373620783182626
0,357178545026546
0,362414562813682
0,374703563686117
0,375392130225732
0,371316206093347
0,374243693658695
0,37980210090127
0,39142052722443
0,388989899475025
0,399690643415949
0,406703101312868
0,414713140065291
0,413977076351175
0,425597229349286
0,43182274202484
0,439472776755216
0,460594462983664
0,486128865122021
0,47792773501888
0,494816426174562
0,501253359897982
0,515125577007208
0,513921506275618
0,541590634951072
0,554226339407101
0,53371470748074
0,534788231620509
0,556606285408632
0,585445224566808
0,599759553388256
0,569825803138211
0,585484434706956
0,584732097158957
0,578799176514246
0,580129703927367
0,591056023064605
0,566766574478475
0,572343694670002
0,558032578750457
0,590489867025136
0,569646863348424
0,567922977274054
0,563282821531186
0,559366063523446
0,58723545546525
0,580895023823467
0,578992625639163
0,566533727783654
0,562951445796754
0,576402344545058
0,52397618355635
0,541572311002529
0,581008684198011
0,58338728996621
0,528118445148574
0,553249168883477
0,544469063253106
0,52524558885232
0,541584936353833
0,541717489987319
0,547706804294623
0,536218595828753
0,551332054325021
0,519356861031551
0,507781269977446
0,514957637712909
0,520386003805698
0,531358278336333
0,544784060662922
0,513448584700468
0,515664254607985
0,52993187308611
0,496331489054732
0,552682487524901
0,544716284248935
0,527612907530923
0,550384552602969
0,500110716092805
0,509451132783657
0,566161112328875
0,538286248468694
0,551890584310387
0,553217014542336
0,535884689708965
0,542218928607028
0,573206780796897
0,536193735245528
0,523101106284151
0,541643091631247
0,565169635990011
0,541565250862464
0,561508117451991
0,592597798578239
0,57929392363442
0,590565728999751
0,635153193590298
0,593567368944855
0,59077333944346
0,565884933413237
0,612607964299593
0,590218001024656
0,633804819051254
0,665980370622254
0,653455666740223
0,632163499137333
0,680143592383183
0,672875243878572
0,728611296171067
0,777227331163529
0,700023271369657
0,65754725766931
0,730090858448205
0,655206025224628
0,68550949830799
0,700962216374685
0,762368468127421
0,776047561448671
0,69138508689252
0,705021267458039
0,696556981433177
0,700759098720244
0,736606628100631
0,674471360639647
0,674258703837389
0,710323133772354
0,844257102272913
0,701835837055508
0,670351715592845
0,624040452967505
0,637566994575267
0,617903459631516
0,65834499341562
0,697269358957004
0,720197163560415
0,691420258049742
0,692003157986096
0,733400948818377
0,718466809815602
0,723477628796845
0,867783227894608
0,524301225201041
0,58996319121387
0,607395526610315
0,691530974676997
0,766444009043166
0,58956170970746
0,604827508274673
0,684271450666265
0,6610302571307
0,775857301678167
0,846624737515817
0,973161621641234
0,765089173453782
0,764539215773935
0,725148126932481
0,911760306455702
0,64612741698794
0,742421906923086
0,913062828199337
0,547133474829563
0,690554431564618
0,889034553437742
0,712173651402136
5
1,13411598221412
1,12877449992714
0,962007832326727
0,732338152381351
0,951068602633251
0,629497533356122
0,622721861134527
0,636644921686066
0,816257423767675
