3596
4000,36533379555
650,420452594757
1
2
2
0,0447339871047046
0,0445792886085886
0,0501925423809427
0,0441384259989447
0,0455974057475595
0,0449051571375568
0,0425489142725612
0,0405476309584196
0,0424238980053574
0,0460670495216945
0,0502321348088088
0,0441076183103309
0,0457177323792946
0,0526741700130119
0,0463490270292493
0,049178471029086
0,0492217217262204
0,0452817829948791
0,0567348552199159
0,0457413240126637
0,0409247441962645
0,0446695308213451
0,0502644678070871
0,0370317994675906
0,0423021483564392
0,0498322200948416
0,0524906107531691
0,043964581344335
0,0469152955831243
0,0494314956146231
0,0435848111977486
0,0417289829470677
0,0457378681784052
0,0394700156797013
0,0425291345352157
0,0471965710426401
0,041941470574438
0,0510424045217631
0,0406543853376507
0,0387088294995717
0,0528270740053739
0,0479366697281962
0,0490992170071798
0,0428522417972455
0,0424248434001256
0,0487382023977983
0,0441289911374767
0,0392131454482087
0,0404379391229286
0,0489033301399286
0,0462038740063807
0,0332652963482749
0,0413659047547844
0,0461791963043013
0,0395724434290414
0,0407104882190335
0,052081684896041
0,051202268953759
0,0423180007995667
0,0326456605760775
0,0501753073957057
0,0586040599372226
0,0511606627610042
0,0343563196221062
0,045452116190705
0,0416002973469963
0,05074276996997
0,0373836893965732
0,0539088209350014
0,0398450272135518
0,0376295607044391
0,0436241248737757
0,0582473816808347
0,0448111959966352
0,0510827538788639
0,0451441782623308
0,04649117137054
0,0415489102363305
0,031925334174329
0,040037425699993
0,0584518650334551
0,0486807528238207
0,0466146179638349
0,0285657082411739
0,0462778782041088
0,0579273411172735
0,0372610776006893
0,0362765810220506
0,0583917942742721
0,0495723574072721
0,0415404009442481
0,0338581411387458
0,0387811734085225
0,0330615700972484
0,0400036745899203
0,0353191503716004
0,0473366367043274
0,0452745722508492
0,0305549299889729
0,0430911033765293
0,0272908447857343
0,0631138426029827
0,0488787533995484
0,0350040292288009
0,0469816490458989
0,0485610560012503
0,0207283802541395
0,0673640990016385
0,0642501832331412
0,0404616718805422
0,045436804174168
0,024042644717296
0,048582330357957
0,0443562437024396
0,0238555780491532
0,0484614670553258
0,0691987407145082
0,0454335926100907
0,0411720067618682
0,0371102561398245
0,0210235417578025
0,0561917964073306
0,0637782374886117
0,0450306777923443
0,0436289761302272
0,0336994287290368
0,017807129740751
0,0646336328320795
0,0579283984042904
0,0483448814515074
0,0298703120285361
0,0436104609504634
0,0128053184060857
0,0354915974608309
0,0574605374376772
0,05569368367193
0,0347324925308275
0,0193872396845101
0,0293038575455827
0,0734777313995072
0,0683544488779351
0,0464806908667801
0,0173608186826729
0,0292216884094634
0,0660996814823874
0,0555238356200449
0,0325301886272632
0,0555244009342101
0,046808727687599
0,0450171993616642
0,0272299509046066
0,0283505273485994
0,0471464263052414
0,0413081175546874
-0,0216091955029874
0,0666735422615524
0,036842983093134
0,0867805873510024
0,0669005740993108
0,0676494319338571
0,0239858671231292
0,0490017842346946
0,0387131033793633
0,041574511694497
0,0334407318649549
0,020151280768567
0,0388810234144743
0,0601251534761919
0,0364907991799236
0,0327349172238529
0,0621125252485049
0,0375216873355844
0,00893501198304403
0,0913979339942117
0,0423551838966955
0,0296009222698351
0,0563516814228686
0,0620141904667083
0,0147172722246649
0,0476084773488292
0,0538376693648171
0,0474311311069259
0,0383469457830258
0,030993622700285
0,0239761280105724
0,0649458753186698
0,0399342948787242
0,0445584974730767
0,0337451773188775
0,0176116542833987
0,00732837308823023
0,100437294846577
0,0569839284870876
0,0563222988948011
0,0257518672173339
0,0079523203319458
0,0578419142552514
0,0699250660286583
0,0389780536961288
0,0455188613324517
0,035355778165387
0,0393834552647313
0,029803270875751
0,0544005613785519
0,0132921850496928
0,0196549145804692
0,0526944853607905
0,073403796347812
0,040292710095774
0,0365862349925369
0,0208241004869124
0,0122779474876943
0,0726409053842505
0,0755726422457339
0,0477469530521146
0,0309360033490904
0,0308240854816689
0,0536285538188643
0,0463999960911596
0,0460679228157405
0,0403665549708594
0,0430693302093081
0,0424256469177293
0,0398142167952389
0,0376739341889155
0,0376828920684461
0,0347299892810839
0,0437259394939525
0,0338485328531145
0,0409090484296156
0,0423325108343127
0,045491633326611
0,0380319708262557
0,0457148474329602
0,0208547078963653
0,0519700013100509
0,0443864993964424
0,052612151564021
0,0325359842541482
0,0411542243229002
0,032870514947178
0,0449824138934256
0,0296509000837844
0,0442843994531454
0,0106605502877916
0,0327094929407293
0,0511977417278436
0,0599271461135082
0,0370121257497679
0,0256467921224679
0,047891149794139
0,0459846053218036
0,0463157245349454
0,0304615863895803
0,0419540367844556
0,0243514109204583
0,0179236375430143
0,0734425703549369
0,0550774133738709
0,0217873925118499
0,0525312199771366
0,0536361493073184
0,0475660291950715
0,0111379940411889
0,0168674019111107
0,110034471579442
0,0361207354120691
0,0106634017509499
0,066406451403615
0,0554420952697626
0,0571891527099133
0,0182061845940155
-0,0246469285817881
0,123633742353694
0,102612088718587
0,0416439726202883
0,038564335560095
0,0531421821623743
0,0329149705026728
0,050332960432974
0,0213568786331903
0,0645812009407761
0,0197319641287495
0,0788019553368753
0,0676327652628552
0,0236223209514781
0,0668648799827897
0,0573730055519313
0,058791423613983
0,0431498921384933
0,0460068602982687
0,0212007959834711
0,0441490818637805
0,0427848183776424
0,0669671353161786
0,0332647575452752
0,0289033843594279
0,0498460820213794
0,0598968954441125
0,0357380819493802
0,0465960999645413
0,0538240149227981
0,0470231559113247
0,0384931286282931
0,0373279238923391
0,0538799826011273
0,0291466298149496
0,0205099892124947
0,0914088260513052
0,0418368652991243
0,05132181083182
0,0709544551319192
0,0519281053821152
0,0403950679124912
0,0432090053104305
0,0466170846826551
0,0491256389671318
0,0395790556021428
0,0337384086942221
0,0675948118069268
0,0515511581020559
0,0560324051548353
0,0403609729519708
0,0457513828495752
0,0375980422070102
0,0495003354775233
0,0410233755699527
0,0538385463308876
0,0451598694754979
0,01238803400763
0,0559281309384791
0,0797970113151272
0,0113741543667511
0,0789776649212028
0,0616108328476869
0,0692520081584552
0,0436706263475169
0,0576506952493089
0,0477247414600907
0,0507565306609522
0,0541439452162089
0,0559402010028049
0,0392945217534816
0,0739476242415313
0,0526442453283819
0,0529965611737409
0,013231864771826
0,0888256383613008
0,103917290937415
0,0838807265132747
0,0642422302370782
0,0222267405503821
0,086248508285413
0,0566424854867894
0,0836678586790931
0,0785637365961175
0,0663296433593402
0,0696498092712068
0,0669261719837651
0,074142262416837
0,0678171148409766
0,0706300663247494
0,062861624144512
0,0789071416474262
0,0691815676072262
0,0890628532028174
0,0485343381787975
0,076717483862836
0,108940968934733
0,086014264918593
0,081361169161049
0,0846779347366472
0,0550353335592899
0,121414923571392
0,0544853595463966
0,14804167804333
0,067065972391551
0,127230278231979
0,116898510999762
0,104386972543262
0,0861311114821517
0,0903302853908803
0,0892790480089581
0,107794218782185
0,0927475692375589
0,105364424724755
0,0842107822917437
0,102661511999327
0,0954886261716531
0,121942951741842
0,0937487513494404
0,122113453634499
0,127894189414749
0,116158765057038
0,120795582841421
0,101048174379164
0,116704242254961
0,163674011686226
0,174920260016631
0,131426384463077
0,13491259956528
0,122389896956519
0,139618262197615
0,127409624621942
0,138225312892909
0,134832657550252
0,112026960127458
0,176411039395363
0,136043945862057
0,186605272193576
0,145325711338291
0,133476800988916
0,159410139107294
0,142318712764016
0,151525213881735
0,187814654678017
0,15266651813346
0,136747979986422
0,184957112244821
0,160911573199498
0,173603845742537
0,175466905682821
0,163919617155889
0,16928295705578
0,155136095630428
0,176439206307848
0,16693517321399
0,199341939438134
0,177112624758692
0,197962905625903
0,189689311570845
0,197989191813123
0,175648065195625
0,213122671691642
0,176931187396313
0,207698760830766
0,208118246910153
0,203589542392803
0,206915374667915
0,185664259074533
0,234809688759578
0,196322064261188
0,218660042559187
0,247809087824591
0,21226815758982
0,240551990354169
0,214454172841659
0,239369677411014
0,216712836694
0,234064861207294
0,234298542323781
0,235574495267585
0,235478322109149
0,25370548969818
0,221918682679616
0,259828784860247
0,235508871947574
0,258570200293147
0,238978604210724
0,26184042680639
0,249539024297786
0,244870736577491
0,287841675398206
0,280141913180218
0,28329853208205
0,311537634848002
0,270438796813442
0,284324824453884
0,269034612727285
0,30097268612693
0,266915891731411
0,311905995025455
0,277351945662515
0,310800364208443
0,274598517363073
0,312934118083057
0,290831505697064
0,33584421515417
0,292863333358239
0,335260865686213
0,310916670564242
0,327949661016523
0,29660196010578
0,338608869937754
0,330986214544067
0,374062633603154
0,317678270312619
0,365624704783787
0,323170921360792
0,360195563312137
0,317258425472812
0,354980609334439
0,339724010995871
0,366763807405413
0,344559427574807
0,37193840324777
0,382592389626064
0,401285727594248
0,356625777838621
0,387327909554236
0,371346950894653
0,398585998068087
0,367441837373654
0,387001690962499
0,396942976007213
0,395835033833898
0,384461967379614
0,424052213953884
0,388131531182602
0,420054260703601
0,406520736729819
0,451274174486981
0,404054961479074
0,428079914882219
0,40349528325526
0,451951404965454
0,408988360725337
0,451137938188488
0,422191968469107
0,459500723246286
0,43616648050553
0,466440310119412
0,44538743176655
0,473515150575922
0,45208993737746
0,49294250528628
0,448919938308846
0,492896095969791
0,460004653905517
0,498261226848698
0,463072006936007
0,503133493860951
0,465954991622729
0,506716661023145
0,475843347614965
0,522741168275588
0,476636849769514
0,503670985531406
0,494812439964964
0,537854588618498
0,495079208688794
0,548630573212117
0,507064944218328
0,557183159091987
0,517875523631848
0,538578722648972
0,503979868301416
0,526262995938165
0,538570595567974
0,576546637154523
0,526404590590473
0,590786851036245
0,535050166556804
0,568653732560474
0,54154570806385
0,609508179937051
0,559267768972896
0,609587686295478
0,583754879855444
0,595124810713974
0,570753690462888
0,578827646557246
0,574791520798489
0,6162830914872
0,562443781684608
0,64088981241764
0,558316483609072
0,626733522426394
0,572459043388378
0,608570658824339
0,590675512506997
0,632928666321408
0,632615090982403
0,664175347600492
0,599997643947224
0,679698674584838
0,615446276368062
0,64751743288039
0,61245513460437
0,679509640013495
0,64094102705791
0,676691765485524
0,637312709586721
0,70338690252254
0,678686041479275
0,686580313111595
0,663580000788809
0,743561516072822
0,670042222159203
0,689080625767758
0,680704062226392
0,713181360834804
0,697339734170194
0,744481810490204
0,692773507934816
0,703519991602078
0,684583050300134
0,762769063150297
0,69464359408003
0,718229882519142
0,66879523667307
0,739560400046312
0,680115099524543
0,727930955479643
0,686623796805379
0,746125611860706
0,730287638530199
0,77117713307744
0,728565437367661
0,778121343695142
0,750897371536064
0,762530341988804
0,742720842586599
0,778516033765587
0,762622063099407
0,803110952776517
0,766376770857645
0,763834579759543
0,746472053688865
0,802986480611097
0,754768529115523
0,819542448300965
0,7770518628575
0,797815022931745
0,743583069003111
0,789557721828752
0,787831244324404
0,8226216920061
0,775419319992808
0,870334704406415
0,807746783337752
0,83512656039783
0,790262743734285
0,851758443029497
0,817936499081713
0,821180872906332
0,762159532738849
0,835878450159942
0,805386760501086
0,859468192993757
0,791477130820286
0,849569873765955
0,803036501671322
0,889252819539176
0,847186308936023
0,889465958871077
0,858813185373574
0,839520809895412
0,827932821261289
0,903655967895951
0,795534594892156
0,859298076490987
0,83172561168688
0,905634328084682
0,87929426355458
0,881345854454098
0,830859447840565
0,889932783428492
0,886536704410461
0,873543291690695
0,851963301220547
0,903424857373263
0,86071329798536
0,915132726251007
0,867552129671033
0,917120969421257
0,835923873369488
0,878496011311391
0,876705333032023
0,928682840999001
0,875857102675426
0,926062203698
0,863672326528484
0,905350481208792
0,841499735421249
0,935198083207314
0,830890694731361
0,907958284319756
0,895434927160527
0,948639672038736
0,938858275759155
0,962764392375832
0,909457885993388
0,924659915975879
0,906560134403479
0,939358150625028
0,885850800493634
0,937777959540646
0,919072697614384
0,977368980930475
0,935780783734728
0,99889078574334
0,891959561236239
0,931212206215442
0,906268471352522
0,975661691973554
0,910554054349113
0,984500723537106
0,909270486006031
0,968604507952013
0,90407695248951
0,931041941910316
0,921456991907105
0,966259336402133
0,932707890266034
0,972046660018283
0,961679102318029
0,961937329655665
0,894129932782422
0,988497136364287
0,95023785628067
0,992572291608074
0,921980875183124
0,955760916300645
0,977594550488888
0,964628102527197
0,938588619627381
0,996628168484107
0,967925562817917
0,99816619142382
0,945855734241089
0,951842539614116
0,923912172991552
0,950473297111078
0,930411367409118
0,995070217630914
0,938342019091321
0,998665821296182
0,940934232134744
0,973546423352664
0,935260047739933
0,969088955538753
0,911355419957888
1,00122681926078
0,952261953162121
1,00075752080025
0,904700762066263
0,967073588436935
0,909799917681603
0,969574461999055
0,897741149828921
0,992047163770122
0,935333864340735
0,966453981124374
0,949551698146958
1,02470220144822
0,950876143901405
0,946136661484391
0,90675581182996
1,01221754607006
0,939534859505161
0,980699033515536
0,938576840608858
0,933207007636422
0,910795241330624
0,948004977186806
0,933978559903884
1,00236180783744
0,928795883467128
0,971220716841538
0,93016779254875
0,937516731390472
0,911737328953441
0,993567160881631
0,920604624837113
0,98144741185518
0,925353005502763
0,962572648368973
0,924696380866461
0,950303520728797
0,945627949644388
0,96944064517086
0,915099183870062
0,942572401220985
0,927909695988015
0,951905187557024
0,94570534055684
0,980736373058902
0,934991760777084
0,960945836259172
0,899782235152218
0,932049230699326
0,917279506836866
0,951196581065905
0,913453069615873
0,956687598095463
0,92006846319474
0,95275331271521
0,936628248473558
0,931342207832251
0,923984328951618
0,960547868419102
0,889360237750675
0,938475827017939
0,908035178438418
0,908932529827778
0,959541323616326
0,932388614463892
0,903394467658764
0,920765688249624
0,924081468582384
0,957042322616964
0,890344176103904
0,907386561817419
0,922230958896382
0,932453789492301
0,887846406078971
0,897481169810698
0,887446229254017
0,911908646253944
0,931320248889975
0,917040724106505
0,891471472515492
0,89509419536667
0,874301276327061
0,913310655916176
0,868438431109353
0,878885134132399
0,883875115003576
0,903729394656776
0,861179264463641
0,896299261297193
0,852044484833829
0,871978355348637
0,877575324653392
0,929769712284176
0,869336168139168
0,883917468872287
0,856226882860799
0,876660358585164
0,874890028184545
0,873253441531529
0,866067960458857
0,883627312490584
0,848272167977853
0,882360507914865
0,867996883776114
0,879125253661958
0,87036594142192
0,888051966338735
0,843035521282609
0,854194062461344
0,819658529703264
0,848933897136422
0,821478759822163
0,846164993699988
0,810022511374286
0,842376771025636
0,839033745988727
0,867436236016407
0,84729431715591
0,850492317869507
0,819466944847364
0,817253239727807
0,794567805762953
0,818949616713186
0,786384794783023
0,818058232013946
0,754131974921813
0,803500234262731
0,784555531467739
0,803876884828299
0,789169142717406
0,800468041391112
0,778413252459177
0,793119639794653
0,78418499031249
0,788321474140035
0,759839578078004
0,784446017008069
0,791191257733001
0,775788003875954
0,757643680226506
0,757264164734934
0,764238094250311
0,750938294947832
0,734252277422877
0,754513357769578
0,755027808625775
0,764667694892395
0,728963796609707
0,749116766321241
0,752576334776683
0,747405053433574
0,713875497464114
0,73946874718889
0,725113116382696
0,708499138931287
0,708948985968511
0,73497293375967
0,707468714650427
0,700390867942009
0,700732701814335
0,726348583085663
0,693119300344075
0,702139487860606
0,695374886531589
0,706892921592944
0,686263479376139
0,703239487918173
0,698875841793573
0,690424133139619
0,667682688238574
0,675991975639266
0,669051045282347
0,655810417984374
0,651731708830166
0,662852725307027
0,651904222514069
0,657973252529954
0,652094609228526
0,655343811301159
0,641565611381491
0,656158005187709
0,641260212087009
0,649023689536709
0,626384743321047
0,629733455066969
0,625809453217498
0,626714380642229
0,614377703061671
0,653860828971524
0,61636002775137
0,617706854020963
0,611167540980401
0,620630390520819
0,601616651982406
0,60041536070182
0,594540738487956
0,592984576504998
0,593250793873528
0,60749406406367
0,584717456445732
0,589830948207606
0,582026549215608
0,574857402872132
0,567716722024341
0,588883935115617
0,583063804544549
0,574033292015363
0,549693426578154
0,569515932934775
0,558555524613117
0,562163732025736
0,556285116148878
0,553671631000364
0,543745653886265
0,556531936964484
0,549269938423742
0,540760229066107
0,539255010614251
0,547700148186377
0,539312195889036
0,5435888840486
0,531424883907227
0,522895719928444
0,515913957156337
0,523175396094866
0,521409048193491
0,52433281399042
0,509564712877491
0,52046039206744
0,504622087103536
0,502896305700268
0,500868428830522
0,510342535693132
0,498910698505229
0,505406831986219
0,491216545260724
0,492694001032809
0,487022283469764
0,487683028770272
0,476058511914421
0,496589474010142
0,482069510596329
0,481474032766722
0,476908359679559
0,467130571452797
0,472770610911165
0,480296088594239
0,464112546610076
0,461816256172034
0,468788218106627
0,45940166625885
0,441831050478115
0,457853503311211
0,448164267513188
0,450710442825958
0,445546374125574
0,446178612993767
0,442166844921561
0,446042783478322
0,433570673143137
0,43838337289507
0,429538466569245
0,434368694968945
0,426823355603345
0,41916037659417
0,419215044877806
0,429215619700252
0,41725321210484
0,424170100203473
0,414095231782351
0,417039113174191
0,415222878274937
0,418706646127741
0,415046972027248
0,418815172516184
0,407919740261961
0,404015397116498
0,401906797564634
0,397241981233629
0,390251120186617
0,407776944981396
0,389893640234654
0,383669510940947
0,380880832843411
0,381434354311583
0,390979009001463
0,390455509768352
0,370223845806963
0,386221097334602
0,381083351802205
0,378340093383689
0,366094586371145
0,376181036573844
0,367747711573919
0,368975334241068
0,364348247640212
0,363781624754235
0,356782080950737
0,359515207884664
0,356472338617957
0,353188331082686
0,347059702581726
0,343742018276915
0,341321650374278
0,346314807788938
0,340397971391296
0,348862305494468
0,339779087744301
0,33790387972452
0,333927935791609
0,334075488144188
0,332304721941983
0,335142620494106
0,327814969617149
0,330270372011507
0,324943427219766
0,323127549076173
0,319805072693739
0,322402827123395
0,315289236882754
0,322609966314266
0,313890241714784
0,326755301203008
0,317381222736299
0,313213135763751
0,30599533898914
0,305547952521174
0,301785484541305
0,312714200672329
0,305961231226796
0,306378643333556
0,298610151572659
0,305820725215155
0,300396629667192
0,300090085783189
0,297634304713611
0,298607268005233
0,301908062559902
0,293536860284523
0,288888492399566
0,296079149358952
0,29354215416861
0,29625491213755
0,293617355793299
0,290850420093613
0,289174709186509
0,294445876241074
0,287300178156878
0,289134028470426
0,292217651493951
0,29242852193336
0,291033866961396
0,294721055921346
0,29075049707083
0,298410168360801
0,290420554903326
0,291748725891908
0,288664006934668
0,288018050333049
0,289415896793135
0,295508403572997
0,294883171336059
0,298377704218461
0,300453969592491
0,309524079422421
0,298942858708536
0,303277454665559
0,303420125568431
0,306307410880295
0,303767926763112
0,313491694507844
0,307874573691316
0,305836668264998
0,311347219573559
0,310940602193509
0,306255688108091
0,315918167372489
0,320226420405027
0,321922504409789
0,316645125745084
0,322217242748499
0,322636326555922
0,325231993622529
0,321300633382231
0,336299440338568
0,326105236289742
0,331451660366282
0,335772076422186
0,339149748861348
0,335333434817952
0,337790587836065
0,348410920220181
0,350263621573462
0,34369164235339
0,345291855872882
0,349724489340105
0,355401473356354
0,359904965725685
0,359034403403304
0,360310488010393
0,374016644291105
0,363957799824087
0,372588032568768
0,374453976689687
0,380636602685981
0,385841562166817
0,392154929860873
0,394066224762418
0,388137334841172
0,390679712916273
0,395164251875532
0,395462130011038
0,399164861266654
0,394522335159583
0,399825299830665
0,403390271360786
0,406048562511098
0,403830406692162
0,411324966264275
0,408733787953984
0,393698211499396
0,396945291789148
0,406394379303602
0,403000580080124
0,406697211687864
0,394157689425097
0,392135512120407
0,3993122760954
0,406822700762843
0,410668786719337
0,404834873773683
0,399893570941438
0,39969747878815
0,398243804586165
0,398709989094201
0,394272194775629
0,40338001877563
0,393192873472596
0,396347666175704
0,401823685382501
0,395240154787912
0,395704090448621
0,392728839345809
0,393049676048554
0,398736495707539
0,399128782433643
0,406766595003163
0,401447837912722
0,397971651556548
0,39988850541166
0,399893355993134
0,391446310088252
0,396001293440605
0,399408665325315
0,396848175528524
0,399949711889677
0,401369379777419
0,401409895448102
0,401162425987073
0,395881058582564
0,39628996514105
0,39741346555043
0,403044264992784
0,399611634458615
0,394920631877356
0,389884525805532
0,395410443744573
0,393446205947366
0,38399853344619
0,388794193065961
0,389730377497114
0,383748562271211
0,385407600305345
0,389959002399695
0,384364054294897
0,386233984957951
0,375842246587863
0,375252278428219
0,375344582261825
0,373747487703667
0,375085931687701
0,373645780083607
0,363201604831331
0,359464673117173
0,365649942491842
0,353519544368876
0,351198014247171
0,357424094425257
0,349199454465128
0,344562141262497
0,347236880902316
0,338130880597815
0,339868531426734
0,335874373936192
0,33890708289645
0,332202581070084
0,334614675051184
0,332701885695833
0,321844140679462
0,328608910176094
0,319240841177314
0,314640735485545
0,314605992308961
0,313272119064785
0,310582905137135
0,307351916557415
0,305403920375739
0,302759619770143
0,303811456953772
0,297818522256625
0,295463245127567
0,294368800477126
0,293644673030921
0,288105630706082
0,287650108906959
0,28990892361787
0,283802723552177
0,283775840825575
0,286327103165753
0,28108588589042
0,279569290221685
0,276359748871254
0,271904783026392
0,274649820704232
0,271588537427866
0,270688862747634
0,267039947146638
0,265679589707339
0,264902612508427
0,263134877654157
0,260865389898179
0,259079988787252
0,262846321329221
0,263530426010303
0,258605153708099
0,26115502903436
0,259700236803753
0,250550239404731
0,247774857748067
0,253073472022046
0,249626765120786
0,244608326792929
0,248797065224046
0,245558623445404
0,240223586564908
0,245501568900053
0,243273434111555
0,24136079858052
0,237645549756938
0,239492852767135
0,238896903561576
0,241324405922605
0,23741259861556
0,233048038014956
0,236078993181847
0,236799207112057
0,233163377112842
0,229442393274173
0,228282634350298
0,227905266141221
0,228141616382603
0,226172851990661
0,221533860372598
0,225030162449542
0,22320583510537
0,220409384988374
0,221915555306293
0,222244809163321
0,220255810946466
0,217101068756459
0,217065894858389
0,216390159444072
0,213391484583735
0,217300253030007
0,216857491704058
0,214336301757595
0,210477342290742
0,216030095285831
0,214306554343072
0,208028714137456
0,210885739047325
0,208303803255832
0,207889825955704
0,208245761840347
0,207794546676266
0,208287715436864
0,203801654468695
0,204829073320123
0,202491372017979
0,206262385360156
0,206514663596611
0,204360886391566
0,204355936722676
0,206643512869191
0,205498967321629
0,199258943658017
0,20044622060506
0,197883811933605
0,194454559235218
0,195781283743501
0,19626623754874
0,198980594578994
0,194122389984395
0,19685883991919
0,192665405549352
0,195945544842566
0,1937627967698
0,189901855433883
0,193420343437097
0,191603503715185
0,191429354079498
0,189316019284366
0,195784614475781
0,190519712078152
0,189154535858607
0,190078217228814
0,187524888781348
0,189523423112029
0,188682895676127
0,188119905167885
0,185932778723811
0,186570711013159
0,182717575933833
0,186302656758668
0,185648435893579
0,185567898333568
0,186008986420194
0,183233826775726
0,186686184720427
0,187293044275831
0,184530499553979
0,185444585905479
0,187376678963892
0,186052859685706
0,184538977621198
0,18525978691456
0,182753233370825
0,183632128555748
0,18417902160294
0,180287635244402
0,181823268822056
0,182381471833699
0,179260632912188
0,180551708435139
0,179942250244606
0,1770945439597
0,17527921208134
0,176115491377943
0,175054326348115
0,181337977729974
0,177170480479272
0,173766191645704
0,175502934582952
0,174752220089058
0,17428934729991
0,172694838135687
0,170372523694303
0,173560056889926
0,173027602189539
0,170493906967031
0,175118002540492
0,171194117479589
0,167878835101207
0,169086979263472
0,166345933159714
0,169845153108198
0,167909107750854
0,170310106054259
0,16463001180651
0,167552298359168
0,163260764694926
0,168413560610138
0,164986159353909
0,161295036975673
0,164045286766844
0,162240301909886
0,164994808667843
0,163389123403144
0,160417433428745
0,16375185017543
0,160974770158151
0,161997810552358
0,158006023356635
0,156848049242081
0,156469557744438
0,158549444364108
0,159742738043559
0,158191417951739
0,157091470139798
0,156321192938948
0,155632611691998
0,158546573127382
0,155776763262602
0,153516325104444
0,152379019186454
0,156957434611096
0,156723895177246
0,147138543712588
0,150614547839879
0,153668542270503
0,149558362233977
0,147938968016841
0,14675543591495
0,148068814306041
0,147311494238719
0,146863849379217
0,149560035875488
0,146518062517466
0,146838136923779
0,141003699871673
0,139883070293648
0,14237015023848
0,137882584780792
0,14100590714904
0,140352476727183
0,141432290053272
0,136648379778172
0,139583574597453
0,138646555081364
0,139812055607649
0,134806217030819
0,136727979887309
0,134657623844312
0,132675609503925
0,132875175194777
0,132217532141318
0,132045339561739
0,13226643213214
0,1308049286355
0,128251680946373
0,128627932639979
0,13098052158625
0,128540133433468
0,129308664074763
0,124981320514307
0,127142547113994
0,124151450585108
0,123713057452572
0,124496829878688
0,123245353073417
0,122114671507498
0,121096679656197
0,118941363866508
0,121629991779125
0,118980770887291
0,119359905864595
0,119292939881637
0,120584714430758
0,118010365112309
0,119415754784313
0,118712006389732
0,115753181429366
0,1176518974434
0,117477770947013
0,117097117897968
0,117726928688274
0,115086802992546
0,119794957660443
0,113452538900999
0,112875014773366
0,115201330217026
0,111683193127183
0,112112517861367
0,113852528787974
0,113509240752823
0,110885332154502
0,11271884978472
0,111912832670651
0,110827169574632
0,109899740156784
0,111356739501412
0,108691977628413
0,105328002693624
0,105353702413656
0,105790569877072
0,105951683557237
0,104800631418053
0,107563110719004
0,107950705246625
0,108356442723764
0,108158066910803
0,103799052024677
0,104860171728807
0,10585182935014
0,102534794574518
0,105504836252631
0,10402480975786
0,103877356186204
0,102243734902237
0,106260967484514
0,102736121608538
0,100857205713377
0,103648054444673
0,100800507283074
0,100831761702002
0,100063242310099
0,100896806232069
0,0976220749068492
0,0998684588975134
0,101700323103663
0,0980548455824811
0,0999237494438929
0,102147894275486
0,0994758217180129
0,0960196451348326
0,099322680720566
0,0993801904276542
0,101700851129469
0,0965707546826765
0,0992161950144311
0,100086305832007
0,0996299994001916
0,0947246128700657
0,0992772027334947
0,0959908105794864
0,0982244623390764
0,0939005573096867
0,0961853783425408
0,0957892195231306
0,0981409512732801
0,0980480832330105
0,0923133244829512
0,0973338498980655
0,0965304368859927
0,0917939436166755
0,0970947233001092
0,0931650782101523
0,0958074422426608
0,0979671307166718
0,0937320693666026
0,0928449181595307
0,0953266557039674
0,0918944417597628
0,093325770695153
0,0917524687575986
0,0937285771127889
0,0884003288137603
0,0912264163053732
0,092591724736892
0,0919257219857769
0,0895114737500256
0,0924734761860621
0,0901837686964716
0,0934796393933336
0,092229501622079
0,0910252062498595
0,0900753148946664
0,0871822249949698
0,0858728627629028
0,0888687325622697
0,0876611940788638
0,0875447125888529
0,0878369917320541
0,0912448252917922
0,0885902132939044
0,0869193000107416
0,0890317097935378
0,086331215797864
0,0885498506510143
0,0873549359715017
0,0856821262080768
0,0882397395306227
0,0829800723552687
0,0855418279688586
0,0886002341783602
0,0868361274922993
0,0865355696384908
0,0848138331952572
0,0855687309062424
0,0866145245890772
0,085992570609907
0,0825420868746996
0,0841387843007146
0,0876937222235169
0,0796336621463426
0,0870248213605482
0,0839329238615552
0,0873387882311445
0,0851069824849447
0,0851239996237236
0,0830006573513362
0,0844879076746879
0,0837080682802929
0,0851563452886708
0,0852003129877916
0,0799782832692579
0,0810499288066102
0,0836639907109542
0,0787259228354932
0,0842968815818121
0,0819452827040316
0,0802428382512443
0,0824851579459897
0,0785854472522275
0,0800925063634786
0,0801290052016154
0,0772368338316128
0,081945976526339
0,0782445634824097
0,0801220115225236
0,0786473044560818
0,077099717305691
0,0795470772280393
0,0778830958573461
0,0752311321061791
0,0779281834174726
0,0741552122785252
0,0768803906519362
0,0762699520562899
0,0776262640931682
0,0745938358421879
0,0758688069677343
0,0737238769228109
0,0758569726708017
0,0746226645148338
0,0742442609161483
0,0738078251305619
0,0737531354023197
0,0727328415394932
0,0736362986472819
0,0699751965733376
0,0740604433005154
0,0712905483446667
0,0704152749861557
0,0722368960638478
0,072466703694923
0,0711494950572986
0,0721699198416854
0,0699980049918043
0,0711111711570923
0,0668143707878684
0,0699259057973085
0,068438748109846
0,0696936986402029
0,0700635872712773
0,0691234600545697
0,0666192983837469
0,0691490000153021
0,0649327618123854
0,0692840388393223
0,0699201057648484
0,0652010965227332
0,0669638846764797
0,0665956650086757
0,0674254136836977
0,0645178210361873
0,0669987776860952
0,0682002854143435
0,0636937895507184
0,0666523503777341
0,0633633603254908
0,0664398211849326
0,0637506349829524
0,063710435467824
0,0619606915934591
0,0667540288692008
0,062571526401754
0,0635956912537193
0,0605186023053416
0,0641363433976983
0,0596647947103778
0,0604494350273771
0,0644863260935928
0,0642759655206251
0,0632297252313615
0,0606493805334705
0,063121702476048
0,060157024528386
0,060923591096191
0,0604152582722095
0,0604641373431535
0,0583429831987383
0,0566849331408619
0,0589051493506574
0,0600258257658051
0,0587668803084847
0,0576448294116376
0,0569640556651467
0,0594342622337161
0,056514877895742
0,0576040781818953
0,0586228210049188
0,0564025323488055
0,0575535146677556
0,0566706395585395
0,0598427975931253
0,0550116959056229
0,060816870103821
0,05689794892458
0,05578620920117
0,0576670233424627
0,0586960877027456
0,0564607218935105
0,0575383899365055
0,0564142182059102
0,0584505467511389
0,0585999001662604
0,0551863018239048
0,0567617428566349
0,0559961404828429
0,0567378424173406
0,0575947489509197
0,054528511533476
0,0544761708373012
0,0566348552256751
0,0563014149353771
0,0542623222115869
0,0550275902821171
0,0547804668842979
0,0556586435535406
0,0574675066918702
0,055919093143788
0,0563052344836873
0,0547282845067395
0,0555752078445583
0,0609357966151547
0,0549927460996638
0,0557372325905994
0,0554164288133106
0,0581735949781729
0,0554567545776399
0,0625580309568429
0,0580104808321218
0,0555718174434864
0,0591017217394471
0,0594279937813609
0,0569047682707706
0,0576808791209369
0,0548470310515513
0,0597635837630905
0,0538512880833869
0,0575256064692747
0,0570259002660964
0,056245467854188
0,0627942713204665
0,0525322434217078
0,0537741267569193
0,0550739527893788
0,0558574258806191
0,0500014115801683
0,0509827236445236
0,0516913944193409
0,0511518443369823
0,0467704296822321
0,0551258366401388
0,0484512448257291
0,0615893089315833
0,0446025667329864
0,0587668970034128
0,0440261103158783
0,0613362464999189
0,0472958645711518
0,0675534800928743
0,0438642174362369
0,0666616614661767
0,0382548229674538
0,0682393812615881
0,0344547577355814
0,0714551577330255
0,0396920475437712
0,079689808624029
0,029934657676028
0,0739774303525786
0,0333674443728814
0,0819184053614183
0,0296919004536852
0,0720152171318827
0,0287369897223958
0,0807554895043212
0,0359674518664395
0,0657648422256303
0,0405278426081895
0,0613836230465341
0,0479893296693926
0,0495230067170184
0,0594816729077969
0,0452131189876443
0,0649819540048887
0,0381124099539732
0,0663216105733187
0,0392735889623848
0,0650515447689803
0,0443327937062851
0,0569381751035932
0,0487416446460793
0,0509669106789177
0,0516701866591302
0,0467405762871032
0,0513761697085838
0,0501990730053551
0,0489216332615588
0,0526945785918789
0,0484305449432079
0,0535251493596579
0,0459674967551075
0,0539261752687408
0,0479465395943703
0,051635564135578
0,0467395433205341
0,0509455876266275
0,0484189556668238
0,0499473175663348
0,0474503187885671
0,0493095261710278
0,0490698716109916
0,0548603611915162
0,0477304744410666
0,0510844031999431
0,0496835570493515
0,0513909758765173
0,0475514716084455
0,0518795336185024
0,046863143324539
0,0501533505068837
0,0477989321208209
0,0479910843340928
0,0473957867106885
0,0508841389904941
0,0513043219815614
0,0531708657759928
0,0486556510133407
0,052214499495678
0,0482958269828469
0,0508781536061069
0,0507218991042391
0,0519676296119628
0,0506963472352591
0,0520806839932786
0,047933308561427
0,0530012036745036
0,0496976875666849
0,0498824434696655
0,0496833395316425
0,0506939794679827
0,0472432417959998
0,0514310709046873
0,051414707732574
0,0537578311879619
0,0499143105833705
0,0547369529925674
0,0514026957669255
0,0533390258117548
0,048946334117728
0,052738294923589
0,0479217391383724
0,0521087561605264
0,0498433551219079
0,0526037995064887
0,0478320662739865
0,0515988884012683
0,0500884188738176
0,0529746349913108
0,0487345034592211
0,0528444332638708
0,0514847468928243
0,0527230027776922
0,0496060627918652
0,0512588237208766
0,0493737576288489
0,0529418702889505
0,0513282010362965
0,0517478834526698
0,0503263326445475
0,0520391172757586
0,0499569632317692
0,0530535294356275
0,0490208564516161
0,0539403597931429
0,0501286702033398
0,0517980899870051
0,0501653039216514
0,0517061498303229
0,0505633038710399
0,0536143037106267
0,0518561284334646
0,0544390033676967
0,0508769212585661
0,0531532079286737
0,0514032142446522
0,0549764804146233
0,0508834516406546
0,0547800680293334
0,0500594981559019
0,0523398384572606
0,0550952399932734
0,0526380419835187
0,0532802858844072
0,0555863818113646
0,0531397537302258
0,0552995968152934
0,0537684800422028
0,0553208800627934
0,0527727054998271
0,0546701419917767
0,0536868336130027
0,0553384527182496
0,0525930749071232
0,0547339191467056
0,052931466722269
0,0556069213858703
0,0530520544345612
0,0549318274216886
0,0541987948108571
0,0588007502670255
0,0559253581729169
0,0570793750300077
0,0528086836851506
0,0560072566621931
0,0538350130056362
0,0571720310060701
0,0546866223257717
0,0568345006917191
0,0542579984334467
0,0567104272402486
0,0532195862365895
0,057654855597493
0,055378149830572
0,0601176908325298
0,0561105354574739
0,0580114322300033
0,0585676519977095
0,0571920737768591
0,0541792249194691
0,0567606017474271
0,0550678155854115
0,0588550899983845
0,0560064920183257
0,0595818023857974
0,0540250537346168
0,05759383933182
0,0550344311279491
0,0601342153510385
0,0563859002813113
0,0591168096344738
0,0575879271620887
0,0586779611733307
0,0565222085105446
0,0586362299118537
0,0588026384869276
0,0610574357391567
0,0581122127874674
0,0579323831343908
0,0573970396755949
0,0604908185694266
0,0599751597121487
0,0583529068999736
0,0587700373222767
0,0614555686996338
0,0572493764276027
0,0571749416671802
0,0588040046926319
0,0613641817095633
0,0572340398757103
0,0593171577893587
0,0592105043343857
0,0593106097340071
0,0568581812249174
0,0612253617937687
0,0601644385638024
0,0601283486743971
0,0577187371645469
0,059258703873837
0,056700998989112
0,0584732796354499
0,0567832782227406
0,0578746368371659
0,0562349895590318
0,0579586490896447
0,0568212247852727
0,0595449470866533
0,0571976523981842
0,0610813857218465
0,0544391320768948
0,057219200925117
0,0584324328620528
0,0587685830639357
0,0570612371415137
0,0583588469541096
0,0560999812079148
0,0587534847726117
0,0561970384979102
0,0607356159393481
0,0549965130946026
0,0595228208995678
0,0574557635270649
0,0551956166280237
0,0551209598865687
0,0587323108337899
0,0549137207336187
0,0589811491424479
0,056118421303421
0,0567479917854417
0,0556662241852144
0,0576836826916296
0,0568405898069858
0,0571048875879072
0,0536393707089599
0,0574265095714147
0,059424047932521
0,0580420664489429
0,0554708251635718
0,0570293441955812
0,0556591126420907
0,0557376184485353
0,0532362017905045
0,0580024469960579
0,054595645551467
0,0573214861210893
0,0548515322807046
0,056807979940636
0,0566812014914389
0,0580259966369095
0,0529127003797205
0,0555497335896734
0,0562338562960555
0,0551401153887654
0,0538615239453631
0,0577349803796141
0,0548788931774764
0,0568246959414753
0,0542191095288008
0,0552039542760375
0,0522614639862857
0,0550469582704885
0,0563884458704144
0,0542826024265279
0,0555995455898172
0,057199149356556
0,0520737896031874
0,0560950475510219
0,0541505935634949
0,0556925469834301
0,0544848598010606
0,0589917636256669
0,0539872420810475
0,0551692647816194
0,0554479358471054
0,0568517845863112
0,0548912480218704
0,0564054494164088
0,0530536989304629
0,0557739135047736
0,0522169009785064
0,0566936532424688
0,0568310781543043
0,0535077131635909
0,0543041231071662
0,0554363508198032
0,0525772345564746
0,0530581516610249
0,0509237829658141
0,0550204808127552
0,0535903481514692
0,0551897837637136
0,0539935835819507
0,0546789936283498
0,0538300702023995
0,0537428057257178
0,0510244869630667
0,0539570435144506
0,0547146779437021
0,0566889712552303
0,0550744191413039
0,0553828736698182
0,0521876670331337
0,0543551046760416
0,0543782087270055
0,0557138554029075
0,050382938788902
0,0557335538279415
0,0518593003151068
0,0548802807817452
0,0521711387009267
0,0534104899117231
0,0510371384272596
0,0522750689392223
0,049099778148759
0,0523780056430701
0,0504496604153728
0,0517024609745219
0,0490934302372237
0,0539194535499842
0,0487810352592931
0,049737392292538
0,0501144952281981
0,0517722607085615
0,0501286177549913
0,0520293788364977
0,0492255848604555
0,0528501015310508
0,050201470551791
0,0556346092498034
0,046058095325353
0,050771435653067
0,0429688305930844
0,0515897920996797
0,0494088558935613
0,0494899358776361
0,0485672878225096
0,0480930003511326
0,0487708816112764
0,0508967817297136
0,0484718921965216
0,048345197345668
0,0476785813826474
0,0472473884142333
0,0467715942654328
0,0494620356398309
0,0474463987698636
0,0462324958603137
0,0483695441282915
0,0462969695497948
0,0456310847362734
0,0476029875929665
0,0473115956138919
0,0488617126545749
0,0462555022894221
0,0477102059450007
0,0444900852831856
0,047924618473818
0,0462144926992318
0,0389664688219063
0,0550110002807244
0,0463056381938242
0,0453488287481332
0,044651243063784
0,0478787122640729
0,0444934247928014
0,0468032949335508
0,044197388689723
0,0452961944568763
0,0449072917954379
0,0452578293099808
0,0461018111507964
0,0446052298802923
0,0444073236603493
0,0443032980885593
0,0441649590097584
0,0463141347333743
0,0479551158170176
0,0456494491754503
0,045135255306224
0,0471333314266303
0,0435079811237161
0,0433733371029261
0,0458548487415319
0,0458944974406424
0,0398599518262876
0,0459121126939461
0,0505411787301622
0,0461750033303767
0,0457467074734779
0,0440592909337367
0,0436433013329247
0,0413315652256273
0,0473068781054713
0,0428250298803452
0,0456864073283245
0,043252855973763
0,0445137898916678
0,0402896000854296
0,0434120968456123
0,0432534877981492
0,0411748848462118
0,0417657082442963
0,044335270151849
0,0415535659103674
0,0458788146226808
0,0422884474810683
0,0426274768158075
0,0410737914619049
0,0467521669362604
0,0410988729930598
0,0440554802406711
0,0320769185635486
0,0602848708782058
0,0422797234836211
0,0463214614483577
0,0429858670464407
0,0439233120067891
0,0401693229895737
0,0453370855128373
0,0417402269164967
0,0449369996877363
0,0400639435260461
0,0427476363048946
0,0400403908410584
0,0449337263287074
0,0400993400673212
0,0435623631634221
0,0421553280458397
0,0434155441344887
0,0386671378205936
0,0418829247220781
0,0396668259888605
0,0390767498624781
0,0450618267401526
0,0499910590772821
0,0381033424268549
0,0489441310532808
0,0279121565497471
0,0480934733294138
0,0539101496303087
0,0363775236829074
0,0451330325414893
0,0394020838053551
0,044147098888657
0,037375230056286
0,0443022631583861
0,0345865696748665
0,0504674635359077
0,0377829947490163
0,0448886447171615
0,0432343146765262
0,0429056507584944
0,0416436303543874
0,0401179018122144
0,0410905903610721
0,0425163218268736
0,0431222744465557
0,041515390750533
0,0389121735713058
0,0406443466211953
0,0407678945601595
0,0404435518972978
0,0385710681693169
0,0502166351489002
0,0387220329253742
0,0425047079734209
0,0396906147885508
0,0412974320263745
0,0329082653558974
0,0560465373812917
0,0402403242020314
0,0421420304522956
0,040038975338955
0,0390984474624376
0,0417008766383612
0,0408988306723092
0,0426000485267029
0,0411354476845366
0,0430762305172261
0,039617010763508
0,0418411165614586
0,0389596043987564
0,0396659140054877
0,0388341759962548
0,042117685966398
0,0414970512359542
0,0454279764621961
0,0381944189249367
0,0429607672512631
0,0357109208883901
0,0402879664103474
0,0548103486324914
0,0397943371028246
0,0515062348375885
0,0416001070692634
0,0446740231881276
0,0376423392485333
0,0427380289874852
0,0363197505944503
0,0433555012272541
0,0383122086101115
0,0422523535627088
0,0408767386375413
0,044603927181243
0,0385160510760812
0,0436799414875632
0,0375986140053357
0,0435072238310728
0,0385768037726003
0,0417756300874045
0,0402685018939601
0,0436080417839876
0,0380395945292767
0,0411617424332603
0,0451611217475526
0,0401329944466555
0,0371194198837874
0,0230695748750756
0,070576916868066
0,0363240841428582
0,051643898788292
0,0381287448705273
0,0405862456700608
0,0395112061516048
0,0404662406483786
0,0434775302378747
0,0440733116831335
0,0371826951095523
0,0448669975795437
0,0422704535345703
0,0472772095763476
0,0356112688278176
0,0307773779556546
0,0547176553640505
0,0542640474363974
0,0401838081394434
0,0482825495919813
0,020815055922235
0,0615218373874509
0,0463813429064716
0,038997780525325
0,04433502289535
0,0404010677134577
0,043920324462031
0,0410875546839185
0,0422283782023999
0,0434599040804079
0,0468192717353294
0,0392055032512494
0,0446688245898027
0,0394289715378121
0,0437722374537029
0,045450782116029
0,0392780129562006
0,0515081217341074
0,0401675712224806
0,0395038739114634
0,0490017289491568
0,0395333268827062
0,043127064503089
0,0432763316263581
0,0427327117314293
0,0394241865451471
0,0519667684510423
0,04126863786985
0,043551650810126
0,0531747839648024
0,0443833482357271
0,0450619020365667
0,0529226421712692
0,0465249471927473
0,0473255232042029
0,0181720192561721
0,0750289341336809
0,0364084195345942
0,0631064441122239
0,0459330269979171
0,0441168668065932
0,0446432874537249
0,0451560183995572
0,0365412775768122
0,0451692849803656
0,0584619947631018
0,0394798143170264
0,0555260502703632
0,0319116095151812
0,0666529386065732
0,0461594685277607
0,0547272864980159
0,0467203922107681
0,0469759872338101
0,0450846405814917
0,0607812593415497
0,0233622312672046
0,0579468653333714
0,0568358655056975
0,0525430587982905
0,0629988895214508
0,037105293479274
0,0558359397173663
0,0630832972226335
0,0446631773750553
0,058000580143568
0,0429958805426671
0,0551427632085405
0,0341779330597578
0,0720440517797571
0,0627687907912224
0,0463571141342742
0,0560825613989475
0,0471787336674998
0,0525662060038294
0,0701857523165026
0,0475953834116947
0,0560821064861507
0,0508180963897287
0,0480448101333828
0,0312826006304521
0,09297469969337
0,0287782483891899
0,0851210328176789
0,050942284087553
0,0736879427401284
0,0544074674615974
0,0636851863695757
0,0469510097880001
0,0756945761375145
0,0608137028893736
0,0580856518642133
0,0379766227958887
0,0872101860983893
0,0597922810711698
0,0668843943128142
0,0665643295168559
0,046613097543673
0,0463382398120122
0,101223607692433
0,0790159180126701
0,0759867922491601
0,0579356768614167
0,073833129345343
0,0808304037706092
0,0662858839191757
0,0786172420525658
0,068736939650602
0,0722434676127363
0,0743211573056477
0,0743522394205087
0,0802676054181372
0,0702305541282623
0,0857714556609564
0,0634228175509075
0,0778343425006635
0,0838939180844334
0,108496992505615
0,0828793041250227
0,0787290500993657
0,103573535762619
0,0851329128544671
0,0916593507902446
0,0815701278360386
0,0864251106811601
0,0946780619704788
0,090491193723237
0,0911124780361985
0,0821004180823449
0,111716417795163
0,0846268152826541
0,118401604944086
0,100389563721987
0,0947457102470352
0,0614591134314368
0,129689867631059
0,149066939790279
0,0939003666283263
0,127617964398602
0,0765161900759921
0,1566802428877
0,133734344939668
0,119755103778174
0,12266062231991
0,128058540228205
0,124007862771582
0,141710153175901
0,136623678243334
0,144649029458705
0,14839488768102
0,140436758575537
0,117033783535513
0,202634139006344
0,187790270297294
0,18282765657744
0,164672488964564
0,17506988627326
0,184178313518214
0,184177648235801
0,17635393266111
0,193904085884572
0,156445439510775
0,237538826190839
0,208661781624908
0,20237547198356
0,204127670550874
0,214688188512346
0,232818962310835
0,200738807769728
0,26617214030161
0,227358880465177
0,247534317494535
0,234974306995315
0,246471295846407
0,235480931065066
0,256668646864066
0,276185693120571
0,26187451537891
0,265422003732456
0,265181799370486
0,274016689105322
0,274141846909895
0,276255226364445
0,274542708686375
0,258722286776022
0,315323713104874
0,274449329646772
0,326416598105605
0,286074472895457
0,297030861744687
0,275332589971241
0,303967076968497
0,312565679259493
0,28876903083881
0,32135289591819
0,295067718032727
0,300621717753243
0,29913482705955
0,294080955355911
0,304963174433113
0,302019084095603
0,300619570316104
0,290225197743852
0,324250848426386
0,221434126857843
0,350999121906114
0,30989818640648
0,29853363889354
0,296290705343149
0,301394117281729
0,293997694849782
0,29757555223148
0,284478427294904
0,315236996645048
0,295430931399768
0,284885268157547
0,287531841198876
0,2823462752364
0,317672649970476
0,281980416368529
0,278962186790508
0,284015003983667
0,271405901457305
0,278481391118821
0,252103379824128
0,309236295467494
0,285236781075664
0,269121843076698
0,274444837340005
0,266057720024311
0,266522958433242
0,264921289013379
0,266529906014879
0,266958088502567
0,266648477718427
0,261387689380988
0,263090825282924
0,254965810523551
0,263840195969681
0,250353817583559
0,261775327947384
0,252263532104854
0,259498044642248
0,252567801765315
0,253358014297549
0,252466205813029
0,254812127323783
0,254951134578491
0,255273647412779
0,254347754748714
0,25463009637247
0,24718333397407
0,252077212549365
0,246562391504111
0,251817459337082
0,246721252142323
0,249285886393559
0,247818585899805
0,247551563657771
0,241062460395656
0,246881068429994
0,244334472542537
0,24108752527987
0,238996779324665
0,238412210638368
0,238506106103686
0,231714477868896
0,232146781100153
0,232752655902404
0,263429034379556
0,233137524413616
0,231929963176176
0,231401272990659
0,228574675472288
0,222620786390634
0,21533772657968
0,251511906444814
0,217096841170954
0,217895709254789
0,214379762594637
0,211676905878411
0,221003143475924
0,210178153292502
0,199894397525028
0,209300481884888
0,15786401621811
0,256100651353863
0,175130449619175
0,256420253981197
0,21036942732797
0,193302476074647
0,178789725609589
0,212146224797956
0,204421333935284
0,183637597150364
0,193616241133583
0,171578019042054
0,205822685494703
0,18413450602292
0,17910157350856
0,177737758367368
0,176329525942874
0,202630752839248
0,181601606810657
0,172788108177296
0,184414349383623
0,191747690753353
0,154225607389632
0,218161954466459
0,183362640082336
0,176273462663791
0,163441075382254
0,167204430329127
0,155408018890328
0,169225427717038
0,181421793671152
0,158598333157935
0,167221384816535
0,150420516070826
0,160930000858971
0,164853201685705
0,158214237855721
0,160335193786107
0,162138668292421
0,16840081734215
0,131591503418305
0,174970736557699
0,154265655129196
0,189739059592136
0,157175647828717
0,14931886033173
0,139420317384242
0,181218731213183
0,161284570587058
0,152752136424415
0,149396527709511
0,14588606362788
0,148630362818931
0,152952163761305
0,130950956406961
0,161583735183658
0,139935962124659
0,151546635692252
0,161614309782757
0,173308121591514
0,156260618671372
0,148173343707181
0,142763712105941
0,155639273083079
0,141165798855179
0,150603990735176
0,130319837297927
0,164487487523108
0,141044940830346
0,161424532451258
0,171070939416878
0,151459246929791
0,15839885884099
0,160518138372631
0,150223842124456
0,171865711902494
0,179077969063452
0,177341188585898
0,163403904919978
0,181360463854227
0,17915230695936
0,174779515897701
0,180070443266734
0,177018031874291
0,184421540859679
0,191944558730205
0,197737808755579
0,198572922803913
0,198002082667816
0,201298084241219
0,205905304129746
0,221821260821066
0,223503275657804
0,206407502383423
0,257401103369089
0,232546857063787
0,257023174662109
0,239884089123196
0,246953412252966
0,253123585686787
0,252699063771791
0,257151970621821
0,259005110391278
0,275222257063631
0,281224183575639
0,271851566633215
0,281009157615545
0,272086232198088
0,290103673185115
0,27967624169323
0,305295369764292
0,291562027592797
0,322042546956081
0,308399332147072
0,297516445167267
0,304239642207028
0,298165968920043
0,30620551189092
0,30124542783045
0,303239112579249
0,30515310380317
0,307629770745793
0,320966148846123
0,306087044857231
0,309903301481531
0,314865491708492
0,315853118880597
0,322009177241542
0,317319257278477
0,326260087034053
0,324703902393097
0,324682607524413
0,325157616459607
0,348338901556587
0,353665830768701
0,337700910104344
0,344221170405636
0,34772508000411
0,34681410444243
0,344795213503192
0,358726415555529
0,364863085161605
0,352861866576432
0,361908160110573
0,366949989806172
0,358085004561306
0,375960842157603
0,375138548871624
0,381772653508877
0,364398714993307
0,375162824795762
0,375715508028884
0,402458787571505
0,398500096855682
0,379196599525092
0,395199374041366
0,3811429624987
0,395022782976556
0,382904166650068
0,395972749628116
0,387592832112546
0,397705847887341
0,388348045296833
0,390654156940777
0,391090681132655
0,39341437712072
0,392622468812152
0,396788141571799
0,396863993292454
0,388560217446979
0,389679464982147
0,386772137773782
0,383123301887713
0,386587957917891
0,400587457801871
0,391536849906201
0,378203250582592
0,38880040240211
0,396247179811425
0,395607209169416
0,388793877824743
0,384803476887177
0,386200211825465
0,384604413061485
0,381940699614817
0,391245655379986
0,391940274736451
0,408179471473398
0,39325423226058
0,404145860994764
0,395560597432976
0,405815825025192
0,400577249604868
0,406830501759427
0,399611026671035
0,419368703883699
0,414007147002671
0,415619701583197
0,414045554865019
0,413730382532432
0,421991616059937
0,42752842815307
0,416790477530829
0,41826214069931
0,416537277936637
0,419379999964943
0,411832440626228
0,417544237193952
0,405360111547348
0,409698736532264
0,390505071686732
0,40932522241662
0,400861165806252
0,404356724513376
0,39137815064166
0,39331018614455
0,383591929983824
0,387622998194326
0,384711925487511
0,378815830761089
0,376725303236832
0,378975362365816
0,375753458855386
0,370418010609144
0,366541758006322
0,372655829898289
0,366939298266717
0,368214364523811
0,364250226964282
0,367741678234502
0,358903082235585
0,365145915498375
0,359342587471378
0,36421265511452
0,357447131912248
0,361709605137602
0,359466001542392
0,365946083732157
0,36238492967419
0,363316925105843
0,366895207818707
0,360757847504932
0,359305419470994
0,355668693635063
0,363127785429369
0,353679898858038
0,35676107818834
0,35630035527351
0,357532954256536
0,35388001829876
0,356034059345436
0,354915032829349
0,354214563013554
0,351730697363175
0,348289742789192
0,349524242550387
0,350737843436868
0,34809840501543
0,346372840532058
0,350933778288702
0,346542310680724
0,350296439781155
0,348648945974934
0,348325408433224
0,344734570061481
0,350611972323073
0,348945014877169
0,343923814280902
0,344280859405847
0,346082007647011
0,347086476612491
0,345797880609498
0,338078899257716
0,344197511309312
0,340425912995046
0,341455713015231
0,335552202920048
0,340467501034232
0,335262397542213
0,333983707832056
0,329755966553988
0,325466049159174
0,321564629791895
0,32333743597494
0,317897144053066
0,316150086433874
0,312329025269155
0,313160629582611
0,309566331758331
0,308659040406654
0,302305382111178
0,30157492655606
0,30450680064384
0,301724870631878
0,297882641183593
0,299492131724529
0,296199030167945
0,292740416100424
0,29349886024892
0,29614200933182
0,292459974092831
0,29306592747358
0,294995863010946
0,293003904409261
0,29386803741971
0,295600802270102
0,297277151563872
0,299269660006761
0,296208799747246
0,299650659926157
0,297909694569413
0,299998660125825
0,30039580636972
0,301039484733807
0,302080305508775
0,303691973020167
0,308345307105457
0,30909767239268
0,310610963078689
0,312831486536386
0,308780512253805
0,309002524429812
0,311697267250117
0,313062324345464
0,313367623629295
0,311649376309124
0,311634924718282
0,311753583425446
0,310546538516585
0,313555776022073
0,311582824445391
0,306902610799098
0,310326240494416
0,308476689404396
0,306418616315246
0,306945973212153
0,301440823485402
0,302503539880967
0,302629403878799
0,304963204403628
0,300892632229387
0,305979749709865
0,29691931920291
0,298946118108512
0,298926777636409
0,299728777979073
0,296119373504718
0,294886175125583
0,294349321670833
0,294657364576321
0,291290127735647
0,291815949714129
0,290393351355915
0,287265617806428
0,289026877201451
0,289067909551478
0,28524044041444
0,286495837451528
0,287819281108171
0,28371274545996
0,28207362071832
0,28174235112761
0,279202945572064
0,279244860513051
0,277376358521059
0,275239285275459
0,272700382484069
0,268980042669148
0,268994225179971
0,268281302706915
0,267857108023008
0,263878391427549
0,260489143386794
0,261177925820355
0,261649752658014
0,260313750989804
0,256945868897232
0,254774424089751
0,254015611165282
0,251728456890742
0,25054914540013
0,249038608060021
0,249832955212004
0,249994727647104
0,251094818813625
0,248829584984514
0,247637618441054
0,248546701692646
0,247004831313415
0,246964418482781
0,242555435295518
0,241060907426337
0,239382318419077
0,235144080212608
0,231440816996812
0,23069067876528
0,22533547976079
0,224008798897613
0,219433182004432
0,21517672218767
0,217248524547547
0,214235555795667
0,214174620054415
0,214055391124685
0,212854894130057
0,219464951944348
0,222063784813115
0,226857642062635
0,233129084839867
0,237142493472827
0,242820926741816
0,252298190510089
0,260462973276295
0,271990382656067
0,280793223929619
0,293550306293302
0,304878609200951
0,318518861652633
0,324609767707393
0,341203950528302
0,352479967623097
0,367052250319934
0,376111863367776
0,392738898947734
0,405692604371384
0,418100575131226
0,432660667966963
0,443679086224255
0,456750054460133
0,471975087429416
0,479463135352453
0,494774504346824
0,506953396766974
0,516383206509717
0,524599049304737
0,535600049413014
0,538512666150615
0,552998579649479
0,557548585409989
0,566655164392118
0,568068991536911
0,571359797384096
0,570488589914938
0,576645110473143
0,572057930945822
0,571285837347266
0,567519459941211
0,570969701219086
0,56400051898436
0,568342639583814
0,562823830152762
0,562533505471506
0,559462674123999
0,563110120359758
0,56150210536023
0,565903897057933
0,566392678325452
0,568210397056354
0,565862481050032
0,567385922507922
0,572390244696038
0,581367699109803
0,5817865582453
0,594179162786699
0,592558056256806
0,601511846304818
0,613474507932159
0,614398179084782
0,623811786841875
0,63258012276109
0,642912530523637
0,656004570611761
0,659633487991655
0,667152412564442
0,66969962553187
0,675394449711538
0,682225327083584
0,684580813146944
0,694897569658843
0,691628988580104
0,696844273489858
0,692324040345992
0,693620306970264
0,682704055034039
0,683283549240762
0,689493265623895
0,6828975747051
0,683252980729739
0,688672896899912
0,692667046433259
0,69801022485144
0,704971501194073
0,711065378779776
0,723200888924949
0,725302325390648
0,733325562672447
0,741094547908912
0,752401705885817
0,766112971199278
0,774968764173074
0,784273423257092
0,796905944308129
0,806519450354538
0,809145569899246
0,827073527758664
0,840173491520819
0,849957115990091
0,866461132162081
0,867451027902197
0,89931974605795
0,912977931588492
0,923832136232237
0,95438465283347
0,969999869139443
0,990987610611949
1,02329707024649
1,0276458884876
1,05179872135737
1,06662220514215
1,09848017515997
1,09414467586417
1,12218201138885
1,13789342785881
1,12450894060235
1,13092753260015
1,16212421287164
1,15259453875869
1,16016475016893
1,16594639758963
1,16982595752113
1,17443643310689
1,15284609568186
1,18539990348341
1,15535625559406
1,15053573278163
1,15761625873384
1,14128127014707
1,16641060766399
1,16571461076864
1,14590884175082
1,18765929572094
1,17091708250374
1,16209312202211
1,16640632881574
1,1901462876723
1,21269631592564
1,23095659181805
1,24925080851834
1,22925754597428
1,24579975989209
1,25861011041285
1,28767180336892
1,30970428712948
1,31975958874403
1,3646315359178
1,35317770216214
1,37639302810211
1,40722400310776
1,40716996246667
1,42568053797325
1,39325807636501
1,43249327733438
1,45788090416089
1,48554279721093
1,48387977717836
1,48443120410008
1,49024506621826
1,54494603874511
1,52066599289489
1,49420083806132
1,53752929140124
1,55258482100272
1,56130483974765
1,56482098209273
1,52031375908857
1,61688507618247
1,62220681438517
1,57789116955823
1,69377000671976
1,63797041529716
1,62864354264655
1,65538251643455
1,66102411092173
1,61858010012271
1,57677579195607
1,60629626552209
1,57453925290782
1,53936168358318
1,56141698375165
1,52932768608308
1,47593154158762
1,44481561313241
1,39066077081249
1,36568815484527
1,31224485795686
1,30799532666808
1,243014280244
1,18968571646517
1,18404613287649
1,15255440604834
1,11874658087987
1,10808837202748
1,10745620855676
1,08523718428064
1,08303994538355
1,0717221253231
1,06655696292533
1,03266164550632
1,02978476659619
1,00197860641733
0,984785301729623
0,980623047163892
0,962852320277112
0,924950853793224
0,899892826391371
0,869060332029374
0,838249778713654
0,829869363134152
0,795094527707871
0,77265469206087
0,730631136664119
0,697052140781361
0,667913739583916
0,650472147121893
0,612085204317409
0,584504676981479
0,548015790990585
0,526034873564
0,4960266333088
0,472757886223359
0,447909859839396
0,415883999317429
0,400342408683082
0,388445453960767
0,372270743911055
0,354747884658015
0,342068808079408
0,331060588461667
0,317848794289583
0,306446172669166
0,298754658349729
0,290721228131812
0,286427951323882
0,278038302925539
0,27718279157005
0,270828683421161
0,267555715476195
0,265448926903261
0,268994151740672
0,263199215959765
0,264256119399549
0,266598450718512
0,264520054978163
0,269739409962432
0,268363926258859
0,270473987972324
0,270449759183939
0,272688254197582
0,276253832826535
0,275697863393988
0,278446558472796
0,28071654356346
0,278327575865529
0,281438453270288
0,282994794024906
0,279636626490881
0,281565205828162
0,279119891692887
0,273015015259095
0,272747356472373
0,272345581404435
0,273421730041359
0,276472546794257
0,277206248779266
0,270057036311034
0,271645030682331
0,274110414816543
0,277107134336782
0,279621626344709
0,274998959148462
0,282845222374837
0,285482064760723
0,284830014019395
0,288990489944722
0,287754549861366
0,288151686237661
0,291120033824293
0,288359478020401
0,289014332679454
0,293994010797939
0,294313383079313
0,291732376526147
0,294277435675297
0,293622910679775
0,296011671909683
0,292655786544815
0,293497379705255
0,289511696739962
0,29262842814756
0,300345700096706
0,296423885248151
0,294104160344013
0,302606663326019
0,303620909179432
0,308933210772446
0,310117396999916
0,315509043815469
0,318758931996002
0,33082805678122
0,337272952704954
0,341921251396701
0,355329523173755
0,356383350380408
0,368776195943077
0,377763195640906
0,377550136445434
0,382669085333622
0,380138860132273
0,373356864962271
0,374355084439916
0,369387887726208
0,369123734037669
0,362708608380476
0,348584256386912
0,344072127746476
0,34367864601999
0,336139221716008
0,330498699648307
0,330261927337818
0,333177924124255
0,332324720717918
0,333462358334008
0,329162565939918
0,328843656218888
0,34183771203145
0,336901151617492
0,331582660372032
0,337471928189169
0,3332487341207
0,322706940708213
0,329941477447175
0,324555528131487
0,3257332146839
0,331386287466227
0,320423334526398
0,31578123416823
0,313681561305471
0,315884756622161
0,315897986735145
0,308250470051015
0,313975422294687
0,306727029543502
0,3022682203809
0,306531511406059
0,313694696343953
0,305711427367905
0,307565251140694
0,309388562567693
0,295346592094223
0,298013052819752
0,307459610159136
0,301919661324811
0,297750090911761
0,294833699463692
0,297041231657889
0,290026212240172
0,292900932492797
0,297450370834023
0,292941732495889
0,287217650037654
0,288809390375684
0,283059017766776
0,284584521333311
0,273193846099366
0,278454330851966
0,26654897852581
0,278793508366668
0,282997916454477
0,274990237011172
0,275147578604473
0,257850756824644
0,270412731479474
0,274397910397173
0,264207412618614
0,268775271825593
0,262453576101645
0,268322771260739
0,26931412882855
0,268351998012189
0,268790516956467
0,265837397838157
0,273270595139226
0,2717474411126
0,264627666058431
0,271775265874684
0,273930841293924
0,27942825669885
0,277114912611913
0,277124595111734
0,277653090503553
0,281012578634406
0,277455274104181
0,279015398581676
0,288240415485059
0,289668841756846
0,294324562926864
0,298891328901398
0,278022700137693
0,293807532896589
0,304123044630905
0,309777024664885
0,297944432540252
0,313815054935163
0,316317228934042
0,318065795713847
0,331233298546159
0,32878027832052
0,346357951712842
0,348668506131295
0,340644067714387
0,364827119233403
0,363052613878433
0,386374307222268
0,393047544205819
0,399780430353048
0,418879880820834
0,421176879977861
0,415081596914128
0,453726180133001
0,451390810807829
0,468948116305338
0,475889757744303
0,473007790564001
0,468461998612725
0,493162289191019
0,47976151852944
0,46440021724041
0,466925586725637
0,462180016896673
0,476935179223549
0,480969873413841
0,464715667458582
0,466830460651262
0,45581936293233
0,486066531009932
0,468846692882441
0,471231977165386
0,46394248743352
0,458831170266941
0,469998042807348
0,474877964881469
0,474065826768993
0,473104715891665
0,460705445810453
0,467899324446508
0,470469113759205
0,464795477939933
0,457055525927481
0,453445312640493
0,43220121057023
0,437713901007625
0,43977473737591
0,445994114281174
0,440322344418809
0,411855211188486
0,412368786658757
0,419923440508085
0,398091339211432
0,417859867064523
0,419956733905963
0,424421672652109
0,405406832879954
0,42274037493615
0,410943660875635
0,425204509710584
0,422367464206474
0,404936319311716
0,426468567665667
0,442719232080732
0,419670195017833
0,43818019832653
0,442279159296669
0,436104160503366
0,42450988735649
0,428881689959673
0,413499818394613
0,443150320084965
0,417018268043624
0,428704653963032
0,455596263371103
0,454500785862232
0,436070037367596
0,460725310025218
0,44956795433177
0,473997906888114
0,451228497456496
0,483792359274679
0,4890500292576
0,456757208233294
0,449315860529472
0,456901241941663
0,448418087196922
0,456853687784119
0,487770297539445
0,492300388494607
0,502830102550168
0,547288449600007
0,519670832829364
0,533687821409338
0,536777959479784
0,526888022664645
0,533553695367076
0,584197961157085
0,575059062231573
0,602916158244554
0,593927963026971
0,604840615914709
0,625174601014875
0,664367488130609
0,630479187863771
0,584178197533169
0,581857908933702
0,600668539343733
0,646843067066996
0,672378322507119
0,55905083076159
0,59572632707785
0,528037814550608
0,575886229285111
0,655656775346343
0,528470955213514
0,513157203026607
0,578083291047626
0,54672083100724
0,540138014391601
0,566276050528504
0,569857600800517
0,551644232356487
0,54746733737133
0,458616423730864
0,5557392342109
0,736952880337966
0,677708484468012
0,586862205351558
0,495291887118045
0,481565766910811
0,665046004606339
0,569637872155743
0,574568323905502
0,590832059725671
0,703959204128722
0,584357676788112
0,527282253008816
0,593996215532946
0,803159452971363
0,555245130370543
0,559654493196792
0,717673842060906
1,08090279220652
0,579282281960008
0,749132937771298
0,660657957445761
0,645392992060175
0,613534626327283
0,896299315840576
0,785409486219234
0,518319060070036
0,524668254965982
0,661803915191442
0,954537453114873
1,07309085290439
0,653467995392494
0,679697232231272
0,784325528776929
0,632958006755358
0,487114013486586
2,46951908888084
0,788173544841395
