3596
4000,36533379555
650,420452594757
1
2
2
0,0569721314689607
0,0518889097066727
0,0597658636089519
0,0512694118670712
0,0487274183137937
0,0533613127590018
0,0578112256035695
0,0569037157128115
0,0526546616010835
0,0544339543116587
0,0648081717975201
0,0587420287005633
0,0523941357680728
0,0623039567319281
0,0632781149858132
0,0514503010478473
0,0574932430136949
0,0576372481535873
0,0665155065149223
0,0582426699229858
0,0564939370818973
0,0516465191575278
0,053478104205999
0,0484353932023791
0,0563857161503457
0,0552444952849244
0,0515958594552551
0,0476707114866939
0,05738134401519
0,0582205591345792
0,0549371664743344
0,0545289904851592
0,0558991621326273
0,0572638706861522
0,0555901113526562
0,0563039420643344
0,0537837417047066
0,0613134549098862
0,0540302329124851
0,0486761756091924
0,0648140045329665
0,0588014232414628
0,0546145983196774
0,0512531641128893
0,0522880704924797
0,0558527553317492
0,059236315759471
0,0540983780559803
0,0576476929163049
0,0582430908829694
0,0587807630161239
0,0504240074874595
0,0457057433811153
0,0562934732959176
0,0646733873244376
0,0577420041306507
0,0533971457922893
0,0548611814325336
0,0480852244248546
0,0510500556097442
0,0650831156532088
0,0691033746952558
0,0620072525166518
0,0489224322060062
0,0525128309953194
0,050117157737835
0,0635855349819477
0,0479563234109041
0,0583558194332269
0,0477362629211982
0,0512426174043418
0,055699160399883
0,0664979004684896
0,0546836590725211
0,0556964081624258
0,0501993524115002
0,0531314617573532
0,0464306562110475
0,0395059012815303
0,0461153317421189
0,0762770917001566
0,0614756303331718
0,054953987306391
0,0465687149569615
0,0588467565130479
0,0654829623783617
0,0465174752439496
0,0426603384899917
0,0631476543911789
0,0590925228100291
0,057321769698143
0,0481593666368777
0,0525817644181849
0,0469088021854569
0,0549363932377589
0,0414900391959831
0,0531029120793174
0,0603188459281077
0,0512859485162665
0,0566661633901237
0,0393525116908117
0,0707202309645066
0,0722307643537044
0,048098535098663
0,0489911849093212
0,0534690000477927
0,032924838267585
0,0671645194727366
0,0725769995641611
0,050364257176025
0,0545324130543996
0,035928865284283
0,0591191536198255
0,0596480311506528
0,0420807165194947
0,0478064751461265
0,0773716150583656
0,0572846982801035
0,0489621373003012
0,0428491185983084
0,0349038275429977
0,0617495980439728
0,0629930219871822
0,0568455542271332
0,0569755620007127
0,0394326116586796
0,0305103508844326
0,0839207679529047
0,0665445416328972
0,0648472262204031
0,0442999128771577
0,0558908341673757
0,0257957561875225
0,0448350464230876
0,0718558268787741
0,0693482284402843
0,0467070076283728
0,0297921010148268
0,0513817988147306
0,0847992541211222
0,0752197234366007
0,0484688687415921
0,024701148015585
0,0417591810614476
0,0688220269150798
0,060771048782655
0,0403929075260992
0,0624463102938496
0,0521552246347584
0,0545095435292448
0,0374861484338481
0,0476974290184059
0,062142784668296
0,049992628049593
-0,00477321797042205
0,0807733346523166
0,0598599642655683
0,0834141729923907
0,0678354140345634
0,0777500194088865
0,0384373747333511
0,0607431839015099
0,0490944068125401
0,051527807064801
0,043035470451846
0,0298157203310509
0,0565027893680979
0,0694017127805636
0,0501382883823513
0,0443014261772799
0,0721026765851081
0,0428381374370705
0,0344561054377964
0,0919413610110087
0,053797860214534
0,0442214274468136
0,0649363844616176
0,0624426099677475
0,0342070514925047
0,0662491409294383
0,0583249637976897
0,0562644551107369
0,046172359322856
0,048448787688584
0,031458702557526
0,0725959810522993
0,0531953202055268
0,0625155016166398
0,0416312972557226
0,030709452154363
0,020841655894834
0,104006851226419
0,0620725323996841
0,0684358334941442
0,0377412304906527
0,0205174001069343
0,0693357617408612
0,0897682210350147
0,056366452233676
0,052086509263366
0,0462274217000225
0,0551134011398175
0,0437159207399864
0,0609422976720252
0,0286253825583486
0,0318698754646773
0,0577747907271987
0,074118696173352
0,0468867447450912
0,0505696222115824
0,0338261110593032
0,0205440805792636
0,0876151033487061
0,0807883372884728
0,0569219653419448
0,0466705947373855
0,0377615831757774
0,0674256662501869
0,0561162406421611
0,0546354655922921
0,0522135455740654
0,0570856749207031
0,0521748825339519
0,051142421868836
0,0465674345054299
0,0578709961226532
0,0455643285819657
0,0565063856024471
0,0455022341979606
0,0509650085329787
0,0617557334381225
0,0561751431059916
0,0444459315834011
0,057470704910347
0,0371101832409775
0,0643101465750078
0,05749027636782
0,0652066755169838
0,0442719209071172
0,0530639092393241
0,0469944525718865
0,055630876521251
0,0423567847518787
0,0613142990582907
0,0356823164065137
0,0559368232790863
0,0634419795894764
0,0749586224460613
0,0496860748448978
0,0390192703661647
0,0596987997014137
0,0610067767793063
0,0545809979264828
0,0451122556305194
0,0583611232216077
0,038308242664339
0,0287788492785925
0,0788000271263129
0,0604033580545897
0,0398531965371616
0,0638597965144339
0,0623169402435583
0,0625484514237613
0,0282926611507416
0,0343082005017203
0,101933252655823
0,050127129763092
0,0552463826187123
0,0817140142515083
0,0707707254459021
0,0606255257705836
0,0326364234980491
0,0126917718971508
0,142356754901179
0,115785712877496
0,0590724179186913
0,0431636511143216
0,0734113388348508
0,0499711132520984
0,0605516754489993
0,0401432992628362
0,0793045255426635
0,0442280760933082
0,093617133724362
0,0744267498167125
0,0475390337404858
0,0778213346121685
0,0791993565023836
0,0625163213147254
0,0544770693729878
0,0614269426530621
0,0401463403967083
0,0654338586929981
0,0590265334728704
0,0801345321187585
0,0472062202656835
0,053156316489409
0,0722810027367005
0,0770834772805015
0,0509322842304769
0,0620589107761039
0,0665531865129453
0,0646419203058135
0,0601149894131317
0,0545643180265772
0,0749609061755197
0,0425884789286083
0,047811335842329
0,0966392331609396
0,0611137262701662
0,0600402825989503
0,0831740775521409
0,0705180037260144
0,06672427009058
0,0625940319057446
0,0581442097246479
0,0691047592808247
0,0547308360909924
0,046378752908455
0,0868090816008401
0,0696530101690309
0,0738197122840252
0,0646155238637258
0,0711407548189655
0,0630157824101538
0,0719847673673719
0,0620352538427535
0,0740352200892252
0,0671545994252949
0,0487841853434384
0,0777626817708205
0,0998483546256748
0,0447233620484084
0,0990014982431024
0,0852214848706001
0,0881335647377338
0,0670269599488605
0,0853317612549346
0,0704506932567199
0,0799639568233162
0,0716763563484545
0,0794583238245488
0,068679618066307
0,101566591368484
0,0799208777281016
0,07962225826792
0,0548016301230736
0,133609993869979
0,123109377165967
0,115413915245122
0,0825028500057385
0,0568359636488323
0,112384889708332
0,0797128168209842
0,126567554326689
0,107322215336452
0,0950549623506849
0,0971055790580005
0,0905108750802262
0,10162676813379
0,0946918367228276
0,104949282259331
0,08804870086354
0,110040513013414
0,0956468863674307
0,116125476287592
0,0800235781267381
0,11119226966762
0,133599554444162
0,120434545803829
0,111480553281535
0,11480609649895
0,0892445372619699
0,14666134799772
0,0942565280052795
0,19536408237484
0,0974301380474402
0,159050659904978
0,130548077687997
0,135856787045516
0,117207472291784
0,128745097988518
0,123445055151262
0,14023781243631
0,12291195073112
0,149599919564456
0,125674778869311
0,139764468325621
0,132844999255177
0,151034452393478
0,132024066067902
0,147657053968104
0,15952967750933
0,158622986626793
0,15494801685771
0,142643748305042
0,147624756944942
0,19012992146063
0,195587291338393
0,167880071375154
0,16796205933674
0,162305423850203
0,17531497910904
0,170943753676078
0,174372142738912
0,174449058784719
0,160717197786828
0,214878567213423
0,161624780741774
0,220743893577716
0,195025747048728
0,183498351204993
0,201047239730497
0,183480786577012
0,185786923831187
0,230785698372821
0,201465088851078
0,177761333048998
0,233891523183263
0,202366627559885
0,218337115114589
0,230794176258373
0,206675320642448
0,218170075495136
0,202440366157817
0,233557857331232
0,220473742947394
0,25139768834688
0,236842611278483
0,248162194045983
0,241374166804715
0,258255454670968
0,228346741861235
0,271899466497148
0,227575816821513
0,276520791794333
0,253126431314436
0,273330326574754
0,259791848854796
0,238581003518977
0,288727330311115
0,270224411384842
0,290553420066478
0,299380415737422
0,269290744270707
0,286679363132948
0,268155623566844
0,315676157278661
0,285302407309856
0,295592333841736
0,296287101452377
0,313140824600896
0,305536348483568
0,320608660441857
0,316156764141663
0,330597679155489
0,31051705359214
0,334735520743903
0,320360314945166
0,331370558917685
0,32081986652941
0,33599544313152
0,362972423126656
0,345336445535188
0,353487746909297
0,382849498017423
0,337295994591128
0,379005864465702
0,333334423944315
0,375604009099549
0,332885365929498
0,373839076820843
0,363049951207074
0,398812115862126
0,378574536075853
0,413266396424642
0,364210576748301
0,432475427853294
0,38778253200431
0,419005062503051
0,395814076513557
0,417129554465206
0,392304276205455
0,418536479501741
0,402267339519632
0,468750470792124
0,398662697184963
0,476764754832496
0,43401762375979
0,465085750514825
0,41374852176312
0,432807288774408
0,440358674483805
0,472725713526325
0,447647121600127
0,486552038443611
0,465747469107208
0,488680915193136
0,477396309462464
0,504132422350308
0,460213513430425
0,512613932731014
0,45726094661928
0,505739455545611
0,487006238332864
0,534102391013435
0,488375098054775
0,536217700150381
0,495543491363218
0,514768617957447
0,502086815552919
0,578313469520001
0,53199249686202
0,53703701120798
0,535831305293679
0,569188489997835
0,517422321656072
0,589131810760932
0,52869770021592
0,580623764787284
0,523719912501124
0,594213301135084
0,569373291672373
0,601806532039481
0,546213284257186
0,585681317299612
0,571700158061218
0,597347560780398
0,567147959100787
0,621484302716091
0,590518817741647
0,622776767103868
0,56705533141994
0,650224879109739
0,609358174994969
0,677790289001551
0,594137806010703
0,632809759543581
0,615143675304982
0,644684683354914
0,637928636897119
0,645535109981677
0,653346738941124
0,693278325304246
0,623048142152618
0,699618264757399
0,655482919808139
0,682344640154352
0,672618914282397
0,721227751923089
0,668224370755108
0,733682818958075
0,665605736222826
0,721334025459196
0,6932236622584
0,750408024940917
0,679675701922219
0,735563153827123
0,70695127114778
0,730159757200118
0,698270417203938
0,761391421279455
0,712910312744953
0,76570478175384
0,71143571542176
0,754359927367105
0,739564521549317
0,769137210014846
0,691285633993174
0,783892174109137
0,752604386079419
0,809891938959911
0,759948572988939
0,784137870349301
0,736139039115028
0,855244677865634
0,801914109615807
0,842508255450248
0,762274748816558
0,816646101030234
0,756631584307329
0,809037070254713
0,817598143994421
0,870828801304745
0,805922313160839
0,846715138688693
0,817363904163317
0,89826956020351
0,830907903743405
0,887073997860465
0,802453614985717
0,941756529076056
0,910380124626449
0,895128587930011
0,846239643353067
0,872717613251502
0,890962488250408
0,920341344971945
0,828786917448033
0,878767975711279
0,852775173809545
0,89757571487475
0,807743161414205
0,931747657027094
0,885733940716237
0,899787272082779
0,847411653243581
0,974807765572577
0,859269355597387
0,940471065279389
0,880648416682105
0,967569741421258
0,8830639424856
0,983123863561844
0,918983290121189
1,04318294791554
0,921583664315578
0,99360107045404
0,930433247971984
0,999892946298879
0,917822030863043
1,0310519662607
0,915518483865531
0,992379338497193
0,967147809364782
1,02371466897641
0,927906732976976
1,0145549789186
0,91994653124196
0,955366312227053
1,03326790512251
1,05026394423686
0,914727322410795
1,06939033244646
1,01426165013698
1,10115632082654
0,97883836062306
1,08203293284741
0,951248208499936
1,02867734931284
0,943181710770113
1,02768548148713
0,967681002916382
1,01598727571109
0,986484725573305
1,05220140489399
1,06525209225264
1,05023209168741
1,03199601456988
1,0994103383317
1,03499074103618
1,10385097159715
1,06613814104029
1,1174272345985
1,02741470829354
1,09871889621148
1,05468255179586
1,11728755661778
1,04283244818847
1,1776985811971
1,07258568671267
1,14108330849825
1,10157410796476
1,06057343593651
1,00201568262596
1,18095556142218
1,06437232762616
1,19431087946214
1,07684884937584
1,09416091363426
1,08349398374948
1,15946598639113
1,07452579417178
1,12508510225511
0,991610710499244
1,08775213358709
1,12737752393312
1,14768023291777
1,06226204751195
1,11095727028067
1,1075396760701
1,20679208726731
1,10693654986282
1,1864926480911
1,16302970605716
1,21479092693654
1,09438499725484
1,18574330451933
1,06515496879985
1,15181284914539
1,14335533393347
1,20244693009212
1,08806308554132
1,15568940414041
1,06766399479869
1,24931042063086
1,15223706736671
1,22998325583421
1,11877217193199
1,25670072916546
1,13451120395137
1,24997027332263
1,17861590167289
1,18925221218925
1,14473653677216
1,20552133564881
1,12342086868917
1,22902514363175
1,11231828391549
1,20095677739449
1,09896116719142
1,27900585554794
1,13735931825499
1,1848608575836
1,13387827788073
1,22890051228634
1,12550363733034
1,23643658536536
1,20879089474347
1,19575656356219
1,13849320040635
1,18586788859214
1,19978744940637
1,19245472625353
1,12516346995339
1,19319674085947
1,13799692680874
1,23610059674136
1,12423687763806
1,26034515951073
1,18570353148027
1,29073273330118
1,20963206533404
1,24478519684153
1,2252008970624
1,20396612686464
1,08377113034268
1,15835363441777
1,10524812530463
1,20878118648436
1,118390425143
1,18638411261312
1,18657013016335
1,19046565714651
1,14429142318089
1,38239112571316
1,22592214813769
1,18343240815359
1,14134808625467
1,28308269989393
1,15350911837132
1,22141944153439
1,18625004633168
1,27214493696788
1,16851352771543
1,2246701682502
1,15070188206497
1,17069961394821
1,20905225199965
1,18119286571821
1,17962470899799
1,18580908633131
1,17772722316978
1,17509325609837
1,11438400913762
1,2582095807947
1,14429836061547
1,22520746621729
1,18793926822575
1,17535839518998
1,162889118873
1,25118281782372
1,16070950021984
1,1922735546128
1,23647636433488
1,31714587928493
1,20276353700838
1,19580828289368
1,13639525541227
1,15801855377572
1,13943526051991
1,19898569382175
1,15818395874316
1,1846723251097
1,20776057840032
1,20869359502647
1,17381333145812
1,20935874545321
1,16842635987477
1,24464690921102
1,17221039142613
1,14150313509308
1,18233572406409
1,19215249498722
1,10790767468793
1,18742298867014
1,15394162519064
1,19737902832228
1,10901587646203
1,20665489932444
1,15742993850216
1,19481144878224
1,19964459172285
1,18003468825725
1,21383839414839
1,20208285369594
1,15402849897314
1,14972828779549
1,14336587642543
1,17112886281011
1,11310630010384
1,11991425547755
1,09310967411915
1,15310634631339
1,09059837288437
1,13384772433552
1,10799551582818
1,11704266196832
1,12204123706553
1,15464228719662
1,09362249886747
1,18173212458273
1,12219848633365
1,17804580969541
1,0715274103981
1,11933479845165
1,11488647533301
1,14229041684086
1,1504468317404
1,16334667616534
1,07788619006256
1,08658479101129
1,10383924045526
1,14705217146068
1,09530626332717
1,13314390821564
1,08225742656389
1,09242283765953
1,03965487302792
1,09689491202351
1,061044790985
1,12641486124788
1,07706298200607
1,1133828077496
1,09353496409857
1,09249848266964
1,03455099027725
1,06589245247378
1,03548441698026
1,08660676213287
1,04345495268039
1,08201947449169
1,08562166828542
1,05945175304197
1,0297575167465
1,04754397584097
1,02542120131025
1,09314243378978
1,05081666286372
1,03142550533997
1,04515065116226
1,02414283915473
0,984255028429789
1,03169399668813
1,00039516129344
1,03422134516001
1,02803225754663
1,0251390241161
0,986463578229524
1,04139389688781
0,970613350238184
0,99960159429914
0,988103160505445
1,00015848028419
0,990867042795567
0,969508305603869
0,92613793479847
0,977122544658674
0,969996795668193
0,961584503219621
0,946367900581894
0,978850579505402
0,947118052306648
0,96926336845364
0,924273425029055
0,937075609526631
0,940110587444385
0,94745537430718
0,933533812672726
0,918177947376341
0,917353562681552
0,938763450281674
0,927090608503271
0,927278829619232
0,902472053822603
0,921802984042228
0,875605705889586
0,913159241311545
0,875145845781795
0,862714928355973
0,864480534727029
0,911449134860611
0,889780108305086
0,885269651159357
0,833882680686144
0,856086679825193
0,83338852214876
0,834361500237606
0,845894681920841
0,864821031214429
0,831147057063569
0,849102685662936
0,82319991640145
0,840368669863194
0,820867591337312
0,824743669246983
0,797960102629645
0,817227942997016
0,791885024536771
0,811793158876483
0,809071180374863
0,803787842678142
0,775447566838156
0,78737980762256
0,769420203797285
0,792794283725384
0,772961267882672
0,775568481117039
0,77017173715011
0,776272693151216
0,767509105103609
0,778001415935025
0,745958488947582
0,763495066081505
0,757336438592384
0,74707165440772
0,713448342829138
0,748111033686054
0,709647441660241
0,721977058494515
0,71554917645343
0,714378328248919
0,702400450859097
0,719513206157507
0,700994151630835
0,711732525762762
0,696832744246169
0,686946399504172
0,695561729330811
0,702387549590608
0,687790419986375
0,689157808047057
0,681237054824407
0,682400503335663
0,678822896182334
0,665194627793574
0,662730413027112
0,66947613743929
0,664416860056428
0,666383935437658
0,656222782880398
0,660722146280037
0,635733646340239
0,639791907419967
0,635749344308802
0,646561033951299
0,624491718616277
0,635224280594211
0,627801357560947
0,629024870700525
0,612506837309045
0,630322518008592
0,614862000504889
0,621554505867161
0,603378306168219
0,599604054480358
0,603889963939963
0,605602858160303
0,590099488255667
0,606550094329015
0,587931447862481
0,585071765498031
0,575527605787721
0,586622314480894
0,578132248316039
0,584352165212024
0,55917230728403
0,578245420665879
0,573463357608188
0,570790582370585
0,566684060634868
0,562032072134919
0,543557576520892
0,550339179900504
0,54489172364406
0,542390217620556
0,537078570837452
0,542761819431462
0,530994367029217
0,5303226507351
0,529327615309422
0,536089372871074
0,526271885044861
0,528536413533039
0,516302599426277
0,526627337427779
0,515968770757532
0,523750746932108
0,51003069020204
0,515441845833578
0,511275494057813
0,502882472316015
0,495221630620392
0,505073075444279
0,487585761656744
0,495308703596723
0,490173824255327
0,487470403902013
0,479220986739297
0,480545753234523
0,478375858121854
0,493300182726051
0,48316902734619
0,478297543611442
0,463810148398215
0,470920521073442
0,464457915600564
0,473682614356924
0,460665516669528
0,460962961039525
0,452031480203511
0,455784894487403
0,454271900554699
0,453992173869005
0,446389567411861
0,447813367759258
0,446249109889897
0,441045349690673
0,434725508060141
0,449343861956598
0,439095090051398
0,436704083530184
0,433138004513728
0,428503175600244
0,422701371294153
0,435742534040381
0,424058372143186
0,432040235422166
0,428647475752954
0,430350751320025
0,428443916599269
0,429557308540152
0,413296879983539
0,419783835405045
0,409989276031521
0,412015220768138
0,405944020899727
0,408439203965517
0,400985407335473
0,41305659739288
0,402639386934554
0,407934015848048
0,393530075570325
0,397954405317882
0,397465957593253
0,402656415732186
0,396703733443224
0,396074453867032
0,393443727319013
0,39458559753469
0,390909804360624
0,397546052287769
0,396806071076588
0,393585526700067
0,392222698331954
0,391818453801238
0,387067410896823
0,39436789780322
0,392076903760286
0,386850176672521
0,384481794304942
0,390684941338454
0,390649100548224
0,392067162399362
0,387426598095401
0,391988827762734
0,387167297004288
0,393664631225587
0,380836512543534
0,386152702442562
0,382990548968276
0,387308056005249
0,390987947632288
0,396780943007785
0,391945563765868
0,398071858933465
0,394374635685548
0,399771520764167
0,393214866126691
0,407507847041677
0,403309556119322
0,402504424143458
0,413367148829639
0,411274439387476
0,402614797227491
0,408104874803274
0,400318660619585
0,408184092661293
0,411307481648607
0,41487016181882
0,417522337185535
0,416789185401938
0,41036626842876
0,419494861780404
0,423241953912774
0,429896998716886
0,421671994663257
0,434586676606799
0,430274249522254
0,429907289417305
0,429115845538656
0,435187180326212
0,438735656188809
0,442041692508826
0,448989151497957
0,450192341464222
0,449772635555697
0,454415532350585
0,457300232436848
0,459328906164958
0,466456243148367
0,480355737432476
0,467670128189372
0,477009138384502
0,480652985186132
0,483688728115357
0,481506269253199
0,490407724868758
0,487384019404801
0,491763797226612
0,502741229298654
0,501994364354115
0,502979492758371
0,506681709840801
0,501531590710438
0,504064640181832
0,514786858301439
0,513629877640228
0,50936040303736
0,521897989938109
0,514757781628463
0,516436134419179
0,512260310841014
0,518943233173301
0,518145243797962
0,525877750532389
0,508274952202367
0,51885532638991
0,519771992147647
0,510620215993088
0,516975335282505
0,526935842230956
0,518949868672144
0,504586115121356
0,505379979191364
0,508977385485498
0,501283901753959
0,510442586749902
0,515969194830143
0,509248832774387
0,499636462326709
0,503600059600917
0,510002660414562
0,514453845466616
0,50783655421537
0,501419328326848
0,506145101190132
0,509621011187952
0,502883195890951
0,50047765742228
0,503503675524438
0,513050252930978
0,509642704568752
0,508698839253458
0,508416949685607
0,506731364165161
0,509928295406873
0,504250188700865
0,507576069774227
0,51345915061458
0,50775252779878
0,505948430782109
0,50676245631264
0,504086793961107
0,504620644832919
0,511785850029105
0,51010781969583
0,511425489194242
0,503430386636343
0,50801839376126
0,499284272926176
0,491297243043207
0,494356620589556
0,493504540917974
0,485206117206972
0,493633319843503
0,494329230581461
0,491720390169342
0,495344306554092
0,474155536539114
0,469161421323706
0,480005835109856
0,478476403793059
0,471596868559461
0,472482086515132
0,472840010217667
0,469425289566534
0,458505053423639
0,45965607112355
0,459474781680527
0,452659731570608
0,455302694619177
0,447098872442588
0,449831924119534
0,440965995034558
0,437734274151608
0,436492968196455
0,436491933204534
0,435292311157242
0,428306916574197
0,419862284126691
0,418468417756038
0,423010458379496
0,423423658711127
0,421789224173791
0,413188510887538
0,408220945526046
0,411006512222885
0,404667006812812
0,398327326971904
0,39764279084554
0,401738229719975
0,397639401185603
0,392897526610814
0,396459421484905
0,390057400945002
0,39039114647874
0,392124446290972
0,385857302987136
0,383479114932218
0,38142385364219
0,374925855816414
0,370165142984366
0,377499064611561
0,369718433978312
0,367178780000238
0,368309738694205
0,366793821065865
0,367344216148499
0,361924682520325
0,360109061985591
0,35663152060112
0,365626888778301
0,364326277407501
0,360519344715424
0,359443802106591
0,357235260439584
0,356251093085752
0,358589217192155
0,346742512817543
0,339796703866573
0,346239029288667
0,356218438443746
0,345826960963443
0,344496237589766
0,341699623832899
0,338933596675873
0,33763580547607
0,337162766126316
0,334014210160783
0,337239929365883
0,334441825412717
0,327940888450733
0,336157405474539
0,335496365726904
0,325559074937296
0,32460070749568
0,330747537477847
0,330754319495926
0,325291829976743
0,321750968511904
0,325547761495227
0,325050119228793
0,325264946923679
0,322740774731668
0,32164814030389
0,320337878839884
0,31772898452677
0,316371031452661
0,31488377819077
0,317616250083135
0,315299330350816
0,315186369652728
0,311862831068646
0,311273737942388
0,309354055297921
0,309244835491404
0,310127241875393
0,312907249089195
0,31169243828332
0,307934499723208
0,310601945173327
0,302289564040721
0,30616156688762
0,302115687383529
0,299736018691622
0,302640634721014
0,302519284841291
0,299818302216947
0,298510540217114
0,304599463447859
0,297961820302737
0,299958821182401
0,297358742785102
0,297141505098731
0,294379441657881
0,295978729029109
0,295576172608613
0,291901695742265
0,292292056769127
0,292345721684953
0,29102690456129
0,290053895603017
0,293319473357536
0,295097663453252
0,287758187179234
0,290604036063953
0,288909572859236
0,288508395134167
0,282031042902029
0,286266928543697
0,2835213001218
0,283826857427758
0,285831897718229
0,28058489374103
0,282743777564911
0,283832754034665
0,284650275843322
0,282671791618906
0,279277659530575
0,279182003159441
0,278727850547978
0,282871518520295
0,275896131964388
0,279216896206457
0,277277842622351
0,280758917666171
0,278170125291922
0,272829476753094
0,279430898990184
0,28255903210527
0,276415236147923
0,2778957014268
0,278871491888657
0,275404511503275
0,275845109223283
0,275862097981233
0,274828428154078
0,277904332135189
0,274066719423334
0,27352558585217
0,27518371361112
0,275614862652455
0,272763303007109
0,273945272550028
0,269367439512065
0,271717791742407
0,271323624221097
0,26867896878517
0,268465320684415
0,267609669927786
0,26957056542647
0,266713732011822
0,265789751269651
0,261859513871314
0,261884039635821
0,265921281290571
0,26363460718292
0,260934376641479
0,262312055321281
0,26024724959522
0,260745405631761
0,264967436066268
0,26200223995106
0,260238679014278
0,258563282678789
0,261284991364449
0,257437357966589
0,261449029719186
0,259596832574719
0,254703494616531
0,25626282898599
0,263268378224486
0,252060600512576
0,254978458930328
0,251341957130706
0,251288136168168
0,250990157862565
0,249258893562592
0,25132364935763
0,247532216045765
0,24784506121126
0,250519764116654
0,250346504210116
0,253127483602266
0,244717675895703
0,245280586145069
0,247167944887944
0,24595899680001
0,245378506020012
0,244197656597082
0,244109845072447
0,240268147217648
0,23846081156276
0,240513065486665
0,240138979149774
0,24075904185705
0,241127751058052
0,242044069687924
0,239346940321778
0,236828730598938
0,236798197205879
0,235258539229112
0,233897196175134
0,236404452135991
0,231870528800864
0,234008895191818
0,233375086884772
0,231390623351941
0,23426212872996
0,230239259792534
0,229411341468443
0,229396693308101
0,2237430854117
0,22601782067711
0,225153983416054
0,22790120111267
0,222852457320134
0,221920027718246
0,223506623511983
0,223351737838797
0,215221759757124
0,2199877519601
0,220903210995292
0,219549070773356
0,214975782380661
0,213570038629277
0,216933226243544
0,21413347666174
0,213255783808747
0,213206807391242
0,213306209595848
0,209105491941766
0,211809454564242
0,212675657470538
0,208663058144022
0,209731263537556
0,205488992120702
0,203105784626647
0,20384924165854
0,203222247417513
0,205891597749239
0,209175778781
0,20096035661503
0,200549548965742
0,196531827596223
0,198327703725044
0,204303952505797
0,2003208239161
0,19941257469985
0,196997404416762
0,195591876248344
0,194849541964057
0,193176921895621
0,193756388256305
0,1918998082945
0,191520093767634
0,190258175587867
0,194644822714002
0,189920243641493
0,191323445127692
0,188793710831094
0,191511788680507
0,187483623207152
0,190407291282791
0,186858989139354
0,189424198870324
0,187261928910271
0,184450139518206
0,185297583310877
0,187124570342811
0,180052086910582
0,18395425620034
0,182669034314056
0,185324050503764
0,181816368481836
0,181980172187865
0,180427081884335
0,178421259217185
0,177673356782379
0,179244059616314
0,180812024012741
0,183805149939588
0,177983114025867
0,17709484114143
0,174246092317537
0,175112037340256
0,174462816537953
0,175780697169106
0,174683022136459
0,174830785071635
0,173299810709768
0,173683295402453
0,1736300124682
0,172025163238919
0,173162640526717
0,170623121026446
0,173659855350144
0,173669519777854
0,17257563027685
0,172203825013009
0,169399624087345
0,168351771641049
0,16883954180704
0,166419562794236
0,168823843421267
0,166206938965504
0,168144136292882
0,168434556710367
0,165660356079823
0,167296083279087
0,16308808482982
0,164791929003516
0,167019885946225
0,165173603193518
0,164642586747455
0,169935041209662
0,164863064472756
0,164222602694792
0,164569384761393
0,162463200750567
0,162676901760441
0,167880063202993
0,162334096458798
0,1581731229351
0,163064235054812
0,163375406997792
0,158762834470619
0,161749860092887
0,160234547645574
0,160341121566065
0,161805080413307
0,163034856595475
0,157335424544795
0,158521954774759
0,157648952984671
0,159582769098324
0,154978143363537
0,159863525429945
0,156180856744845
0,153821703331314
0,156979982053605
0,155240945437052
0,153719584903974
0,159701593280195
0,15332940395288
0,157573340384658
0,153002986632925
0,14995307732184
0,152893851546257
0,150471828646173
0,150315356848635
0,152004415807277
0,147617861426001
0,147929345214205
0,151235003168151
0,151376958442462
0,149494021124931
0,153475849078413
0,149272698709539
0,14917996374902
0,146573996634968
0,147109702088433
0,14803735894104
0,150858154012655
0,145042111886981
0,14890955305943
0,145254913888608
0,147884383600603
0,147549912172073
0,147564748088346
0,148204859321579
0,145770615141971
0,143724407249888
0,14712373645741
0,144090046947374
0,143343124176871
0,142589760587567
0,144896482072064
0,145875555176905
0,141850895211016
0,144171528819541
0,142945739459736
0,139955182998416
0,145340748046818
0,14313042424613
0,142265117627981
0,141190401058673
0,138705826071141
0,138979086595894
0,13977343836438
0,139268155902508
0,138957539518084
0,138957818285293
0,140316727026875
0,134403863093193
0,135635526391651
0,136704536852667
0,136390257795214
0,134024761079438
0,139435262702677
0,133936945169556
0,136533692757018
0,132240517069949
0,132891535594422
0,132570431016673
0,133661471713055
0,128525999756441
0,132220076914662
0,129215738161653
0,130548708972507
0,130429235978365
0,129483845477657
0,125276738199302
0,129372776135356
0,126873323767209
0,1282102183494
0,127535488143183
0,129386161639751
0,12548506744484
0,125155923039705
0,126172611759686
0,123334462906136
0,123929101012213
0,125675875861112
0,122079471634125
0,122138276768936
0,123994620529246
0,121594602940993
0,120213529482995
0,123049552965484
0,122068295174759
0,121548445263759
0,119702336822797
0,119331482035925
0,116736986539762
0,121151507047171
0,114872843439441
0,119672301174131
0,113553509707086
0,117841737428792
0,114899507314815
0,115804384279804
0,115783820933377
0,111969719112307
0,114096641721476
0,114367471109875
0,113015052815433
0,115013664294232
0,113223794009748
0,114174064423176
0,114232443298888
0,114124266842197
0,106457455408592
0,111984195959757
0,108739429648872
0,110133585678485
0,107673430463545
0,106631345781663
0,107135065542207
0,109313861797339
0,10482247574018
0,109118183307652
0,10500476356422
0,107126622271602
0,105625716747887
0,105669528708519
0,10420467942105
0,106076133385533
0,103970356877204
0,103966617278055
0,102582145913037
0,100479368999797
0,100899144222117
0,0990877369911889
0,0955812753128042
0,098591758973707
0,0997798617798077
0,101473781774703
0,100099270299285
0,0995204312814006
0,0981929734863599
0,100169333042706
0,0990867634450887
0,0976491701146559
0,09789639494566
0,0986516520171497
0,0946638009020421
0,0982584333898978
0,0956255259547769
0,0968981007223441
0,0942625462359258
0,0968007824601621
0,0966773821376294
0,0972204900366212
0,0948119520969155
0,0974751531843263
0,09275854355319
0,0960429927902749
0,093852776486268
0,0949430827280579
0,0941495180377333
0,0940134330108428
0,0916900750525233
0,0966540145998876
0,0898814809508763
0,0922639769323976
0,0940718870950925
0,0921495290633742
0,0906778963888842
0,0931315716090334
0,0950737737678812
0,0945082071537764
0,0921291562854134
0,0923707664394526
0,0910779941147655
0,0966423545199331
0,090985590116351
0,0935361009105828
0,0905676187980102
0,0916788007515746
0,0885003327848927
0,0902194745726979
0,0889834873299591
0,0978280642003376
0,0906803957098072
0,0901988686623556
0,0924043131856366
0,0942976811987196
0,0893503550752539
0,0909789789380454
0,0877349928830749
0,0936377252944194
0,0873944518735847
0,091864069991653
0,0966638392657546
0,0935776943009456
0,0963597894009914
0,0863846811687756
0,0857279794555207
0,0891514798723069
0,0885507134841463
0,0810350905800299
0,0840638880611804
0,0844037315718939
0,0849418519272056
0,0839554849666213
0,0833401394975307
0,0801951631581719
0,0909666432854421
0,0759115438311118
0,0896318891984684
0,0757991253613889
0,0914496428798138
0,0786913752713093
0,0998996651690074
0,0776676160627612
0,0955946175567165
0,0667187509580038
0,0948051373479758
0,0671569421092391
0,103428489470321
0,0693923280101916
0,109443444185416
0,0607962159680593
0,104180939434447
0,0587422710125873
0,115268270605247
0,0607588602108396
0,105883049947555
0,0573338205151238
0,115374257578079
0,063363202763678
0,0968067955169645
0,0663351871428039
0,0951948277737421
0,0723663835402747
0,0839948462713414
0,0865283465668763
0,0731632945596053
0,0922415627798587
0,0720360756656699
0,0944501079808474
0,0667279751218404
0,0924478397950661
0,0738761421695966
0,0847533418651735
0,0764523687578172
0,082002197107533
0,0792683221020093
0,0759278101204037
0,0809708240150097
0,0764910699323134
0,076435581906614
0,0798845735258202
0,0738034724365387
0,0825498277172902
0,0746674190773679
0,0794025006044935
0,0760110791815602
0,0799643070531501
0,0771386189203451
0,0783254709067546
0,075902716381007
0,077772531666314
0,0765877470691057
0,0781002486023225
0,0733605402903245
0,0787831309017869
0,0750232566163143
0,0776425801110335
0,073617311159777
0,077759580011156
0,0755028998664295
0,0794603591917534
0,0742892284282741
0,0783895929889019
0,0722055366870098
0,0776206631149127
0,0752800642736918
0,0770508580177488
0,0772250757893911
0,0801811952802572
0,0769154160692681
0,0759167831830693
0,0752505203850864
0,0798074559146392
0,0776314827138812
0,0791787338939478
0,0769041003075224
0,0799725745309559
0,0772791874190281
0,0795022454194372
0,0748753339782494
0,0774029307432402
0,0789192586885337
0,0777516598795044
0,0745253819780183
0,0762622199306376
0,0779095930342241
0,0794598743829536
0,0776076222862355
0,0794552303556243
0,0739043098008956
0,0797342836818109
0,0765393900029033
0,077782411518818
0,0730646240513262
0,079065409649663
0,0760566159024735
0,0780834906429267
0,0759197660177679
0,076231999565208
0,0752196610297962
0,0790093529839044
0,0747799294538863
0,0809646499752466
0,0771178572989139
0,0773372500024377
0,0785184940533544
0,0787521764860768
0,0743433772879552
0,0773685845902041
0,0766618568287319
0,0786525750890162
0,076073564292991
0,0778830747628584
0,0774305408365655
0,0791193666381159
0,0759976267177007
0,0803499634424425
0,0778972657236034
0,0772306185687708
0,0770927247388766
0,0754668958734473
0,07598483311506
0,0803160843439929
0,0808974309640346
0,0820596839543959
0,0773488197617695
0,0804835422529603
0,0786661311177309
0,0810676303181115
0,0783436627565351
0,0785328281834467
0,0762767682785102
0,0787035977143697
0,0789782936463356
0,0814674676617722
0,0791631350183215
0,0796369331568321
0,0781308077261421
0,0821134239748575
0,0796485391905673
0,0805833293049546
0,0783971656815545
0,0853381971574896
0,0811980537027304
0,0813295991098892
0,0796755256265551
0,0809615111608604
0,0781301183603986
0,0844739881409828
0,0800477551774741
0,0804094784800839
0,0802364247797529
0,0844968059669068
0,0819382980399699
0,0834631995786311
0,0786865945786554
0,0817462049567482
0,0817357311125908
0,0829210995259281
0,0817089061628423
0,0835264787869461
0,0824865858078538
0,0813285450293985
0,0822816650487849
0,0830904712979141
0,0828256034177663
0,0854711868707043
0,0818189600766354
0,0861259331616696
0,0845942968938733
0,086294617925002
0,0848145295853377
0,0830890196839349
0,0833707878352284
0,0877398573250675
0,0830203790343461
0,0857168273302104
0,083125336674085
0,0831764088934057
0,0840829813530753
0,086017797730353
0,084246101900407
0,0881267083937783
0,0859953455347428
0,0864095060983949
0,0831085718705851
0,0876103839399059
0,0841543397784717
0,089166658643509
0,0856275179674098
0,0871644174096106
0,0857894198052285
0,088466048667004
0,0858530576244602
0,0864795698577161
0,0842938833961688
0,0879816168409186
0,0858088818618271
0,0881611950925532
0,0868329603683438
0,0880486376579975
0,086320200634436
0,0862778128694474
0,0863227046371648
0,0890282035493196
0,0863132883785952
0,0879926947996764
0,0862270115881942
0,0897809545112244
0,0864967823450068
0,0863771546134282
0,0834199839919947
0,0871033113022821
0,0862509926494453
0,086019624261904
0,0825894500883743
0,086470677154768
0,0830807911011972
0,0842799996768634
0,0829093285864512
0,0876627279425335
0,0837358476925128
0,0830306869887646
0,0854755201283734
0,0869054625860919
0,0822822099848092
0,0843923552588964
0,0846804477652487
0,0842689348978812
0,0834887201275909
0,0863196393823185
0,0821982214420484
0,0854586930453439
0,0854515941723437
0,0833220096132741
0,0825140372112262
0,0839931665532978
0,0815344962801278
0,0809322603357664
0,0812093917070012
0,0830373286327426
0,0791913831602714
0,0823773075834108
0,0829208818102396
0,083363108274953
0,0805769094618912
0,0812175816829017
0,0820538602747057
0,0835447990362071
0,0805457665721507
0,0841481354105649
0,0814856622273847
0,0823053237674928
0,0770056080607354
0,082524893496502
0,0807628798000286
0,0816765735619773
0,0821957666948566
0,0826060898151863
0,0803478934107659
0,081648741589282
0,0791691098510085
0,0799086483001755
0,0813034025465118
0,0800463875480932
0,0784869758765127
0,0828016694318662
0,0757487128322074
0,0810227726162981
0,0806727804278393
0,0832933013737682
0,0777345215758366
0,0791476037548443
0,0773242134537672
0,0820630583976576
0,0806832511090571
0,0811708173312012
0,0774107684492185
0,0803132741555775
0,0792280092983385
0,0798704369959872
0,0790085723650217
0,0799561033365118
0,0758864867518819
0,0816997703743739
0,0779846047886911
0,0803144924743571
0,0793001748977125
0,0795051417047992
0,0772783671137591
0,0808322862999977
0,0755733384662907
0,0812599227652173
0,079442256095284
0,0783206536248401
0,0771295620113523
0,0798339688941588
0,0757577687152889
0,0770786246505918
0,0755768726463784
0,0789821814441791
0,077213049437371
0,0768297059779523
0,0759517107189744
0,0777990605133036
0,0753310104171157
0,0777091156397956
0,0757964927143477
0,0780188080314418
0,0771395918074498
0,0777836050020114
0,0771855738115681
0,0794844956805799
0,0754565204915559
0,0772117679729337
0,0774621323362549
0,0764760654627359
0,0723361677819703
0,0765926549944448
0,0728327231232912
0,0760945514175481
0,0738375042717173
0,0779416480080184
0,0740552735831683
0,0754087673210812
0,0730043675926691
0,0742878523897354
0,0736351732159596
0,0741984578628032
0,0703926673409114
0,0745173727393912
0,0706686726712793
0,0723246996948511
0,072333292532609
0,0731046205100784
0,0702923556425684
0,0739909805455387
0,0698637472943615
0,0715828782959547
0,0682338850479207
0,0731856325559414
0,0653376634093972
0,0726403856977035
0,0647020958575956
0,0720554440746849
0,069370360329795
0,0697946862154238
0,0664781845039354
0,0667082169962544
0,0661833931649269
0,0691262247496257
0,0661722965139572
0,064383467514752
0,0644506439400522
0,0672310072541368
0,0654745964226568
0,0683359338658208
0,0662505927488169
0,0649534568569677
0,0644230160316447
0,0663365988282323
0,0642044406315087
0,0640959666382495
0,0642650229604231
0,0648750873201547
0,0622279797883585
0,0641457599524321
0,0627786513560496
0,0645094403271264
0,0617863728429732
0,0555191962890685
0,0726651437198058
0,0626314350586878
0,0621794144640664
0,0624405478610934
0,0637868813234543
0,0635841475725178
0,0664631114915809
0,0616828324862938
0,0626527374833019
0,0614637814409073
0,0612485274921888
0,0634215960695819
0,0619746696774699
0,0603832722965097
0,0608936864136415
0,0628550080099068
0,061363776449602
0,0599756428412416
0,0608044327851452
0,0623768506475959
0,0620361220883691
0,0605152267373643
0,0598701391414216
0,0614189411594037
0,0610068070009783
0,0571120519020887
0,0614145060212905
0,0638207098368764
0,0623516635319042
0,0613658747973168
0,0563381312224617
0,0590367749511369
0,0590978337424809
0,0631192636582552
0,0604578124179129
0,0626499371139153
0,0602683835014136
0,061704017432093
0,057541421311227
0,0601940828793818
0,0596806407000943
0,0580517376464709
0,0581056018633292
0,0591458119034085
0,0585762112052259
0,059193738299684
0,057409328035707
0,0601782907510027
0,0567304868171277
0,0593819277811205
0,0561017942774442
0,0616519965925754
0,0481179528591997
0,0757095771684562
0,0590450486656238
0,0655656810360646
0,0568670217616909
0,0588184012879426
0,055673318745583
0,0604852832573351
0,055775702109336
0,0598096342552297
0,0550955467992048
0,0575542370539011
0,0567544796782524
0,0583152033834934
0,0553886123950175
0,0598005239756512
0,0566199938309643
0,0608502675498722
0,0546449324754707
0,0565686715141643
0,0543408929651384
0,0543172362687213
0,0614559096179284
0,0670455815390949
0,0530187405329137
0,0624501577823105
0,0429212822255109
0,0645788330960066
0,0688131831909094
0,0522572735441051
0,0603017480134735
0,0540182770515758
0,059859656002038
0,0540113387094111
0,061590554001206
0,0504286632750948
0,0650802881815715
0,0553970074509669
0,0610748462000829
0,0590559275883914
0,0575213141284728
0,0560435761820898
0,056274013829885
0,055367486930524
0,0579677643743838
0,0573147911741762
0,0559410609843472
0,0562407071666175
0,0558352498855518
0,055027904249859
0,057063484827462
0,0545819150185217
0,0638235374223923
0,0518681050276818
0,0562741682630191
0,0552106339932864
0,0585527469777045
0,0485562045517249
0,0727390956317056
0,0546524563777966
0,0570211767029968
0,0560941324929873
0,0531992833274229
0,0562735279820391
0,0552274264392364
0,0587583272155423
0,0576283986818059
0,0558360044916345
0,0536432557286685
0,0586170697290792
0,0560383040315868
0,0573434223099566
0,0550073801060801
0,0561279642235613
0,0539387869348008
0,057665473588559
0,0540702341977018
0,0611117880197737
0,0506414019260648
0,0564665173573182
0,0702093370846909
0,0562076817942485
0,0668707834205579
0,05789872353744
0,0614672424528651
0,0522750485365796
0,0597949223066599
0,0517951767015656
0,0598649010443105
0,0553975739495574
0,0576579147376954
0,0562432225203056
0,0605104753384059
0,0546664384928896
0,0605665262887405
0,053914804827127
0,0589869031749574
0,0548823456783492
0,0595969934771877
0,0555913644323861
0,058758375738809
0,052420261070819
0,0560227452718236
0,0629090275377661
0,0578246973734986
0,0523175672428745
0,0421942384283138
0,0883541192614987
0,0521388049628763
0,069271343862858
0,0547857199338829
0,0586149022669011
0,0566213816970723
0,0579958908512332
0,0611468090933041
0,0629763767361286
0,0551253216393148
0,0629445826341589
0,0591367887348135
0,063133721531227
0,0551214188152076
0,0505730358636918
0,0739622753222317
0,0727510785732323
0,0562713355045167
0,0672600209500517
0,0413471375526317
0,0832608220983711
0,0654317730632551
0,0588181036163527
0,0644279757338067
0,0583167699470005
0,0621034127955529
0,0583941929019843
0,0611796725463853
0,0632357948184868
0,0661024775521001
0,0567632456708029
0,0627169698299089
0,0580616358334175
0,0618335077707432
0,0665063608113155
0,059655360102931
0,0721671345263929
0,0626687649002475
0,0605289565283588
0,069882899270427
0,0600822345720565
0,06184379226623
0,0610734769081548
0,0628449202465006
0,0594396740501876
0,0717457360486433
0,0626555645769431
0,0688833442435517
0,0726312611108465
0,0622293053645288
0,0651363104365768
0,0707748343742136
0,0653325879863833
0,0689692176570946
0,0383496582736332
0,0982191795870924
0,059998793579214
0,0872652347998924
0,0655436179630375
0,0666876464249381
0,0677812550547501
0,0690589652840832
0,0590572002161027
0,0685559134185217
0,0818380496028927
0,0613731587861943
0,0774806647120478
0,0537029454173535
0,088164315569693
0,0672360190375853
0,0775168014871463
0,0694438587406366
0,0701046024714599
0,0686120059507821
0,0857448676245917
0,0509411167740597
0,0852563621125637
0,0814220255429954
0,0782621932500694
0,0869948508627071
0,0634977215216164
0,0842971294888391
0,0889388989899458
0,0690662312681438
0,08358160175254
0,0697084021852975
0,0809053938977493
0,059532523336401
0,0990484604980862
0,088080214129697
0,0732532066441694
0,0827672175785566
0,076596342862851
0,0822957515587076
0,0985883189548893
0,0772453446584288
0,0824437057749328
0,0780129484928292
0,0781676017068945
0,0600504633107052
0,120864830186847
0,0560516989252594
0,116753199142579
0,0799122613655057
0,106578673555694
0,0863385904661292
0,0957401754918168
0,0787895726946283
0,107736444396425
0,091683886627426
0,0898035297238592
0,0688709302261332
0,122220618423501
0,0920002834645193
0,0978051782255859
0,09821938416276
0,0822047741447668
0,0865473517662754
0,140573515535452
0,112580735042538
0,110755475147617
0,0986844506582575
0,111705849779632
0,115199662721092
0,101695203610323
0,111296844375721
0,108360291299412
0,111099457834559
0,110498404675068
0,113832731826029
0,119537999941201
0,110265509897111
0,125690874532345
0,102006009741402
0,121063225029134
0,128997295712048
0,1487670213845
0,125442243975087
0,122349188251464
0,144555045562155
0,127237078571157
0,134893242223896
0,12494464901662
0,131775400925719
0,13892026802835
0,13338386162697
0,136273797238519
0,130355760329697
0,159733570983872
0,131607125460381
0,16664443164609
0,147361720558297
0,146336419001572
0,117271718597887
0,182959113135407
0,202405717442943
0,144409692917986
0,176645101959887
0,122735241055076
0,212623058043402
0,187864028011777
0,174663620230428
0,180230233046877
0,186366239286517
0,182040462305267
0,203278116144719
0,19801107896381
0,208424372911635
0,211098097659997
0,197257675864438
0,180185890689612
0,272600012991253
0,256862450665959
0,250895744310606
0,228574857644824
0,244850275558737
0,257097644538795
0,257536177700602
0,24836649820209
0,267500796759786
0,232185178490035
0,323171662189904
0,285469453543994
0,286471713813747
0,287416290335353
0,294847574933585
0,311256129419099
0,290418336662725
0,36013798365714
0,314666978102056
0,338340538687419
0,324387646628045
0,342308795006224
0,329173051000598
0,349763108065971
0,369952414062239
0,35257339033478
0,365210732237811
0,363874899215132
0,375066761805196
0,376155963432887
0,378683141146142
0,375803724531616
0,371446599438583
0,429633306344946
0,376286686079345
0,434298551171908
0,387077095458566
0,404854024535865
0,375948773411922
0,404801872298494
0,418825817212282
0,416701639002186
0,451823735123876
0,407411379278597
0,408900422152415
0,411180149588814
0,416860249348236
0,412049894653907
0,413745199872673
0,41451348918584
0,402891345710664
0,431721025309101
0,346859093567693
0,498739291379144
0,42804912266901
0,410441958445257
0,401823867379985
0,410998380791878
0,408701169971143
0,407448051516612
0,393052134795317
0,41903786304231
0,40638728217822
0,396053690108373
0,396182676940335
0,384700281406007
0,424693687635958
0,394390403089572
0,385327215966388
0,389106229916265
0,377320574529316
0,384676231842958
0,367868697391671
0,414880435983536
0,382906467858333
0,367534242701295
0,372038876078413
0,364017064001618
0,365567490057305
0,355036106158521
0,362509706108417
0,358823538932746
0,350644446930982
0,354479416365323
0,359260663362704
0,343498136305988
0,351766543087271
0,343042529775235
0,347437979583862
0,337259072680406
0,348030053678797
0,340810134397118
0,348841306612187
0,344578713961817
0,343353529180137
0,345455702834942
0,343123400186337
0,343140647715
0,339579476361206
0,334010682032242
0,340112638912102
0,33275790763104
0,338787630118863
0,331320669346453
0,332241421106548
0,333958183165975
0,334758505218533
0,325436734564023
0,331154031042492
0,328962809526868
0,327225496787087
0,325679689007292
0,325409873594118
0,325424857436009
0,318542271346835
0,314410785746542
0,330204604905791
0,358290478148666
0,31477046844273
0,314057575396801
0,309124947782863
0,304032401467189
0,302532115596176
0,296620035529134
0,327175292499042
0,297379662528204
0,295193035315905
0,291327896191405
0,288855359780687
0,295712986749516
0,287525433630632
0,277215049557152
0,284840399436329
0,225024099998506
0,335438830354485
0,264692737753603
0,351258019145257
0,282441979431906
0,267439960821767
0,257779133500358
0,287494425061149
0,276101016417782
0,250720837219017
0,264086133655561
0,247344750140073
0,278831722447651
0,255360212799422
0,248886197262837
0,245278699743421
0,246502286058347
0,270762555937072
0,250090378854802
0,245037548694823
0,260188647134641
0,260871328945739
0,232058477056646
0,294305730330724
0,250565039230705
0,240114171845702
0,229666457170262
0,233445444300177
0,225294285032703
0,238345608176513
0,246953471530689
0,219880325169608
0,233842292083857
0,217369915404799
0,225685177979765
0,228764663793435
0,221237408892223
0,225306820961632
0,224260217002694
0,233480905999347
0,19529831498222
0,237281452579848
0,218866451025005
0,258935388410921
0,219452268753158
0,212647087450677
0,207592228401153
0,247707357394427
0,22865647014154
0,219265423212081
0,216686721780517
0,206035774958799
0,21168475064372
0,218842537193489
0,19271855624085
0,22576223181451
0,208994170207885
0,218743787165602
0,231066848474326
0,241329583775868
0,220951523024463
0,207574859780905
0,204913124508913
0,217693334826507
0,203363311555059
0,214735606722333
0,199461389031189
0,23358097241832
0,202278242315019
0,228101121924501
0,237165165750531
0,222231590892987
0,222038537939722
0,230100505294413
0,218776877271682
0,243802969115021
0,245721997266043
0,245419657099015
0,23644719615025
0,25690870034944
0,254449629993465
0,24589755105515
0,252696278237608
0,254018295412331
0,259093087019967
0,269929007520096
0,274375124334806
0,278992730499862
0,276384218370656
0,282380252044804
0,287642036718443
0,30661312045667
0,309055821833599
0,29371608135187
0,346606301698866
0,316146860931965
0,350701696274126
0,33529813462478
0,340835742974179
0,348840246244114
0,353270816507651
0,357064594332947
0,361300142782292
0,388005464492643
0,384995212515791
0,371885994718236
0,391314666740469
0,382681065193638
0,392306156335466
0,389065836225586
0,418172932457877
0,410097888864267
0,439807017202249
0,419217718022973
0,415430231499994
0,418146654009971
0,416456902739712
0,419186015066882
0,420372112300943
0,419735463691386
0,424969365113093
0,440041076648292
0,437574132208753
0,424270111028712
0,435511571825128
0,431388467871711
0,433307868514589
0,442497454862329
0,440145332170271
0,444804171718818
0,44582450556674
0,440878979913496
0,443863727825942
0,48994907561558
0,484058554937408
0,462115579061842
0,462102702000398
0,474965010484416
0,472070885828711
0,477171888056995
0,478677523080198
0,496523979850852
0,488342601350026
0,489105677523437
0,492306274985081
0,487433881583316
0,5053748383101
0,508482740548817
0,517197965252937
0,506948331820583
0,508257273941024
0,512781759988258
0,554172741903861
0,529734301092508
0,520487146286241
0,538149028900416
0,521817857854198
0,533354120190306
0,524729013268142
0,535062627911446
0,534778500318106
0,53825978952621
0,533729031861555
0,538255211451577
0,532457307738622
0,533363342292832
0,525652056984993
0,541557718740662
0,54369407434169
0,533198314975606
0,531946416960511
0,52918444433549
0,527951758428943
0,527915696312867
0,54068061991943
0,526315090400514
0,516299852601693
0,524436353210672
0,546892160533385
0,532954790077669
0,524414951326803
0,52253777278343
0,528342629094245
0,527394750964914
0,520457731382589
0,529545377874438
0,541343774728173
0,55440169747185
0,541819518832875
0,54198338668794
0,535164088656403
0,549342896229934
0,546555628346885
0,556957755687617
0,556853835551108
0,564147415747316
0,563209062505434
0,5729913192216
0,563473024674735
0,571424663294098
0,583172762641773
0,578425591512931
0,571474395967191
0,575828767636423
0,564186461565226
0,564473352213897
0,569284998836336
0,577336652966014
0,559526343491124
0,565221963475502
0,555915932581388
0,555053981867535
0,556324761060475
0,564245330626416
0,555636711223882
0,55573545905386
0,538230084917694
0,541139970343175
0,541250947855559
0,532418175263622
0,530937989865903
0,533860321929691
0,527075612636596
0,525456492698836
0,529775951305555
0,525539850723879
0,52043882488987
0,519511544850432
0,516098554104675
0,519831743821565
0,514237549258765
0,519005460102668
0,512737535198942
0,512279759198818
0,508237875843025
0,512897404959314
0,514644041270489
0,519875808166569
0,513740721491944
0,518575171425287
0,517577596553825
0,51667225667108
0,517164922910963
0,505257778473427
0,510238677849956
0,510799632261437
0,505599779193549
0,506576682487359
0,509132284180345
0,507040918272501
0,499430625335409
0,503342742229708
0,499545179026909
0,49957335006035
0,495374368779334
0,498415223582638
0,493870170275805
0,496883267633615
0,493058102953717
0,496113958665059
0,486956664097182
0,495795338967714
0,492149086984235
0,490082905720443
0,485714470308095
0,488773741478646
0,489368886004087
0,489503625393493
0,482866051225888
0,4869822590443
0,484930833877465
0,484904247645994
0,482031824753824
0,483825104735811
0,477115152618461
0,474326137389467
0,476763380073505
0,479125289482385
0,473943708322555
0,472073620669918
0,465177315532156
0,46806711118646
0,459127339540713
0,457334972242575
0,456168188250767
0,452072077640772
0,445493528563502
0,441992272267508
0,43669927494623
0,438324801677443
0,430744835550936
0,435792558771255
0,432521549768843
0,429039872958949
0,427874468682825
0,428162213067609
0,423058887982645
0,417809649928985
0,420891004532689
0,4171744176762
0,41833285822259
0,420763717936978
0,420515727077746
0,418177740467512
0,417096481151617
0,417237584625704
0,419858183578306
0,420940902267659
0,421737444195873
0,428712391967215
0,424049927260947
0,425442691764111
0,423321528806262
0,43025553131041
0,430156838834187
0,432238345589606
0,430923436004375
0,434212537995723
0,43386206222481
0,442148200239486
0,433960074584095
0,439387815131412
0,436897803365898
0,440542409759618
0,438122928203877
0,439079140399256
0,43937604688456
0,44210318899703
0,436589471032833
0,439852501662322
0,437801242527274
0,43601591661433
0,437727659500485
0,433784876038395
0,437731280943453
0,433511806973663
0,430358163372341
0,433060594719209
0,428998950562425
0,430095001926215
0,430137701980561
0,429045672411738
0,424489169712851
0,425705553514909
0,423582935828371
0,421878726877185
0,418808410876539
0,417891474282313
0,415753514281172
0,41784781813027
0,412408371628467
0,413450026751471
0,413913183654496
0,411119053276576
0,406634404157494
0,408391621250014
0,40490411416236
0,402962918868247
0,4073856172637
0,400969225248844
0,400513143597048
0,400511503456245
0,394699829900339
0,393804771303494
0,389364498014235
0,388974464792487
0,384414827164252
0,382088004409105
0,379433566411845
0,378430096682384
0,376835947871846
0,375135422191034
0,371363972328171
0,372341654473418
0,368652771237703
0,367413344905883
0,363600215962063
0,362020005576832
0,357524116634938
0,360021194735578
0,356079851942424
0,356119212802225
0,352667235310161
0,356621803527582
0,356447159348495
0,354889433006684
0,3532992499849
0,352412813614953
0,348731042545754
0,347696511011749
0,343173400713882
0,342533760495147
0,337379618077629
0,333115853971327
0,328269719191099
0,325028469831401
0,31892217437405
0,316270809123888
0,311871395023481
0,306086510962017
0,303369487829956
0,299830347396215
0,299127512405993
0,300256880430528
0,297180586545499
0,303007894957558
0,302809661499969
0,308669800779039
0,317611556876243
0,321511564038027
0,327551062330654
0,338672213063894
0,350947397609326
0,360649133397865
0,372362026133044
0,387840965241524
0,40085084854227
0,415808461003326
0,429036712473869
0,446273220649914
0,464427482858458
0,476863424391249
0,497125190100625
0,514704940263285
0,532904747026888
0,552357740982574
0,572655585362424
0,592464209029035
0,611049931806582
0,628878726891068
0,651753155302998
0,671615389272319
0,684416850933966
0,699441719904427
0,716025495247728
0,7279994432306
0,744135494465514
0,761502252982217
0,769397157069711
0,770433399865684
0,786973779794701
0,784047585279714
0,792130166394099
0,790917074922906
0,793342889196655
0,791678412256605
0,78866440126709
0,785406875404064
0,790622563822639
0,78097711757652
0,773379522432247
0,773611189111371
0,770136483184747
0,765909906066348
0,7678977098006
0,763381703333062
0,769190516254959
0,763708013614827
0,766083364486895
0,767700780776051
0,770291799169073
0,772058752315676
0,774756390355784
0,790289217172116
0,79210173269205
0,797587234870727
0,803298567779569
0,813646291590141
0,824237068007777
0,835320410418224
0,84843041975047
0,85731526297836
0,858806428999884
0,877447265819275
0,88127041732324
0,89243856184213
0,889151292986096
0,89035560258104
0,901680768864632
0,903213394713174
0,904546428011515
0,905945807905778
0,916698218753201
0,91418713950625
0,912820202640497
0,921946930867543
0,911211058244946
0,907180040828766
0,906725508902778
0,917393167641961
0,923416875890442
0,924072625646359
0,935384740746762
0,952260727994696
0,942361109444938
0,959632998197323
0,9692634149404
0,984544454102375
0,989042972558022
0,99187148846248
0,999522152052213
1,00702935776937
1,02459168181315
1,04524046717156
1,03914115598264
1,05767499050582
1,08373785463306
1,09264595152703
1,11693125929445
1,13206918398592
1,15212930723177
1,16252735054249
1,19742009069333
1,22889607906615
1,2692383988472
1,27576829842839
1,31141050551847
1,32824359517879
1,32960476764377
1,36365713417613
1,37252396164411
1,40887772971076
1,4230439912409
1,45461324894608
1,42778130413825
1,42181204829873
1,47128635879078
1,47983063315639
1,44499036771051
1,48394075062351
1,46218930255754
1,43453775371134
1,46822460559294
1,42505102696146
1,45417297654514
1,47176692992532
1,45853203041217
1,39635120710474
1,43282209694318
1,48486402090767
1,48400526399301
1,51995306224751
1,44685964392594
1,50618939459483
1,50829323014289
1,51565542206631
1,56683263819304
1,56497714002249
1,60834592541654
1,57691145360527
1,63657656341352
1,6410981114382
1,67404508793833
1,64045260109841
1,66191529654892
1,74816310600102
1,73505407602534
1,72438762159357
1,79941690563529
1,78138796723354
1,7559927443497
1,84532698888292
1,758041205117
1,90219298426228
1,7901393453388
1,94435759797472
1,92454739886211
2,0025046125092
2,02511266053495
2,07761000312033
2,18433713511484
2,07250310100422
2,18255766203421
1,96571402824367
2,049901562004
2,01724619814926
2,21227783130045
2,05678101816469
2,07345903923302
2,35073966819155
2,61473868160286
2,07624505343727
2,18051332435267
2,51856999701022
2,10878763908672
2,15308267408172
2,07415684817226
2,23255631815581
2,13006854591458
2,2641627186102
2,18938480804133
1,88522678113934
2,17377924833056
2,05520605711105
2,07226844028518
1,8930923431235
1,89608931069015
1,95807802083608
1,8854267816873
1,77408914396966
1,85244457656844
1,78374805045212
1,79607101433748
1,72747709223406
1,84618495835886
1,7226048541177
1,79830926955391
1,6816727831323
1,64369715028501
1,69019618040317
1,69757715734656
1,61711215298549
1,56907337244698
1,60097585956825
1,60854684179894
1,47892720776185
1,4681009326295
1,4588880125773
1,43809814675879
1,34996339097947
1,32857025308861
1,28664771528898
1,21171935596883
1,16687324394707
1,13248059920864
1,06532273063917
1,02349838079627
0,970983144565856
0,922625203136877
0,879282848805486
0,847798376928249
0,799669811986151
0,765358094427546
0,728874884126765
0,698561916541361
0,670595253986477
0,651804820754819
0,626392501454036
0,607683567042026
0,583213168472967
0,568476721518867
0,553884233639192
0,542950699069023
0,52850774687075
0,527262887970973
0,511959702723659
0,506090136707857
0,496992881660043
0,495922961462084
0,491849034095063
0,487674569482565
0,485911636450536
0,48259225806875
0,486214478359452
0,490063048418706
0,491170971064628
0,491510056693715
0,495990986990968
0,499126780924658
0,498877935377404
0,49969241791997
0,501303003370725
0,502541178625354
0,511914516904995
0,507773606513114
0,505664067287921
0,507849771976941
0,504631613362156
0,511167004314386
0,510080417572225
0,503578315972141
0,509530854088166
0,511195542531981
0,505021830008736
0,505801176466778
0,502308713423108
0,515831163655266
0,507996848321173
0,511460079326291
0,514143850705177
0,519456793398814
0,514223313362856
0,512368930046938
0,520409046379304
0,514272828563164
0,524149630893196
0,519423991946141
0,52850294269464
0,52553077365276
0,520910373861667
0,520177239592833
0,513536828215887
0,517942837479298
0,514037816672881
0,52267514673325
0,50745026183722
0,501645539342466
0,506174793085535
0,506850166913508
0,504255706650178
0,512113057854987
0,508024900190694
0,512857359637139
0,513757051902048
0,516588972134472
0,519370657594265
0,53240281518191
0,536439549524302
0,54459191578148
0,54915378664022
0,572775346444255
0,58102305874091
0,586427501307605
0,596946743082926
0,618091295953926
0,619214773879103
0,614535672287659
0,613829896655454
0,606963344654782
0,602566452014741
0,605785263126708
0,594625956301544
0,579828771470166
0,583962083071466
0,572277331717255
0,563229623272264
0,55843458482655
0,545652551738934
0,547655087431897
0,547451497681395
0,549724960238455
0,541832909150163
0,548223747063705
0,554174915582425
0,556771664542853
0,536491898980197
0,548454377559936
0,55086773664722
0,54838561474122
0,550867761775496
0,5444900104681
0,543666506226017
0,555088790430884
0,551657179091769
0,541264664815976
0,53870267688368
0,540360807989126
0,522723296587046
0,532489801474394
0,537030198832055
0,532180742923736
0,516623438238896
0,530842744461069
0,522365723964007
0,524456779686303
0,529754767167897
0,530337125642787
0,523505106786437
0,522494665141509
0,527342862779843
0,532109555900656
0,527379790214502
0,512946047889801
0,52338355413799
0,528873861734756
0,519641270185193
0,527063625665815
0,506039537457261
0,505381754126564
0,517388805213577
0,52935562130689
0,511853561206496
0,50755754883487
0,503923796380282
0,506269310000093
0,495519732962323
0,491313990667722
0,483636087139263
0,484624668553513
0,491045490373333
0,485954401934738
0,470057128856633
0,476939032748689
0,468891888148045
0,468917268054003
0,46377082654989
0,472170546598844
0,470276516186292
0,480910364994702
0,481332497534189
0,476488002614999
0,464844180014382
0,478043001808422
0,469151446525087
0,48263167576398
0,476388184559343
0,482131053414604
0,472577645975132
0,47868904452127
0,485667583578227
0,497583816115873
0,49058563952403
0,495466871641189
0,487057813505394
0,495101513687208
0,510582223692245
0,510277420968717
0,494367324542341
0,495559894721438
0,499619154473881
0,527970235943827
0,5305681031851
0,536821478538566
0,52959926543684
0,549472019354646
0,555035569410758
0,56752272392105
0,549562889784884
0,578646943781841
0,593788703762895
0,597993882822878
0,595673148238784
0,612357985730113
0,634621152435388
0,663019829108796
0,686515042266612
0,668128532744888
0,672526117541336
0,71836657956576
0,713025155220754
0,747371838286899
0,73421739273789
0,751028404645166
0,767791520145022
0,772361938208543
0,733455317726723
0,770186055099237
0,770447401611266
0,736185725591952
0,751242910814408
0,774562019711519
0,758675288747161
0,787671665121794
0,758220241393292
0,755255750674233
0,72631297128664
0,794234540185484
0,787694907569083
0,760301611968831
0,761734772390658
0,792668592388098
0,745540999570558
0,718953503933095
0,765120427123089
0,810496182670947
0,724999604945508
0,763298292216481
0,796801090495794
0,746152893494295
0,748399731654393
0,738456125068394
0,742709684886714
0,764268775467815
0,733446725779978
0,751203245140422
0,746817217810579
0,740753157211683
0,723961648660458
0,767620437404118
0,720448118903484
0,709783255529853
0,689664256836071
0,684573909007576
0,724137563910628
0,751012277402098
0,684420683850588
0,744981997710401
0,728391367465768
0,730087799360813
0,789688460149405
0,739923474283752
0,765429632412199
0,799482665515541
0,669236044055741
0,726857346110809
0,788513293001083
0,779997407989379
0,687260864904504
0,757733557976082
0,765754316501829
0,784273581048307
0,778296604591634
0,770821696598216
0,665194777177561
0,736888413941371
0,785910331307995
0,785385853642372
0,740626728274617
0,815519397649712
0,744205314994431
0,765143945949558
0,750543882656766
0,805321423204251
0,816271135095146
0,821929342833793
0,766550051270945
0,80171976224289
0,796382768091011
0,869701683966917
0,89196954317047
0,891327712753744
0,855251413181184
0,953491837649942
0,808021844680441
0,902113959081088
1,06532538471161
0,932441496061441
0,891286734044925
1,03125642177833
0,947360613749043
0,972719672379327
1,00021658371251
1,14354002626728
1,0717069949103
0,988554032831527
0,908524587138238
1,08676244467846
0,981151871263459
0,966432471104605
0,850988283787752
0,855712685541811
1,0032640355083
0,979618071334442
0,813630111358445
0,920170294723956
0,945088288409871
0,968244813877646
0,735765468011221
0,810572666122192
0,786454185426484
0,751190843151032
0,979973281373105
0,933517370364461
0,946104346521117
1,26568203919858
0,968764571281077
0,963055536342623
0,837818257326713
0,880937015560677
0,746065946361215
1,16824517980819
1,07941538663596
0,961249006423541
0,847819687074243
1,41739372380508
1,07192643347696
1,02316419610579
0,881720283432319
0,934050403348126
0,74691267612853
0,846395351024763
0,846565225784893
1,44371849472479
1,1305942726474
0,895550627822565
1,10174727245207
1,02562176774323
1,24651062898394
1,38868764359291
1,12289322572202
5
1,02575718179443
0,800674866519281
5
0,584816271111324
0,45260391408192
5
1,77386410790477
