3596
4000,36533379555
650,420452594757
1
2
2
0,0652782732849148
0,0595199264350247
0,0576768884847489
0,0487851492078986
0,0557909761782172
0,0555397475591392
0,0548249453563554
0,058028304589065
0,057617874644983
0,0596506437633292
0,0655786785642334
0,0571342067631058
0,060022728849299
0,0650738878058294
0,0630504748075824
0,0644260158453192
0,0614901325412414
0,0598412386927946
0,0673157452556315
0,0537725898955594
0,0586387757285543
0,0483408043439524
0,0623567689773478
0,0588327520045184
0,060478754938159
0,057036531197531
0,0573411394155841
0,0526298639571282
0,0633780977730235
0,0642837345951001
0,0620203021290277
0,0583961927985743
0,0622731360706524
0,0580979599816161
0,0588869391770128
0,0568257491087173
0,0554011156799156
0,0599712677209117
0,0578271347157952
0,0525620201608258
0,069163037521756
0,0582876356057499
0,0621108699152753
0,0554587274724889
0,0587238042779774
0,0604519931262247
0,0578846415356077
0,0495843376096311
0,0543359610115248
0,0575404304562109
0,0549592556555365
0,0488739536497216
0,0551832563262123
0,0639815186196041
0,061836661186674
0,0635703954964198
0,065816238347956
0,0627796631008253
0,0547235209147432
0,0445538758540614
0,0653101996954367
0,0712234356932228
0,0614926874671665
0,0507668210669286
0,0624593882995181
0,051723116158665
0,0603979761611202
0,0448310131112794
0,0626722778985769
0,0503800571698228
0,0451776674071119
0,0540559137547602
0,0774736380449508
0,0619314734985529
0,0622420684436718
0,0579488839893182
0,0586891375516279
0,049186290373703
0,0444712125682603
0,0426635262795676
0,0775969611024107
0,0615507212450073
0,0572358755365397
0,0357314555644996
0,0560950123240122
0,068787956313376
0,0509387593272781
0,0440159920355269
0,0714408153729493
0,0611271467799244
0,0551084337396132
0,0480461404032155
0,0477933001446806
0,0433849775539515
0,0619375210087359
0,0446379951655236
0,0537935775764859
0,0531658572540514
0,0503630163597433
0,048000563054554
0,0382457117340721
0,0689860402403257
0,0820905300422816
0,0508887929585844
0,0533173408985261
0,0646781732625931
0,0301607345551982
0,079541549191458
0,0770921014267493
0,0497217943704553
0,0608505707771991
0,0396455964945041
0,056417207970712
0,0457673883163495
0,0383620278395247
0,0519375105593307
0,084456037734636
0,0579217511994884
0,0528847337080988
0,0430161492250291
0,0288021337895607
0,0494615209201799
0,0793180090321507
0,0605128156217031
0,0578911317076238
0,043632615812525
0,0299469395531114
0,068244229710266
0,0750264905764323
0,0574155845763689
0,0482937974820766
0,0582243801911024
0,0280934016780537
0,036370974165528
0,0787398444284332
0,0673302031233564
0,0433204772774205
0,0277476848420481
0,054219612610341
0,0977476295130796
0,072687092004154
0,0541648104988651
0,0292783688688402
0,0356232970646576
0,0793670303829016
0,063704498342296
0,0411700275233683
0,0642501674766502
0,0568049633900106
0,0534358466863635
0,0406109283784635
0,0393948707978045
0,0589906512907306
0,0516397016893874
-0,00437218475392393
0,0651506373908817
0,068207811125506
0,090677134209846
0,0862512217090702
0,0798684329984895
0,0353795750986063
0,0646278270380861
0,0504054614562569
0,051969334361731
0,0421970377799519
0,0346406527187022
0,0509920162400485
0,0764045317590729
0,0551612228682059
0,0431708356453762
0,083136838016843
0,048874324608616
0,0153586036278113
0,0828530742520986
0,0595303625357311
0,0384211857859072
0,0739214415061275
0,0670630140074175
0,0263671875719966
0,0658557358481576
0,0728962053905766
0,0577118509785385
0,0445192798074767
0,0437392063305883
0,0351084011780349
0,0781381516804244
0,056767792960226
0,0547999980179712
0,0400399599186375
0,0194820505978197
0,0118948383500546
0,105508242551958
0,0724501590294233
0,0663308909428174
0,0380248585386725
0,0248392861554995
0,0648664820923791
0,0926328824156203
0,0589941373436999
0,0547352207225013
0,0427452677124043
0,055842812226519
0,0479079741029449
0,0610398890337212
0,0350442738078058
0,0362674014734834
0,0638876939065539
0,0818220904132405
0,0504998149869947
0,0466248047954887
0,0382420347240398
0,0225074519144249
0,0817852398884749
0,0904251969778366
0,062094125464582
0,0408812479111467
0,0421541135432732
0,062228479991822
0,0624713668971237
0,0604899534960458
0,0492067850572261
0,0532838471098429
0,0541393807411296
0,0564187300661001
0,0474872965819637
0,0533040179449327
0,0488596804215002
0,0548942791508005
0,0493219307401197
0,0537463506163664
0,0655814046825477
0,0631826634614548
0,0542796549512268
0,055709804618201
0,0320485726802628
0,0573683793571264
0,064138290736186
0,0677626208189371
0,0389880041309507
0,0564938243035706
0,0490197026405722
0,0541311740135494
0,0479725338723392
0,0620970868044231
0,0245583599973016
0,0463999393681067
0,0659184468730711
0,0777861137898715
0,0477270003183418
0,0413679471472433
0,0581562699077062
0,0708555489967596
0,0620366746608394
0,0482188303189206
0,0535284710534227
0,0385043202276283
0,0381088139245029
0,0902113096083473
0,0648477194736334
0,0396202192206723
0,0657263537464575
0,065960810532035
0,0559636377272675
0,0244875525784608
0,0380874371735396
0,126847834610676
0,057293370410019
0,0349260835960737
0,0904376227678302
0,0808557795992084
0,0633636568559044
0,0347885728940284
-0,00822008852623415
0,134919853048565
0,121490196859221
0,0565906379680156
0,0435900847432632
0,0721665223782391
0,0531463477524788
0,0654981422581322
0,0501785235186844
0,082927208759086
0,0408483853300557
0,10295474503916
0,0855612558554759
0,0485454853242427
0,0710585908856509
0,0807169335698085
0,0722261825029904
0,0577695886388727
0,0566196345479969
0,0361844028011061
0,0615925065348646
0,0650278270130019
0,0881724846933767
0,0501583486257665
0,0459844002084457
0,0756141246994782
0,0796006866918684
0,0498914360972703
0,0679311668285678
0,0683759713981159
0,0698251739898468
0,0559662054894419
0,0559571698893825
0,0762156974057264
0,0484343356265992
0,0442756581819033
0,106261053178588
0,0656912358738536
0,0672427390309539
0,0930711131326972
0,0751585469673503
0,0610268708927373
0,0646248412807546
0,0707947513543851
0,0655727138316278
0,0546862828282461
0,047451962512023
0,0928286116756254
0,0767430769910183
0,0744699317604683
0,0677277506056555
0,0708812777728355
0,0626031874895525
0,0749921505341886
0,064495853268823
0,0769870176030496
0,0661127145795667
0,0484141197553043
0,084587547846644
0,103260297547742
0,0429532663082313
0,100713868393743
0,100654019217667
0,0947728397085672
0,0749945080924585
0,0835509000271182
0,0753785668184167
0,0748799648623133
0,0759565427001034
0,0798552508074973
0,0778716136946391
0,103643391904769
0,0822685232026017
0,0784064473465687
0,0496510322920151
0,135720496639115
0,129623985535536
0,11691225671211
0,0802033670688974
0,0605745796788812
0,128142087548412
0,0951748709792965
0,130209050687428
0,108536737936254
0,105829005587589
0,0988847120287254
0,0987094560050183
0,101808895906086
0,100106787362976
0,106655433724097
0,0927833883373599
0,108472048650718
0,099042995972303
0,119334695646082
0,084687011931554
0,112836871865671
0,135082920750372
0,133522460978525
0,117090030328973
0,120724099984105
0,0923147152039395
0,140962999386331
0,100153461157227
0,183267660559007
0,109741609435384
0,180540379793881
0,157291453802647
0,147072567184594
0,122843321202666
0,136219367770239
0,131870142492885
0,144586276045445
0,1359908162896
0,156347109076777
0,131167221977068
0,139333684063407
0,142365130298933
0,166007248234421
0,136728378040272
0,156065522403134
0,167958468462145
0,163886762852076
0,161162432397721
0,14223844586058
0,150756375978859
0,204480016513405
0,214712909332883
0,170193602850169
0,183295907609295
0,176297973781281
0,179594776953692
0,174439710988289
0,186967436518506
0,187983939305775
0,15884685319296
0,226848734883168
0,191336972986898
0,247622931691546
0,203326109840376
0,189270210742763
0,228906489419287
0,191710850519756
0,207648742846262
0,248585204091124
0,217182975596583
0,197124386151733
0,248620287682827
0,218063605072813
0,237164707874062
0,242284185547901
0,230468034632018
0,236787679269569
0,222875688597776
0,257868551018761
0,228159428914795
0,271720289196409
0,239622753746987
0,25261860147857
0,254787589982711
0,279985091553848
0,257058068843517
0,295041586825374
0,239008763813363
0,293715668966259
0,277380298134649
0,303183334669459
0,26910068873923
0,263618088432432
0,316795349710841
0,293163867074338
0,321391556359083
0,325050945690968
0,304919516983137
0,326335965936017
0,310078683907116
0,310932096487548
0,310452216000964
0,336852539867602
0,319640022068651
0,329693953241922
0,328212335209473
0,333066378294871
0,321298783962705
0,355062839691281
0,337831031775264
0,362491076277675
0,339458593646233
0,351714314648987
0,340511922662489
0,35068773226431
0,391833199564225
0,409779090060096
0,398986636535216
0,437756760186154
0,384370700413759
0,391352995978691
0,381577922651302
0,4212898311917
0,385053574394478
0,408370905322792
0,406706471755766
0,424028476438312
0,406422785426648
0,44599330393046
0,416024885015458
0,443342933367485
0,41259544416635
0,48948938712725
0,44805910339898
0,46554941865834
0,415287712269194
0,479659812740626
0,443991172641515
0,458090088528816
0,473032268096269
0,498818186433882
0,464881142352051
0,511550712612972
0,466709284687924
0,510308915528792
0,462502090092542
0,528461837182512
0,492655146161766
0,516077129869297
0,479056987682037
0,527338943921813
0,499351428119758
0,554074092599316
0,526395604489805
0,555372255239681
0,561831611860868
0,585805038315648
0,549133494195508
0,592554548690873
0,544196913324263
0,580172135501628
0,553282143665197
0,579469490223244
0,559283404304075
0,600585329256879
0,549568143601069
0,625938689496144
0,568759205862549
0,623775730273872
0,570359648747247
0,652089772463478
0,578752956695529
0,608183943833715
0,592390761410163
0,638089162436991
0,607234176735793
0,675557126940981
0,608266188477294
0,668753704771157
0,620508263517627
0,718969306009179
0,668594271283422
0,696015560531885
0,688218222846852
0,730173296490079
0,660624435792345
0,72669253984128
0,691723606774684
0,732477882102113
0,644499725037364
0,703657237118379
0,667813673131883
0,774291516530271
0,692801429624574
0,745070002063146
0,729240897276204
0,806644499911343
0,749418996604584
0,77346754855186
0,687152400767606
0,774161804934121
0,7747938467515
0,75188593008127
0,728075944705576
0,829790163300802
0,757214058756648
0,831783631039483
0,747431522418253
0,809820344725085
0,715362527722788
0,826884410651733
0,77715974802195
0,826050451589671
0,82696808990495
0,853479057362103
0,750687745102521
0,890130345943078
0,845023346767661
0,829513741250211
0,825324931034517
0,841999605250991
0,75177721295656
0,872903035567954
0,811775720909933
0,887990001920765
0,818585499010651
0,959023614742955
0,883731543788578
0,916544462641704
0,873263561004005
0,948986559754921
0,879649899651343
0,920320907418941
0,826212891586742
0,917048049046071
0,87742985327894
0,972421759422934
0,928434062215394
0,995062082369188
0,936090745148854
1,02627518215575
0,952527596620117
0,951788421442664
0,913464002188325
0,973847238399597
0,94964763747733
1,01084674562994
0,957741355887664
1,04333307185395
0,927977329162239
1,0889674874906
0,924321626892068
1,03957775486872
0,959668915492573
1,0328212664367
0,937659475819326
0,987744841896562
0,939988780934737
1,01160948660543
0,996105043335693
1,08047831317285
0,971282980920901
1,06561730635061
0,983254925572817
1,11415717354628
0,97640080665348
1,10412311192203
1,02771323971155
1,11727398082043
1,06528014360685
1,13436488180796
1,02269253552629
1,09288970954304
1,0277262711123
1,16730950545301
1,09925689675034
1,08337606995533
1,06628568520655
1,11701793147342
1,01507292354782
1,18517847252666
1,06581885544914
1,09927327792715
1,02263231941771
1,20200062563186
1,08340365615362
1,12597370231203
1,08623642892234
1,14771906379789
1,10901944365954
1,22935466143187
1,110715582409
1,19791626590433
1,0456927993396
1,29407208529597
1,09508958918969
1,16282276873369
1,06269577204551
1,21892313362403
1,13392274364792
1,21624430714766
1,12355140534624
1,17757065956613
1,12113770266515
1,39337245605009
1,11243539405239
1,27635555340199
1,17156409441822
1,23829220014103
1,18482847761894
1,27851843782651
1,22163994966894
1,258236041057
1,17902256277984
1,40437585907874
1,1865548778458
1,20633578133873
1,13905537752554
1,3240941970946
1,13330146620732
1,31632088101457
1,21517878993388
1,29155449642289
1,23844650686429
1,25903198571078
1,17592559247138
1,34262851280395
1,1310042900181
1,19229568534094
1,23697436725636
1,3094361793849
1,31014644013121
1,41149976754891
1,28350728119214
1,27831974893978
1,1905293318711
1,32506981632141
1,1415983616386
1,43898421952943
1,17285622038723
1,35763137521012
1,25846108795464
1,34441419579285
1,25989877834045
1,31974279042154
1,22817157439704
1,24220746710563
1,26786841887891
1,37445040041156
1,28433766448851
1,30962564361776
1,22599817386747
1,37966356776449
1,37099667455844
1,38586019011083
1,32305996924378
1,32546918282455
1,20676739150091
1,40139056257068
1,24835649194223
1,44299141087145
1,25046224172641
1,36546274789921
1,29122210707466
1,29591774282246
1,37260667190493
1,40279028685409
1,32580425932389
1,37497899960062
1,29105272439911
1,34686429238988
1,27319938647058
1,4581248281211
1,28159314132946
1,35138914691155
1,26798506261225
1,41477124649354
1,23846158409848
1,3701728846167
1,2696551545509
1,40913614541186
1,27248186333514
1,40734071927256
1,2946078761697
1,38749272666451
1,31477648296872
1,3896841782916
1,3166061694703
1,44349946300854
1,28709178281049
1,32785707232891
1,30506849128394
1,35310673055776
1,29943769228611
1,43086049641528
1,24954474477446
1,29589203033842
1,36412457638613
1,32355023834151
1,26930849895211
1,35088730755658
1,25891554440519
1,43128290943506
1,2040818816694
1,38827436317146
1,27689873050044
1,41815469381919
1,31811693216203
1,40428264966659
1,27849315118319
1,43520855672252
1,28109334672962
1,36114665681553
1,29442687473836
1,44115802601827
1,28780429429918
1,46124489507185
1,25188580958443
1,40810615526135
1,391133359643
1,49200834783462
1,261597125076
1,35827499866162
1,31956409250829
1,3349146986047
1,31613669654574
1,36252857286299
1,18761351065804
1,33126025279403
1,26048231789215
1,30620612437861
1,18984108835049
1,44960948556241
1,29292914607384
1,35821740819107
1,25205676904023
1,31943869171738
1,25117069150858
1,43947077621247
1,30093440852395
1,29834535541038
1,30783513846026
1,39371398112619
1,33722692873364
1,28502229197549
1,30980290970513
1,34530999343786
1,24386337327645
1,40772119525579
1,24039693009559
1,28091384488538
1,24232443772534
1,31097359567176
1,22736341739583
1,32013616758008
1,32583646495216
1,35174790413042
1,1900887155507
1,28369891467746
1,2726624068634
1,34188698055511
1,22528199675254
1,28744752354913
1,21149265241721
1,33140481794794
1,2803057891294
1,30277644675024
1,26140928184483
1,27237558615703
1,24309210321583
1,27038501687405
1,27422758577003
1,27477534242581
1,23998048681683
1,30750414921402
1,24821339970418
1,2838079464459
1,27681382318317
1,22434774934902
1,17312603711205
1,32999101095863
1,17999177356271
1,30993006055166
1,1916566408355
1,20735878135752
1,19781823881202
1,29300759728178
1,16877821494594
1,22387262585468
1,16922414277132
1,24375459843282
1,17090837685218
1,21447948481442
1,17617226767205
1,17730618349669
1,12795520987642
1,25987364704411
1,13829147436912
1,18208806732942
1,13936146031419
1,22938993014016
1,1859738208952
1,22179807483424
1,11765058908317
1,17451380199949
1,16043864207661
1,16312191122831
1,13259667642446
1,16766370456694
1,14837437303307
1,15074810313807
1,08371714774349
1,19386296801481
1,12205767856037
1,17306432731208
1,11348830746668
1,14435938802906
1,12172399519983
1,11525164794087
1,06527709044746
1,10757018132494
1,05289309369518
1,10854749846346
1,0774899082558
1,12063352016519
1,06799937938488
1,06787656544112
1,05738424658503
1,07575883755229
1,06631624355302
1,07607277612096
1,05733905839871
1,07713585026928
1,01544033558721
1,03973725753482
1,02707725055871
1,05548076009806
1,0066201288017
1,07443052164032
1,01651119405888
1,02205405226383
0,990119136890547
1,06506528899731
0,988380032040272
0,999847043560336
0,96754622141595
0,988925138845663
0,987749995818354
0,99597105198789
0,967557920209894
0,974554058895142
0,943785435261571
0,960994786149484
0,944747167454435
0,986228506308788
0,925368148152877
0,940704987350866
0,92011780993345
0,954027755503403
0,940661842585363
0,945704274717574
0,919719788257058
0,911682608635329
0,898997648896582
0,91617118375983
0,875665636865415
0,898915366811739
0,888862010811603
0,896259526342569
0,862628145043748
0,899575888733031
0,868927351134755
0,881576589826108
0,848022102672648
0,858808114438502
0,865392227131971
0,882758130801672
0,820484665191024
0,844620058133131
0,848714897066958
0,860589196766235
0,831841135436881
0,831123455748438
0,830263798481446
0,843057051202873
0,810580211726789
0,820065178400121
0,794953791155909
0,840874353118683
0,807426571663274
0,790718230746273
0,769280443757803
0,795936543775125
0,77219829535014
0,777854846649531
0,771142351697509
0,768665647678317
0,734541814986034
0,767150968304066
0,750234087103382
0,773713920461489
0,749846430024936
0,739489691056291
0,737743933938972
0,748945529816766
0,739445305100996
0,750355778745613
0,720394554813111
0,721009413268226
0,709477108451774
0,731330573801196
0,732982974496653
0,718154014305254
0,68571884310967
0,696746737677388
0,714410422170533
0,697404714776467
0,678154464980805
0,687617095245174
0,683896019313398
0,69003758817167
0,662872619536612
0,672419527727574
0,65797069030954
0,675245015163155
0,643445038828103
0,663828234844781
0,640695448969839
0,648072136775074
0,644425972155358
0,651965366775358
0,635248271162775
0,640732636070219
0,625691864883856
0,626960094357161
0,621897517954351
0,630928889020131
0,615841762549991
0,617236845821611
0,603475570798299
0,608824968137069
0,606241558825892
0,613390746782246
0,596326710198673
0,603628288076913
0,585344814190901
0,589112546256326
0,5827073362701
0,595398998549532
0,571185696484604
0,581848271288733
0,578748278907231
0,577874743202157
0,560943985501117
0,568284661967498
0,56561903698472
0,569517905216826
0,553221368602603
0,56503512044239
0,549579563486544
0,548689075994984
0,539879145851745
0,544294328785757
0,523803110331
0,530513752275211
0,531829161147283
0,52732312987178
0,523310637541465
0,52674554961666
0,507657688155253
0,517727808863897
0,51269289080244
0,51876681015897
0,505787528955602
0,517104409319427
0,500159707160981
0,505438565588052
0,499466504931365
0,505687180349712
0,485736015783163
0,481971103671418
0,475394167471314
0,486614360463256
0,48461154130172
0,487251858310188
0,476288095836026
0,475855232359171
0,466626124162882
0,47294736779068
0,464471473826045
0,472952149119112
0,463139704417495
0,465953880876339
0,464956123354415
0,460287194474351
0,445957339870915
0,458275167295665
0,458295697783138
0,452448213992207
0,449987892268659
0,45382444549381
0,445718027313775
0,450902687149999
0,435578039358719
0,445970106987361
0,430973321700947
0,435815955569426
0,425546673167608
0,43796432420153
0,428448890461252
0,42816676413525
0,416035287621623
0,429075232598137
0,416376239553722
0,417591329880053
0,414138676448818
0,425099253108411
0,419179918840846
0,422246039663088
0,417140527050409
0,41914737869468
0,417718934251672
0,418459187681538
0,405290399241656
0,405063040048103
0,407107948794766
0,406434620684899
0,405971884976704
0,41568258391117
0,40864951178705
0,41164192870445
0,402661354010164
0,407985894590235
0,410901228300186
0,409788951278623
0,41665203843914
0,419087568332119
0,410982299776791
0,411643825967565
0,406844115723487
0,421298465349942
0,413554225354521
0,41498661713614
0,405173424000559
0,412370114352708
0,410543681069044
0,41350798850732
0,41348802705459
0,428056356812026
0,419106003471042
0,421511187038024
0,419213112618237
0,425963124467344
0,422764050044188
0,432426858636964
0,423771968919385
0,434103321459739
0,436196196622754
0,434968447719116
0,434665753534314
0,445247853264293
0,437219597017671
0,440855435821785
0,441828028530786
0,449642426938032
0,440480427335991
0,446915936914115
0,443220906768639
0,455022881689387
0,456147272207858
0,461606192848095
0,456323700377749
0,46268822468578
0,463405472599263
0,470079432203946
0,475782429036985
0,477410721241471
0,480095340129362
0,494213210235567
0,490360160307087
0,491638330174391
0,503979087456006
0,509020429345413
0,500531818081462
0,512177027320437
0,513101604703591
0,528373989801293
0,518947620085527
0,523460180108655
0,533484291324456
0,546732606805481
0,540493933087575
0,545098361367929
0,53872968001951
0,550108046618646
0,563824822495506
0,556902692833814
0,54830876713254
0,556065647832054
0,551572132094811
0,56823198074872
0,562258263074953
0,564400497503222
0,578477736224047
0,57674238148757
0,562734194846623
0,567476970289817
0,5640577440292
0,572353413619482
0,561042555051329
0,577883336630301
0,554354642164009
0,561382240956755
0,563195085955647
0,555270924238664
0,555826197356364
0,556108832914053
0,552757569424329
0,554553575245849
0,552100335736378
0,557890551046398
0,548826325257341
0,565740305921978
0,556166429504872
0,542314255666545
0,552908009971566
0,549516569339431
0,544661242115523
0,546640102143173
0,547529134225522
0,557837087071946
0,549525550439972
0,544342847516597
0,547007828169199
0,553823481665127
0,545389522889072
0,552658447714154
0,547053374477872
0,548677795900926
0,548897843223318
0,545129284875545
0,544435365879812
0,546651257905894
0,542353653945985
0,540417166695323
0,543563413875062
0,557416122891513
0,542811929146648
0,544137458420876
0,544139946492254
0,538463355743438
0,542852480159215
0,544336245224995
0,532973906723136
0,530963135802408
0,529363755761366
0,526293687720944
0,52787566367219
0,529344453078448
0,518046770423537
0,51693379250557
0,516880483044497
0,508428645124305
0,499777932868969
0,508133690472615
0,509187095457632
0,504042166261523
0,499145795206851
0,491467628340257
0,494219925885992
0,494231661973153
0,480266872897039
0,480648101817725
0,473721747133506
0,47744300821807
0,469012901685594
0,471606810792427
0,463456003741722
0,469525206540616
0,464081034830382
0,459833217250936
0,452251714707266
0,446873966804405
0,450011854110424
0,446722318410346
0,438582089592036
0,437593895016938
0,432677709779925
0,435387768090494
0,430622963372476
0,430213164258385
0,428944042603583
0,425255268597814
0,416419651154224
0,411717010652096
0,415733843627061
0,414846044056492
0,410131805409668
0,408001788666559
0,403617673380019
0,404175626232549
0,40398063577231
0,398851454418399
0,399322794409787
0,399678223280118
0,39065222072353
0,394051424202425
0,385512199502182
0,38608869184668
0,383961128204329
0,383034602448194
0,383733850720272
0,380526264187197
0,376409542494894
0,373541518188391
0,370343076622254
0,372910863909499
0,368401303047953
0,369866337232222
0,375257935131274
0,371871401425811
0,373162834760505
0,368751344955667
0,361506647678721
0,357744980538399
0,358509307913582
0,362288894840075
0,361523254906879
0,353542668882409
0,352575272155126
0,352397563228295
0,350958927870094
0,352512290682933
0,348648262008352
0,350483988407828
0,348693185085154
0,343841387773477
0,345079326974725
0,345609931276997
0,340997043029011
0,343397535109702
0,339629274979328
0,33817114857229
0,339820575780636
0,332844168094418
0,331543078239484
0,334537348273584
0,330243333916337
0,335085924073007
0,334826968261524
0,331104402313805
0,328225147203554
0,327067675316401
0,329228507507203
0,331185523607447
0,322259268577371
0,324723282192706
0,323967988154931
0,322891756655513
0,32861826094507
0,321622826058172
0,320371822710528
0,323132493522364
0,319334530173479
0,320083289341237
0,318597255302003
0,319692705516069
0,31499447590933
0,314893276067097
0,314987778070416
0,313021407539776
0,31179250630841
0,313809062592132
0,314566416487261
0,308672810656434
0,308385927196383
0,316215263214769
0,3113699062444
0,306093414057513
0,306107436105408
0,308041513522561
0,312337183943793
0,30995453341344
0,305965609164614
0,303668761369463
0,302504221732937
0,304101751108841
0,301846977897089
0,298297008551416
0,298843533833597
0,303037728445993
0,305078676333908
0,301445145827281
0,296599796309235
0,297873306657236
0,299584088164301
0,300947567977336
0,297953187683514
0,303685536594814
0,298175760018224
0,297265148061007
0,297570203738093
0,297719191449018
0,298144808804547
0,294190934676564
0,296634740999159
0,296111120344236
0,294078759747092
0,289916234435389
0,291098238327814
0,289448828156181
0,294517778629781
0,293070941761524
0,295362340295122
0,292477588622315
0,294247720142015
0,293246968441863
0,292466727497133
0,295188965791034
0,288572373844795
0,288529838322145
0,291202805597267
0,288163303285991
0,285967858515445
0,287525250229186
0,285351385128403
0,288197587852624
0,282988215927209
0,285577587490701
0,282709840422894
0,282267290782008
0,281611414376733
0,282441594702351
0,282029746660262
0,281643211201483
0,28830771685993
0,283756869032249
0,282234260900409
0,278117313136036
0,281334826759887
0,282565445778602
0,278453549030459
0,274444381628964
0,27808719171377
0,27635747300159
0,278853109617264
0,275117922081507
0,271922752816099
0,276038832550006
0,274501826188853
0,271611963834789
0,269591936504542
0,271952417081207
0,274492916599847
0,267776912385687
0,274885267942361
0,264653616732654
0,270981745767344
0,267761041418751
0,264226192608637
0,264625654219959
0,266026861099832
0,27080606110666
0,264914993955172
0,260177559596932
0,262515864430368
0,262745644095566
0,267206372571777
0,260424803932648
0,263938206452294
0,26550158449859
0,263118699525189
0,265342843954776
0,261298284375064
0,259247584353273
0,259150296552558
0,25961759162963
0,259630769683827
0,258161323098666
0,257179528004821
0,252107484213627
0,256854689843539
0,254245118412654
0,248893875978107
0,250005869154167
0,251564176570725
0,250155650765037
0,249246164661681
0,250093512267015
0,248550837292978
0,251230448663921
0,249227413499854
0,24915445771263
0,242044506746513
0,242159512329657
0,246222097879909
0,243533213251046
0,243032394116089
0,239577422657298
0,243133526275834
0,243704928069431
0,239043035462493
0,235394686245793
0,242010933937441
0,234124372883632
0,233941424396229
0,23559423215081
0,236210097757132
0,228765263312861
0,229697911071587
0,23555414630782
0,231555837406636
0,230025243635325
0,230394375995827
0,226980680808263
0,229061603399997
0,226227233539852
0,226748631731981
0,226734174473496
0,224310967422929
0,225589020310862
0,221895776598243
0,220654391042406
0,221177290556584
0,221082709109268
0,222370249201823
0,218570635188648
0,215499086887111
0,215260167015362
0,215411190534818
0,21745755266274
0,214742403283072
0,211936659705066
0,213595703328047
0,212768045672627
0,212956294025992
0,211055219107747
0,210657561790349
0,20950498985162
0,20743945705932
0,209427421110195
0,209567013023703
0,210514402474557
0,215454514284591
0,209270779960728
0,207255004748416
0,205158553168225
0,205109453599715
0,202851269769389
0,206605020190424
0,204812576375764
0,201921285313136
0,201247823557525
0,202354832598016
0,200413705408068
0,199939331547558
0,199301016733339
0,204998504477769
0,199797498301519
0,196924283465284
0,200276617678836
0,196914741467582
0,197856960037966
0,19887602761478
0,197783172115347
0,195083767655409
0,193185474168625
0,196068371003236
0,19537223214181
0,194226768672375
0,190587045521913
0,192220376107908
0,194206190825006
0,193041954377062
0,189742376657373
0,191516671722761
0,190094383632962
0,192305489305169
0,190911309858291
0,19000124248857
0,188430399808127
0,18909318110269
0,193680837265564
0,1869839045331
0,185759085747629
0,187299058921342
0,183364483373645
0,188744886573342
0,185955259530336
0,186017367633276
0,184918774561454
0,185037309130887
0,186044896888502
0,185725873983566
0,183876787666391
0,18296664791234
0,184168472453145
0,181794982253776
0,184511005806427
0,184581921127081
0,183197498971187
0,183908740497291
0,178315184612867
0,184743993084452
0,182240447653172
0,183416021419616
0,181688399989636
0,180629577107811
0,181002912463595
0,180644798606252
0,177236447098361
0,177179953249233
0,176347570899978
0,179160960323473
0,178192132676725
0,181488404463426
0,180155427385904
0,175324575821851
0,174855437289589
0,177528427226352
0,176709547548519
0,180434191896143
0,170062714345851
0,17479345369609
0,17685162868783
0,175550872238327
0,173465254426189
0,179213256901795
0,171021427494231
0,172622505747461
0,170526697923847
0,172106607820158
0,168309048790124
0,1668099332614
0,167608206752849
0,168480933740537
0,168882562082291
0,169449691125804
0,170431115400368
0,173998545808381
0,169039762188915
0,168350222695754
0,166545781226092
0,167182284320186
0,166933820772178
0,166392582165889
0,165699263393351
0,166391970906233
0,164652766308674
0,165791555132308
0,166972369495711
0,163801904841891
0,15920326795026
0,167250410069254
0,167647453244216
0,163286614047559
0,163672955156908
0,162095252249973
0,162946654170703
0,164013752816905
0,157813436076851
0,162325727770675
0,161978394814022
0,162359779464002
0,161987231323115
0,162930082287062
0,162053735067116
0,16309551131395
0,1599942390447
0,160635332922092
0,161657936029631
0,159426268624825
0,155866936920682
0,15950337762911
0,157557751533495
0,158487302097372
0,159860928245508
0,156894760175315
0,155209130994786
0,154211022773305
0,156079562319354
0,155235779931167
0,153391526280233
0,153874794706017
0,151092318878528
0,15264915059709
0,152765818985954
0,15511575400902
0,154202306322416
0,151478256350262
0,149705807930287
0,150098586363168
0,147009477008159
0,14790312969027
0,146925825454985
0,149269617693499
0,143083349868973
0,148485154146827
0,143109528532054
0,148615766100706
0,146380894701819
0,148452557267786
0,146522202336958
0,145819332367848
0,142541202229454
0,142088108157724
0,140249993645283
0,14498735455729
0,139244845388129
0,142978317422133
0,140269599113022
0,143143465215207
0,137084240443316
0,141014655676429
0,138356091865786
0,138720553279414
0,137087892541324
0,138204244086359
0,137990174042947
0,138759030856401
0,135150722891719
0,136889543355597
0,134510011121075
0,136048810090969
0,131595512105983
0,135478802376516
0,133314054473702
0,133497022060877
0,130739131720674
0,131485357423418
0,130072673466819
0,133128151638158
0,132618171016599
0,128999939345089
0,128395544781811
0,131047481807279
0,12721667006013
0,128249388935068
0,125498141356692
0,127039413425042
0,127318487272246
0,127124569061425
0,123743908547077
0,124046747432355
0,123325518030514
0,127383833900576
0,122449353499514
0,125412019145635
0,122483763017039
0,124011150787013
0,120863728200318
0,119932945990889
0,12017747455968
0,118358464044182
0,118494066217558
0,119534489980903
0,11657115583074
0,11680708480578
0,114875379134211
0,117483794918769
0,116217747143674
0,116500031212794
0,114274821086496
0,117765566326862
0,117289162845691
0,115906223670407
0,113662329276947
0,116641765613478
0,11488369980676
0,112194504725861
0,114113989476329
0,113219526381838
0,111179344801359
0,112925244175482
0,112136295653619
0,111134635138395
0,113137488631216
0,112706811684649
0,112083464587939
0,112925070046576
0,111024075878769
0,111868274867257
0,110706433753948
0,111410905441166
0,108956873082447
0,111097910757128
0,107319192235491
0,113522642588077
0,110372349945156
0,11357888995145
0,110189266901291
0,105559459107108
0,108208752966528
0,108891376571123
0,107966290040271
0,11157912257892
0,107748320567054
0,110719833238021
0,108556565425185
0,108549751180519
0,107684905211239
0,114372118341889
0,103373728780247
0,103389659910162
0,102720826780378
0,107028005865309
0,111483205180168
0,110190441630748
0,105831734120764
0,105585867040784
0,10894977211287
0,113795684271694
0,104330140362315
0,110176263010519
0,103003672081218
0,11200650858671
0,103357654170028
0,102805137908917
0,107174149523561
0,107607529813137
0,109356517066856
0,105160985182701
0,102325728997248
0,10695492009215
0,102164198345396
0,0939830919794217
0,098153934029037
0,100482397570006
0,100765517064508
0,0997320622841026
0,101259548648621
0,0946203082652581
0,104220612447068
0,0940590602404539
0,109023092407163
0,0955927947989104
0,107953745441547
0,0941198154761221
0,115081233458113
0,0957155774381902
0,112379204137972
0,0822061579561606
0,10690873519519
0,0821812858816574
0,119650350491585
0,0872543922829906
0,129046324204201
0,0741879095555735
0,117978828106627
0,0752524011031017
0,127647147350249
0,0751278409680005
0,119662520837012
0,066522714509428
0,130309075083023
0,0777548400358549
0,113171186328409
0,0798159711730213
0,115914847656878
0,0895324349246694
0,0975468467604823
0,100240687102069
0,0894142101170052
0,104518908057816
0,0876246911934739
0,105311493990728
0,0841129225176359
0,108787242614797
0,0879615112186495
0,0988355313978526
0,0899906522089409
0,0933712121708199
0,0954094841038085
0,090931347809757
0,0955221193810306
0,0908847525486419
0,0946960004080925
0,0924017784218645
0,0908781926233148
0,095400467181958
0,0895953814509736
0,0977092589333042
0,0902181472278823
0,0926028031352349
0,0884529077807597
0,0930300120957431
0,0881171958344742
0,089289639987906
0,0905632261234671
0,0880006383185758
0,0903879104704205
0,0924516218220322
0,0898605764496592
0,0925308264948925
0,0890412574134302
0,09107833506028
0,0894563846535722
0,0923864010197405
0,0885113347657741
0,0878330004322282
0,087633202232445
0,0897407320852845
0,0898207735981543
0,0915444902436537
0,0888019092082647
0,091906206961061
0,0891879101462864
0,0923290395593682
0,0891068878749665
0,0923097674840874
0,0885000174937847
0,0916795127904695
0,0883752449386996
0,090958309982644
0,0871610616746166
0,0888529400165022
0,0888052489640456
0,0906526503442231
0,0904417747000586
0,0893471320478828
0,0876424936871936
0,0919538293463737
0,0891547400172536
0,0946923992813079
0,0885259290428617
0,0935152113002145
0,0902700689471908
0,0941659241939196
0,088834119308709
0,0885382026655747
0,088381414615955
0,0920590324476336
0,0866526460270809
0,0924753922000045
0,0869832029966004
0,0912679419922502
0,0894609121312373
0,0905584409157321
0,0870560643811754
0,0903277896468149
0,0895084277475258
0,091436017581598
0,0886250132255305
0,0902842728411233
0,0873725127836747
0,0908319350581547
0,0878361026329221
0,0908524498208078
0,0900572196801728
0,0921372486758322
0,0877275929810671
0,0909306058983633
0,0886252420921897
0,094096059762647
0,0888487585964533
0,0915594752677413
0,089629309584416
0,0907299188142218
0,0902526879567918
0,0909319074546126
0,0923972689492727
0,0917139034568473
0,0903444354802038
0,093359545547814
0,0907043274790256
0,0932255113765819
0,0904092603759355
0,0924862864786171
0,0890721664553938
0,0909425795961287
0,0900830032792741
0,0936298458504874
0,0897034268243053
0,0927113235274024
0,0913421214430563
0,0937948380272973
0,0913167770723411
0,0928207870197819
0,0909366499698042
0,0948699720622959
0,0935878551892438
0,0951219578529751
0,0925020505133206
0,0938420997309713
0,0926369960695373
0,0949464335592988
0,0917215917585119
0,0944927408510692
0,0912785542827221
0,0949628701851185
0,0957427088334717
0,0926598802041157
0,0923770032434498
0,0946816194749868
0,0927703470924993
0,0957131534635177
0,0924796605181373
0,0959887435198134
0,0908355482709448
0,0934023496243264
0,0949814920764022
0,0979498877035546
0,0931242803325828
0,096836806366368
0,0939763766156066
0,0996339120271433
0,0945218994773707
0,0968221049679612
0,0915184085709437
0,0956694761346339
0,0935780280396651
0,0975468409749391
0,0971378213829216
0,099085633513987
0,0939806262552906
0,0959796290527821
0,0940947264786579
0,0989321409694436
0,0965121394953008
0,09941720038519
0,0972488325318821
0,0972328368079046
0,0948611124191196
0,0985504946382665
0,0993781107879241
0,101157616012424
0,0964546168302349
0,0977966486856226
0,0953094971918773
0,0998538044401301
0,097496414636907
0,100875732951905
0,0969210367201601
0,10050096001474
0,100154847773809
0,0998075703775528
0,0995752968381643
0,101513562449678
0,0986050998126179
0,100379907698088
0,09823987034563
0,100060903162144
0,0962962818209889
0,0974272707249902
0,0969094671595023
0,0979136655725509
0,0961790134766866
0,0963540338182918
0,0944540381134793
0,0989770035222069
0,096898688793724
0,0990908784649166
0,0932037328723536
0,0975956779294109
0,0959652505257371
0,0980756015310502
0,0945712549794496
0,0982873114188086
0,094157712157196
0,0961495028779983
0,0956944000912849
0,0980834536372232
0,0945644177029035
0,096411032270132
0,0923133160246467
0,0972184412710308
0,0944409481383403
0,0965605835197591
0,0935614732529917
0,0971531752608412
0,0944234732696444
0,0949254304614084
0,0924698178450543
0,0950558282912794
0,0924425334159714
0,0947764384654861
0,0924522325035966
0,0938622620649345
0,0915855393623266
0,0938332129202606
0,0915079302967292
0,0938644292015737
0,0910835357090889
0,0918210689784099
0,09320087720407
0,0942698683503685
0,0914884050003402
0,0946670622260593
0,0900033716570725
0,0905158325849202
0,0911481850983082
0,091174322908813
0,0905918515742258
0,0904835246564913
0,0915345072872357
0,0944395330597268
0,0937704052856533
0,0919567634248341
0,0883550549647818
0,0908592092691148
0,0908299991078381
0,0913110906013407
0,0901585079080111
0,0917751292117674
0,0886924312104614
0,0927244358096752
0,0888652530190983
0,0919046232395367
0,0850782151698239
0,0900818505338652
0,0869367021307552
0,0913965130375871
0,0897049457172108
0,0906329752228409
0,0850505486230483
0,0896036810284706
0,0867242977935578
0,0902096057105724
0,0892033156638359
0,0921028197145803
0,0877040359328643
0,0885111911571892
0,0881758853180103
0,0898071803532131
0,089446929181764
0,0922615725187207
0,0848579607037296
0,0875032898278348
0,0849712521117747
0,0914250348962145
0,0864366256751151
0,0870610846880978
0,0889107028642767
0,0867162683981097
0,0858234115007261
0,0888005821175704
0,0862604709364482
0,087183379014193
0,0873966160079352
0,087687380562064
0,0860018360170694
0,0872936133200903
0,0869077150733297
0,0877303230373406
0,0871280227901319
0,0860129533175791
0,0834463100382338
0,0887436904449634
0,0875409684640833
0,086795220005045
0,0854013639893
0,0862228267206635
0,085968418962831
0,0842853639765909
0,082556314002621
0,0893996271312668
0,0843040033736966
0,0862989734235807
0,0809844745035961
0,0844568345730385
0,0814020732343113
0,0833466715149557
0,0803299092893944
0,0844549659704846
0,0816115651815829
0,0828690699957205
0,0782036919381326
0,0826723642638754
0,0803532925507308
0,0792124695265068
0,078515941232161
0,0804581380301074
0,077499161169823
0,0803853910107854
0,0779892370740321
0,0802772886501077
0,0774442337125862
0,0804195474899402
0,0733611109541604
0,0789351307988078
0,071850322217938
0,0804521931543232
0,0768617185708168
0,0772218086723699
0,0739215941600783
0,0742465476191832
0,0753597923081616
0,0766263910834124
0,0727913468680176
0,0726583670855739
0,0742783984434391
0,0754691241342373
0,0713751010163728
0,0739071783612427
0,0713529910032564
0,0711733545536968
0,0700483501017997
0,0711153487249863
0,0700087792532242
0,0709555969989859
0,0695505694250699
0,072027781311143
0,0668837064791958
0,0687867518115255
0,0693859377158894
0,0723113980297567
0,0692270528361369
0,0626534162201762
0,0819104749016359
0,0704915392870705
0,0664064069731556
0,0676530173450342
0,0714842184596574
0,0694294414537685
0,0693870358604694
0,0652071981465826
0,067942621122809
0,0682103894086291
0,0681676867201291
0,0674721163177786
0,0681888362140346
0,0667527481392242
0,0666166091220673
0,0682568181205227
0,068311860276222
0,0701140263487832
0,0678740580867177
0,0683835515193107
0,0683717092552638
0,0657137434446144
0,067406536712459
0,0666080549550844
0,0672952807496521
0,0613816226461058
0,0668096412878404
0,0691375162209247
0,0685513289057185
0,0661255466576934
0,0645206491648312
0,0670089731049001
0,063093438347061
0,0678221341455274
0,0660392248722581
0,0660459364057164
0,0641263785646494
0,0662112114902735
0,0627062258711613
0,0650171494646619
0,0640180270888054
0,0636640546382974
0,0631794959549705
0,0644713978569609
0,0642022849282964
0,0659365726136118
0,0639043765313762
0,0654445682629365
0,0630790569445502
0,0654695562306234
0,0609419756941466
0,0659819156739873
0,053680065916648
0,0860153324969611
0,0629174678792861
0,0692706031568634
0,0624273593005198
0,0648121371639949
0,0615322102834551
0,0667427207670946
0,0628014984068159
0,0650381396044819
0,05971962958193
0,064851883646674
0,0605786997088268
0,0649898037604665
0,0610276405962923
0,0648722645870143
0,0616154339444528
0,0663907347318853
0,0594731182557736
0,0624913957794316
0,0589705989196064
0,0563185027994661
0,0664424857463986
0,0712839585399768
0,0565019202521995
0,0695512041745072
0,0472023429490883
0,0703370284407383
0,0752155567024993
0,0585204962333673
0,0672908490164529
0,0577320272486046
0,0630989530077891
0,058371398754824
0,0638984210244532
0,0552098194009481
0,0719053374897375
0,0555851282148472
0,068227571062859
0,0615702010927304
0,0613396235148904
0,0618909946899044
0,0607932758544617
0,0610741114635848
0,0616810927107734
0,0619684749407035
0,0620963467955956
0,0609768748085196
0,0601030528749407
0,0598618600356009
0,0610261226281584
0,0579699157777399
0,0717212447790637
0,0588095588716697
0,0624494080369329
0,0602429629486644
0,0612609526283123
0,0517924617323947
0,0792381976181031
0,0597239977411643
0,0634787271834289
0,0588280750358484
0,0594254438299477
0,0632695554146465
0,0609418543963905
0,0608937724051236
0,0599686895860441
0,0601228312982497
0,059597217140716
0,0621728200293879
0,0594065397722522
0,060971914156703
0,0587755887049833
0,062061504618901
0,0589368381596185
0,064164167327517
0,0600585903576939
0,0661834063261413
0,0552047448062901
0,0587968245174759
0,0766195613348146
0,0623664527499535
0,0715792600643185
0,0606405783842728
0,0670334341464836
0,0600312374406125
0,0636977176760304
0,0553710886560117
0,0648890448664884
0,0585094365693783
0,0630938216448605
0,0604108927185612
0,0649674781715787
0,0583144980907673
0,0652889442544324
0,056950350285578
0,0647685525514336
0,0585591365849245
0,065335741485178
0,0594139468043838
0,0631278506294747
0,0570128530991514
0,0613939340433022
0,0649567255300144
0,0612446066935365
0,0538443722581034
0,0427124185182395
0,0949100166877783
0,0552874281875779
0,0738250847112758
0,0592941140949343
0,0642981908870667
0,0587432469138303
0,0615775113480668
0,0651616310388924
0,06506019606245
0,0579857158300396
0,0669852521689524
0,0627453032030118
0,0675458138120463
0,0569324790092428
0,052140099068504
0,0787245337500002
0,0763963873865223
0,0596628716405649
0,0697499534059514
0,0422777064230972
0,0905151855371448
0,0676228684476486
0,0628741510098574
0,069480968142086
0,0603284333064759
0,0650234591991347
0,0619420990447314
0,0629618097734396
0,0650234333830077
0,0688945103680844
0,0592638781621357
0,0660139705362405
0,0615706264105111
0,0657119822021974
0,0694959068600656
0,0634061373667287
0,0767180073477532
0,0639397063710656
0,0627993082162147
0,0725570998479751
0,06463336517565
0,0675537173762032
0,0654465229655821
0,066534421007316
0,0626070848038047
0,0770636831379534
0,0639231780696725
0,0691137918126149
0,0786234575261665
0,0669473524985115
0,0687361978214516
0,0735598640486747
0,0694881886827459
0,0730625666878812
0,0392387402646297
0,106614987708718
0,0607585157453415
0,0921498759658154
0,0686385465538168
0,0720461548491255
0,0692625879816336
0,0716093717405398
0,0602443042056219
0,0731206349442003
0,083541608785969
0,0637778759025459
0,0801965882252729
0,0546910758375003
0,0926870933388765
0,0699887840004176
0,0795367809244674
0,0717408551510556
0,0718021902519947
0,0683857527463709
0,0887695029976857
0,0468417059913115
0,0839134830429857
0,0836108771031844
0,0845182366986944
0,0902002678384579
0,0607634168642765
0,0903597729506262
0,0920198422068102
0,0701418424004921
0,0858419189972318
0,0711864158534615
0,0825798938060366
0,0577109264759628
0,101813809220847
0,0909854457457186
0,073386959600783
0,084805509048615
0,0759841362150038
0,0840318459261133
0,100334219640254
0,0767442097348715
0,0841049297436516
0,0782125219915199
0,0765553907192246
0,0674756733366513
0,126867483772569
0,0508706301265794
0,122823262262236
0,0811306129941309
0,107241851028679
0,086553632477679
0,0968912843659612
0,0789584358749282
0,111108700202647
0,0907102909432777
0,0924942653825289
0,0701517761536857
0,125114332648434
0,088631410301134
0,101729181984257
0,0984530451904953
0,0806195881285316
0,0871620881117369
0,143285879091997
0,115202255212148
0,113689681389762
0,0957883638390951
0,113928620227827
0,118720015174656
0,1020210257151
0,110419747460168
0,10738774063026
0,110754857343465
0,110991174150276
0,11472861205226
0,118932113453997
0,108309129498455
0,124259668454436
0,097765797294926
0,123050722484911
0,128898897881998
0,155266559980863
0,122976076241199
0,122778790760096
0,146272011130029
0,125435958917154
0,135859388585914
0,124067800986886
0,131099435751169
0,139404237829208
0,134101690142445
0,135999677347559
0,128249198139521
0,15770914224851
0,126254681696437
0,171962859637702
0,145967089011208
0,143798847183499
0,102573209154295
0,208919759455974
0,206846856730563
0,14330038380488
0,179523166118844
0,12342219986653
0,22331766123895
0,186950103980612
0,171158594163407
0,176953297190405
0,182959415384129
0,175893456465676
0,199312002598117
0,193224923020141
0,204278805449671
0,20550399745362
0,192997140968375
0,172561336262698
0,268330089877396
0,246585266633792
0,244580234567777
0,22458091134352
0,237873299068669
0,247566513918016
0,244533431235536
0,237628319623444
0,259432507455824
0,213119463017027
0,319059801955567
0,273135698133394
0,267292697781744
0,274948851653999
0,290235368777125
0,296811433601061
0,27037319800796
0,353888795938785
0,296245393506472
0,319964212615363
0,303801401136189
0,322470069308885
0,307450665305855
0,337766460259004
0,353837062496223
0,33604594714615
0,34654802103883
0,344376215159785
0,352146128992882
0,350715044831532
0,353895957151386
0,355571424687254
0,348791805238678
0,400287581448112
0,377507307410887
0,423258114248457
0,36726182977677
0,385077884716121
0,353381195777125
0,384978914235183
0,398538651841393
0,388564757543519
0,414575387990091
0,384100079489678
0,396199935257257
0,392048925127127
0,390564586586663
0,390906154814388
0,38769466935106
0,39143625905451
0,383526744419449
0,415716686819637
0,305660504820256
0,47425581158355
0,401708000182151
0,390917253782645
0,383898105715441
0,389710043053338
0,382769736563953
0,383833562436423
0,366582452601229
0,409206110096488
0,378982298659706
0,368847208629454
0,372997945209769
0,358328724653017
0,400439268892702
0,368631913667061
0,362514973779429
0,36659076210442
0,3551835234909
0,358932545408523
0,332558056278736
0,402450015975655
0,360977973558348
0,343830813601697
0,354313935581631
0,345178421364083
0,346957634040811
0,340269617675846
0,339974758612732
0,345283158259859
0,337512709315368
0,333715356117447
0,341941706779473
0,326843771645262
0,33465869168118
0,324890459413038
0,337164171249172
0,32419490755607
0,330635106299112
0,323260885762686
0,32166302377122
0,320740142426522
0,320579254974614
0,32362346572278
0,323550537895101
0,320368503540106
0,319164116784464
0,317480564509593
0,321493032374623
0,313974362574642
0,321765662248307
0,313792480201781
0,315724810128764
0,311197131136262
0,308404087945704
0,30554996570014
0,312010141876061
0,307380553088264
0,306777229946243
0,302896225483075
0,301282171791654
0,30287379280453
0,300975893469236
0,29301411961417
0,292436095982633
0,334608035498439
0,290920696408938
0,295989938702526
0,289019432611978
0,286432840434367
0,280845002590847
0,274916677547338
0,3168137408669
0,277603481458257
0,276281765550307
0,271339050287293
0,26948287727154
0,280946316140307
0,268573825071409
0,258411054906855
0,257860519399313
0,194927230312042
0,320985303798761
0,220411907639039
0,329954023060314
0,266176072418985
0,249939278693742
0,23203402449904
0,271311693460762
0,256278483093941
0,227838504859591
0,238985088052358
0,219914040013385
0,258431533825631
0,226819104838272
0,229093378613185
0,224442649690207
0,218392048065418
0,249947230823835
0,225378721632101
0,212185197498181
0,246528512721777
0,242537389338271
0,21091228364435
0,286229549007903
0,235365688784317
0,222554019131868
0,209929580690969
0,217042263807675
0,197239668436183
0,216938062316561
0,235422050301689
0,202004508863942
0,214930748276401
0,193887725576487
0,211277413739802
0,212008027636299
0,206919136910053
0,207384334141215
0,221583603957667
0,221642987955605
0,174573834891939
0,227083857907767
0,197221703183518
0,247737969030786
0,208892457258258
0,200922905845508
0,192051061841241
0,240398205763232
0,214493160433808
0,203142698188599
0,202637310128656
0,196828326646981
0,20946220638076
0,209611468455196
0,181443287669045
0,214416028417252
0,200947950216764
0,214375114801494
0,220976412405873
0,237164146012522
0,222148469386299
0,206845387436175
0,200932020707798
0,211021096026776
0,200100910524308
0,214257411732575
0,191501987570852
0,232999462283288
0,198304018685666
0,225047079621599
0,235177692758489
0,219876553623398
0,222497392821409
0,228606693977882
0,216120514290589
0,250446202607781
0,249262673399492
0,248432868085212
0,227965197222552
0,257608070581097
0,253616650686215
0,24872325102318
0,25453788644658
0,252229825496408
0,257810469970792
0,270934927976166
0,278638836216325
0,281982042202716
0,283024605092008
0,28438884644842
0,294462702959851
0,322167742557945
0,310703005587944
0,292731804291422
0,355813902789844
0,335310883451625
0,366133008813544
0,343984624334487
0,349183918318688
0,359823635656495
0,365274503797109
0,365178411727362
0,362093561112771
0,395651104381099
0,400413930663754
0,387861394598887
0,402068600586489
0,395170491681296
0,402954049048677
0,396072503689732
0,438242011557436
0,452326813226233
0,455603194111241
0,440796246101253
0,431653889033136
0,432142281205172
0,429631924112549
0,442347643701928
0,43141691512306
0,430414731381701
0,437238438572266
0,454796880731181
0,455233724522049
0,441218697774033
0,449534356565112
0,444447742200979
0,445901285526552
0,457011730068306
0,455193208587814
0,464594734139786
0,464312957704652
0,461731687838474
0,460340348140816
0,512257926014195
0,494280074379618
0,477865171567934
0,487392868327315
0,48825300076234
0,490281253342294
0,48671529734083
0,500776286490192
0,51467244921918
0,508607830029346
0,507203531589484
0,511266142202503
0,508856842614377
0,521887551466454
0,529580901928678
0,541503110041378
0,521312813032003
0,531648662216046
0,50090340133618
0,56742764245657
0,554579306855615
0,546291189220246
0,558406405442489
0,532759491105439
0,549318920321787
0,532163279821177
0,54609582255863
0,544697135938158
0,557421794218852
0,546786583192201
0,552304991663356
0,551175002313274
0,541980565656436
0,548149552766393
0,556533757312353
0,554099283736597
0,545960997231987
0,543666681476829
0,536293422628588
0,534579384015014
0,542225095112011
0,560585511486445
0,534647886163481
0,529538633829688
0,531202412222929
0,548374587592844
0,545639648680662
0,532807004363001
0,531634234275443
0,530998110949589
0,538318200489582
0,532234473641114
0,537226263460101
0,553364842724827
0,560553336690692
0,548035237473003
0,560264722645389
0,543490471563994
0,557204441807814
0,552542252034517
0,566567340768944
0,560447141815731
0,578857958553773
0,574767715293353
0,585043494281124
0,576753182040813
0,579804482634226
0,584910800921417
0,604348186057068
0,584686551151112
0,591082845767302
0,587180750305607
0,592268642126907
0,59206640190565
0,599026282605531
0,588089307584527
0,587341931494399
0,573277973753291
0,580032941313732
0,587795529462685
0,583239835724644
0,576189674057621
0,588605039654721
0,56869232910186
0,571278553518649
0,562508128113952
0,564091075448889
0,563307281418528
0,560278445014821
0,551248477189166
0,550021374929636
0,552528599293059
0,552005985453919
0,545089040334231
0,548685662356658
0,541088470341146
0,544733004863389
0,54519346625024
0,542817068255421
0,536485575211449
0,539552500978609
0,531283144010837
0,53365100581086
0,530712202735358
0,550289202058261
0,5457350955694
0,543875646587845
0,537894928528536
0,543362742920267
0,534727924247184
0,53144138788594
0,537104091466195
0,5348723602367
0,530732659359776
0,53576383481184
0,526912890669339
0,530002304742166
0,525162811111493
0,528957603934741
0,521740087690813
0,520837657952906
0,518691838794644
0,512378321265215
0,514482073288786
0,513058416463168
0,503184677592583
0,507549185201386
0,504527932291458
0,510383064398292
0,505025161407415
0,502436133303625
0,502049359794007
0,499937330480477
0,498208948396293
0,493113077420226
0,49636213336902
0,495161155561387
0,492071970433073
0,497678252227788
0,493003609436825
0,495838550810623
0,492467532135903
0,495552544843543
0,4936109749424
0,48666823205319
0,487333406402478
0,483570092127223
0,480879658470553
0,47438970428161
0,470323393901023
0,469252703515349
0,458802158100837
0,460278032079693
0,457908377944345
0,459706807128686
0,446220281060939
0,446131437749131
0,44326195068865
0,438701253166439
0,442872095953473
0,439151136737431
0,434166636783216
0,433772553956532
0,426570400914757
0,431179450695969
0,429346530909688
0,426240803976162
0,424155474036386
0,427591161457474
0,428221233670429
0,428078816150268
0,426026554244836
0,427256750090037
0,423104045124126
0,43404113814384
0,434393226035803
0,433715408411783
0,430499226846304
0,430964951305347
0,430430685791292
0,43534234697721
0,434677963143257
0,435759866556669
0,44048130264996
0,438186187636204
0,443367257969348
0,44265271635689
0,442799089315474
0,443276499995792
0,445987469150061
0,444109237645032
0,443700882197739
0,447469329095833
0,444281962543182
0,443961640681888
0,446128679093394
0,448600552592007
0,445634375073196
0,443918549902266
0,441495846312948
0,442320794732468
0,442123392557578
0,4415435631556
0,441624971769699
0,437996116314072
0,433248802748789
0,438196462100335
0,4369724956967
0,437684614502868
0,433874580177572
0,427853803907869
0,426718863419823
0,427626421138576
0,431938925244075
0,429370200938544
0,422170728365997
0,423052325761997
0,423922099947436
0,420111828417899
0,419540304180679
0,419874806391057
0,419381482399856
0,416070596758386
0,411235520505753
0,408380467681591
0,408178036936932
0,403943866869673
0,405646649133922
0,405115433556308
0,400059858698537
0,394642148132638
0,393055755004193
0,391958088517077
0,386037790518142
0,382581363309024
0,381639645559719
0,378408219856502
0,377286623801955
0,374464226813062
0,370407016595351
0,370170855950049
0,371013692648821
0,36823995081269
0,366879116807471
0,365747188393019
0,366775288079425
0,365664811368543
0,360701638894569
0,359931722166494
0,363192995482356
0,365839175389622
0,365360791856069
0,362487938749172
0,358884061765266
0,357989698490792
0,357275734829001
0,354940888991333
0,347795536982238
0,346808812784578
0,340375208556549
0,336635697243324
0,332255412913344
0,328106588217051
0,322749417739033
0,316749221121629
0,311448238350833
0,309518640218103
0,305168584583396
0,302063268351727
0,301097832616525
0,299537723639092
0,298343442031978
0,302245189541858
0,300038217999184
0,306944500362403
0,313995013401434
0,316585168312778
0,327460028760537
0,339339325454714
0,347989064944479
0,355362356852461
0,371462303685517
0,384127025935952
0,395031922543845
0,415909201613298
0,428846630228093
0,446843450596543
0,464399861362732
0,485469726641473
0,502189908072067
0,526811171427786
0,547684967120991
0,571055390473714
0,591113854019025
0,614463728927139
0,643963500984474
0,662228360023649
0,685544507559772
0,715093276768134
0,731325123842072
0,750414198350029
0,776474730044932
0,800367571601583
0,812735609258959
0,830970412149781
0,846754705288426
0,862918172066626
0,85823538362677
0,87709045272782
0,869804221107832
0,872765529199895
0,87855876129889
0,873521430346298
0,8655734719709
0,859029340542919
0,855555356223739
0,857818816376023
0,83689280683234
0,836723052010864
0,833648471819362
0,821614163041216
0,817961649971454
0,810339855287159
0,812621532170641
0,808649439323546
0,808584749463392
0,805031659501429
0,814964847034242
0,810074816446182
0,814593544948488
0,820491081011414
0,820902898281415
0,829501787151938
0,836448218425644
0,846586055019492
0,857635897729769
0,866767854854702
0,869393187846895
0,893024138907909
0,890288197692589
0,902449735487441
0,90624410360891
0,919865181679885
0,922940095107015
0,928900981880984
0,93187460929959
0,943443818410729
0,93681720160817
0,942562577400796
0,945920052540416
0,948612929738522
0,961133635949669
0,948839242574872
0,949243591073308
0,963862043651732
0,958678660975252
0,956130385647476
0,964282846907789
0,982380239807
0,968310983686652
0,987856839358771
0,986348138690164
1,00154335103841
0,999195450989613
1,02562879433614
1,02456792139297
1,01692354583604
1,02470987067715
1,03326037244517
1,04548665278318
1,05919395664803
1,08674425250772
1,09563661588805
1,10067811533589
1,13390542481294
1,13344285226187
1,17013211211361
1,1968470075282
1,23347316935453
1,24656799289985
1,27649100635856
1,30598882837109
1,3228973711654
1,37662667036391
1,406662929293
1,44460213904213
1,43558902137652
1,46356433920972
1,46721941517548
1,47512002269731
1,4693652748141
1,51381620237375
1,44925728081944
1,48373546729959
1,5158703572496
1,47209251692571
1,45758392072964
1,43510235380166
1,45102401454578
1,48116374465575
1,44880426501444
1,44568994549102
1,47811549134033
1,43995186106823
1,46566398669616
1,46681093329732
1,48414527121255
1,43779962573227
1,48908018402877
1,542895752125
1,48200305535479
1,58660518217406
1,57458976359603
1,58654143122432
1,56523315956953
1,63033603175173
1,62426044670545
1,62683138616262
1,66964065121506
1,69693160645141
1,74154189319782
1,67745365328107
1,81639674861261
1,78214447343066
1,90624885574479
1,84058713084111
1,83885712314829
1,87874220674279
1,88446908269995
1,99813450572335
2,00305115597895
2,00592707031821
2,06527396885503
1,96315014811564
1,93611198544038
1,91365625161766
1,9960986496186
2,06994499395115
2,08446367643474
2,04598019557042
2,19899928235765
2,34953657244557
2,25833817470942
3,10507191623115
2,21240866413319
2,40412132511684
2,2563483041136
2,5051830107272
2,32542575044907
2,48515729226438
2,21537755054276
2,69483884194116
2,22878784141395
2,40610268439516
2,3959057949083
2,22143444269192
2,33061501757672
2,33839778184676
2,36634473238141
2,25180791849677
2,0508030707774
2,20434439085961
1,97948140520655
1,97462054586621
2,07989692897091
1,8999939093111
1,87142059222814
2,03251211374796
2,07148399458089
1,91593731169976
1,89500275020227
1,90104608812995
1,85759475352569
1,95221081758897
1,84236054390606
1,75990846837126
1,73754897661262
1,88387828975786
1,73641672805595
1,91200083781549
1,72605270566134
1,68277650530867
1,6482386056563
1,62918821824526
1,54544128314798
1,50470195962695
1,44398730297081
1,4278175934653
1,40150013278799
1,34830206352873
1,28820103317645
1,2439906511061
1,18219206872388
1,11666276509842
1,09488696475695
1,0157668252009
0,967049545933627
0,921974147221035
0,875816802717496
0,838142069998931
0,791761752727734
0,766240690835706
0,741304168871033
0,705048179978033
0,678206918383659
0,655853833965539
0,637987896904792
0,609785712153914
0,59514203084842
0,590862965484462
0,568283868117256
0,569829296943182
0,555416175526553
0,541925117329737
0,541416639800181
0,537674148400014
0,529160475216656
0,530003852223028
0,520845752650932
0,525347987772702
0,524188321750392
0,519496863908478
0,521084267469066
0,522475414932542
0,535602946307736
0,534101064201893
0,537309540035359
0,545269150564805
0,551062142387683
0,552995622714591
0,555745077992969
0,566036172350907
0,565208002874205
0,572270540507886
0,568408316714185
0,584414978537926
0,571718476059286
0,575603529781587
0,573584017184692
0,57656658632902
0,571446395328691
0,584793881480054
0,586998296306985
0,583653442045942
0,581554563322933
0,592443076379961
0,583633335860335
0,586152644242723
0,584845084033481
0,591603811239498
0,582029687908283
0,578969783248041
0,572883190750665
0,579582554060437
0,581697879050842
0,576336538672664
0,581033631442853
0,577383226109631
0,558078674113547
0,566694380120353
0,571410917947715
0,556647311277928
0,547282610560764
0,558007652995888
0,546251931163036
0,546751251923689
0,546074661915296
0,548244400923536
0,546611584777465
0,547150781244721
0,545839952803463
0,555772952846387
0,560822818853114
0,561972279882236
0,563848996366679
0,568282751174876
0,576165516766622
0,591606045015781
0,593170871138211
0,606866312068963
0,610403715488437
0,61442731879132
0,618949674099
0,621574056228812
0,615979044021046
0,607190817975699
0,602180669645877
0,59956716460536
0,593364764435539
0,593099748757699
0,584710749488696
0,571179450459916
0,573188207971405
0,560020696536402
0,543034485971571
0,545690652966499
0,554989350934969
0,547227237536096
0,542180077079554
0,560868694969675
0,553649128531264
0,548054515207529
0,550169823849506
0,572183136201521
0,553490469006643
0,557371444916941
0,558446282826608
0,562174032973196
0,556818198234791
0,553320666358408
0,556870081727264
0,557698135059584
0,541577935312133
0,561762168265313
0,563818866289897
0,556193161721612
0,556483318706002
0,564946341483571
0,568039231031922
0,559553122059901
0,556827236553229
0,553848420156319
0,557325160421118
0,57604736256052
0,564611808485733
0,555712752182226
0,568747863238643
0,557341700152513
0,551917792262641
0,555222456176622
0,553518375000572
0,559863078715161
0,550668085617384
0,555474163931078
0,564410343430629
0,567862973726405
0,564020694307187
0,542261233214385
0,548312903108883
0,554825506452697
0,525783773846824
0,535612357864963
0,520422230415136
0,52090288304789
0,531006870739831
0,529043508934769
0,521123547133054
0,506717179834352
0,500687694009224
0,519401683086707
0,494894708967016
0,500043240444652
0,504712650214849
0,497757324679319
0,492740401404523
0,506026381338013
0,5193842907383
0,48806894838004
0,494102133665779
0,513363718345192
0,482289374420447
0,501345179160688
0,499714787981221
0,499686203264393
0,482712849673927
0,487200389080513
0,4907390383369
0,497704360958158
0,499638888669968
0,527577107191957
0,509208756598332
0,508249428042921
0,523711432204091
0,537841044320116
0,511376248302697
0,512645336802127
0,541115831925687
0,558790125787439
0,532075820840963
0,54185196159945
0,555655298134602
0,542939546853307
0,564470289426941
0,581988244594942
0,570974357254786
0,589394003108588
0,585082169908072
0,595853825913998
0,624132383227965
0,637650887274937
0,656824528006515
0,662159130460125
0,659558046041864
0,673559285178002
0,690504969273495
0,709875298844067
0,682362404321193
0,717703318500814
0,755476720453154
0,755029759218293
0,71053636150947
0,765920502289999
0,781723141345029
0,780962500805128
0,754203585640558
0,805359933010514
0,750493579457756
0,761490184597352
0,761101953785664
0,770179928629152
0,753162005215283
0,746863492742915
0,791384980481378
0,815566545471974
0,776958311269082
0,801374720081017
0,775244129018338
0,798294088967318
0,809918676608374
0,830678825653778
0,78981840540395
0,795600223550656
0,779175723220959
0,881911874556019
0,81488567679242
0,792733503323967
0,799831878441573
0,786189335527946
0,762025366118729
0,776364299839839
0,774400278593061
0,755445460278905
0,761213926736868
0,785036028999669
0,748734467958665
0,808202655185932
0,774002332162418
0,747866620454662
0,716689931734991
0,754165822753703
0,765675037643415
0,711999358750109
0,774452821263269
0,720336372463677
0,624509889441127
0,776576295527683
0,796031704112264
0,732955793983055
0,706484955385379
0,762349292113314
0,686860962956193
0,664576976396238
0,741382010097017
0,716216589089704
0,777916197006419
0,82415525805532
0,815143053774148
0,848332313573224
0,776106785055504
0,783091767523121
0,778396735142751
0,801553102483483
0,768707132078222
0,821848803166587
0,806294437022396
0,739171857440817
0,752854925953321
0,877600249188443
0,889364441362454
0,817650818299569
0,869196108881766
0,870598107687792
0,886875987372471
0,938016855022382
0,877655003543292
0,835569541700021
0,785646302356993
1,00610607666321
1,02452268265508
0,903360970692651
0,9245772338213
1,10223605441366
0,891280517184141
1,10313659281468
1,30221666504766
1,13008935839506
0,92091090096904
1,00694261765196
1,0125394946839
1,10409635986932
0,978917835961488
1,01413053396475
0,968306817669204
1,13067090470912
0,931993303301904
0,926577473197928
0,851361738284102
1,07271995618097
0,895951694120638
0,845019011904062
0,861840995427865
0,924033088758367
0,779738001029382
1,07500669762713
1,11511220154166
0,929633001605811
1,08457942217656
0,956435273880603
0,711435717947763
0,742917123749495
0,839807983694961
0,801860504347633
0,898038852492957
1,19475108729293
0,970390302724687
1,56240358518005
1,05235348958845
0,814375135184385
0,985805168100617
5
0,792521640895487
0,91308558562998
1,30391005305335
1,16311543696247
5
5
0,995640156376326
1,87455086285856
0,813331660886491
1,47426246323006
1,48493834106175
1,27696517463143
5
1,70919665648681
0,649809963214175
1,09542209713748
0,895129305528981
0,732170569827384
1,66402382161945
0,692717301291383
0,788686433796195
5
0,637631940101984
1,19344089816721
0,624257340267878
