3596
4000,36533379555
650,420452594757
1
2
2
0,0801536131049572
0,0806642091703744
0,0833663423495098
0,0749874304217229
0,0805881045069053
0,0802252328731381
0,083851346896389
0,0784602181997236
0,0766555110868904
0,0741393671129106
0,0856936621243962
0,0731530395100405
0,0687716826248566
0,0799538526811415
0,0793002596816788
0,0694378277289688
0,0723700857799877
0,0760397757562861
0,0864565504015385
0,0674286278391218
0,0698138120299404
0,0666252361166365
0,0777577753957998
0,0720458536246478
0,0819913557841164
0,0742101900832195
0,078549293223754
0,0738657679970224
0,0779695419874307
0,0817148905378169
0,0824403220305518
0,0714792073756592
0,0814195287725157
0,0708390390509344
0,0694460059844723
0,0767399048242601
0,079770996962609
0,0744437646418941
0,0762817134978461
0,0698039961941501
0,0786961226673586
0,0728739135968822
0,0765737944062625
0,0690981702863027
0,0736141581441061
0,0787239653714853
0,0827229066012964
0,0792328636949774
0,0733247379261936
0,0715936676531826
0,0753256437161508
0,0663960064267223
0,0751296308806332
0,081953717798959
0,0787433163271417
0,0744343552586864
0,0791127485116353
0,0692560739743111
0,0729336910119611
0,0724658015403798
0,084103650521724
0,0909885063966464
0,0736035061720942
0,063720749678511
0,0714548768239354
0,0626785638184426
0,078344427188146
0,0604881706449716
0,0747292893829911
0,067966102179842
0,0715275475533887
0,0704104798716156
0,0901067126898647
0,07316327005373
0,0793130866412687
0,0740468416576188
0,0804271578516456
0,0686393868003565
0,0644225377450667
0,0601740035406448
0,091206675079845
0,0724832785627283
0,0694255633752019
0,0579036130009459
0,0787821340114317
0,0775608882081791
0,0650251290613151
0,0579055943071773
0,0911229988462038
0,0735681852607366
0,0677264797174473
0,0662039749097978
0,0707990777579975
0,0583824773891575
0,0744413466522545
0,0637910855602799
0,0782901223300833
0,0720048837968556
0,0670212884490766
0,0654567741967011
0,0595711333082265
0,0849039809570333
0,086499389628032
0,0609195860634791
0,0770082812420504
0,0776621009070133
0,0485642366405289
0,092326202103649
0,0895477648582086
0,0628307043581885
0,0709275705955874
0,0560581264205883
0,0783340673420705
0,0700879616529409
0,0578269653205043
0,0676666566645493
0,0953344266522214
0,0656238307783922
0,0675695977433652
0,0556508801747191
0,0513487120720757
0,0841908185982096
0,0913652066734305
0,0703511937309492
0,0726353928497665
0,0589557669248877
0,0492152432864224
0,0962601910676577
0,0907500488633449
0,0628515313972296
0,0520817328692578
0,0714349570414595
0,0505316678102462
0,0552558323344559
0,0935801202089027
0,0822913493402839
0,0533713284246103
0,0451256651565763
0,0766546669578291
0,107640269586768
0,0826140878392972
0,0620940632872207
0,0476875697328816
0,0525498985743723
0,100808648901311
0,0796873192114836
0,0573671412318044
0,0780420497829861
0,0774968964330875
0,0662465819341381
0,054219616466647
0,0602473644596752
0,0755772135759087
0,0628473161437523
0,0186835513514302
0,0844961858846913
0,0714585014172272
0,108153794031842
0,114674166939795
0,0954330541449215
0,0506238070745158
0,0742862607410985
0,0650300770766253
0,0684654457013069
0,0591195506252072
0,0456006423797157
0,0719299162527363
0,0895109446235918
0,062943537022907
0,0629764585386838
0,0896382061976674
0,0588202243501908
0,0513692476459829
0,110785857775451
0,0809411214680854
0,0475814675887509
0,0779973721415831
0,0772036611785514
0,0475652013838376
0,0715557699779852
0,0820764498444617
0,0712000662793732
0,0655903662459136
0,0622649102387737
0,0517264021850621
0,0895507941787278
0,0697950987830906
0,0662563820137894
0,0585282821903562
0,0454506911965613
0,0452993434659805
0,136879581559198
0,0868351030431431
0,0832062344249892
0,0484969146988564
0,0360814421820302
0,0758670706796301
0,103832012876276
0,0721099716412691
0,0662528401888306
0,0611268900592178
0,0722773620333476
0,0571226900129559
0,0760599742172992
0,0506808206856629
0,0444803880547174
0,0798732692277747
0,101864419079543
0,0649847315786873
0,067999209307427
0,0506848562535015
0,0493199665530087
0,10483335548799
0,105534214731996
0,0773314924965931
0,0576083904664135
0,0579459516309836
0,0730091053087881
0,0755221846994278
0,0766284159073396
0,0668876187762677
0,0669290982092142
0,063406060548968
0,069903147816581
0,0625200873207949
0,0665264533582655
0,062371368506463
0,073235358320066
0,0648957573152353
0,0653574165087907
0,0742037616456641
0,0741104961332542
0,0654757155743537
0,0726548254398091
0,0598534506480669
0,0833883063871088
0,0735961656241419
0,0818298495586463
0,0613609081943783
0,0724282698321499
0,0671251351914182
0,0752419530536207
0,058339334533442
0,072895324798321
0,0449910498095818
0,076014989254955
0,0835189847434572
0,0942004798387478
0,0607111695110066
0,0609319129089105
0,0742820130769168
0,0816030714793915
0,0746470388328293
0,0653795909414581
0,0697185756502864
0,0590199695879879
0,0536161061415601
0,0966780474701776
0,0779139690312193
0,0554394916781821
0,0800316204021123
0,07716514029076
0,0747483503902252
0,0475517910927678
0,060858144952387
0,134591183380166
0,0750266262958476
0,0629470525912483
0,102957844298017
0,087843632731713
0,0724040817042613
0,0550553306962806
0,0359810427707335
0,124503992626996
0,142040108073734
0,0726475769513129
0,0683898267912142
0,0855229901715076
0,0708689910369554
0,0866772100872851
0,062146809235291
0,0971054498082408
0,0618215603884189
0,109721791332871
0,082342053567398
0,0639687199651434
0,0831892090804017
0,0987222866306243
0,0870461210174064
0,0742699897969892
0,0689235058484437
0,0609223872377715
0,0811675544691394
0,0865851715485981
0,0985462307011328
0,0662041111187252
0,0644656993118309
0,0824903886736584
0,09252136596012
0,0662686817420771
0,0827628710329502
0,0901610671546793
0,0870970667319263
0,0675530421784921
0,0675978434301079
0,0817931192587643
0,0610483985517201
0,0690358453113285
0,112925817179754
0,0768703798186395
0,0783158395318751
0,10136359958986
0,0827902827509349
0,0748958368700604
0,0804862978023443
0,0828750463582042
0,0855897890697679
0,068238247715824
0,0703358170371078
0,0983471270525149
0,0887896841786081
0,0859723306941846
0,0770135969846898
0,0902838114790093
0,0727096205759911
0,0845381731484777
0,0840858491387154
0,0867856682495412
0,0857545628014417
0,0575891612263497
0,0950803924075648
0,110219852907953
0,0565200697507455
0,108032567095155
0,106841445431024
0,113992658176034
0,080009026824122
0,0999565723634897
0,0913697756761113
0,09207187146372
0,0903561909180939
0,0923651642283159
0,0887204039217014
0,114182178265456
0,097952987830681
0,0983811620182201
0,0552916267172119
0,15187238711108
0,13987743406939
0,128474481253138
0,0952415543693438
0,0741009817831516
0,132681574568981
0,0977173498788016
0,13876732868016
0,127251769978553
0,115632135162327
0,114910705560542
0,110087902523971
0,116831979937135
0,110596512448329
0,125094693860265
0,113928292119445
0,130404317569961
0,122647286141282
0,137171470374726
0,106382508881738
0,135413637386843
0,153147263605541
0,137339181978124
0,129875891730486
0,133224227159333
0,11165335086109
0,168252463670201
0,115148556622953
0,228931164307191
0,128524338551505
0,181730216622707
0,167491602673493
0,165854285571874
0,133856754075388
0,154059600711258
0,148707929450409
0,167939364113336
0,154763051375892
0,177713822331882
0,150683614430959
0,167609588652628
0,165025719420164
0,187021393791821
0,157254698878871
0,183701571452304
0,188828506597362
0,193288369403793
0,172367291798724
0,185082595189794
0,185687782924005
0,245193941196699
0,234000832592938
0,197480114624494
0,205840276297279
0,195560744502126
0,218673165935408
0,206816677364415
0,206264875524564
0,202959465887571
0,197412421382187
0,249014247166422
0,203743078637675
0,264946473153946
0,228998470167209
0,228537377553051
0,237666700798638
0,222756469468742
0,240922741479035
0,283523363579214
0,245365747679389
0,234291561349953
0,270226992263695
0,250193584111995
0,256817325373143
0,269421437938087
0,263390455930731
0,25572206701652
0,258772878081086
0,288268274173977
0,266070446131733
0,299985313453377
0,273453120304048
0,297251237857435
0,293746955080134
0,308138467463975
0,287604203129377
0,320257442522524
0,277337876514007
0,32446774806509
0,30443899587904
0,326906396323947
0,305739700938005
0,304339514182975
0,340850419235174
0,345186399460439
0,355388221968081
0,347545034236187
0,340256234603556
0,335643744014133
0,339440447841566
0,363197822261161
0,327294281327023
0,351859880714378
0,349727995872284
0,384946999338146
0,369243937457208
0,391527581547016
0,361988707452014
0,408637520637779
0,374275848354941
0,405730485822021
0,379605991808916
0,400356354325657
0,387036319706755
0,40632461501522
0,417749604318048
0,422084263613254
0,42290826547207
0,443048113516608
0,420419898862046
0,423091230955386
0,419448028317413
0,451714444861528
0,42136348104086
0,469195595268282
0,429872294769244
0,476206454712709
0,434873066612044
0,474614806779562
0,452258567486756
0,489688093069671
0,466704087004148
0,528534112805858
0,488799558573233
0,525900254622851
0,481382942421516
0,512866313763165
0,467253838643493
0,528335489762386
0,490832209828163
0,547218580043219
0,515502230378975
0,541323520713663
0,518089718684243
0,539059335322737
0,535195095085499
0,556795270215301
0,529417298151356
0,550255166253712
0,534447702582466
0,595741044478414
0,553877699846682
0,631182552701036
0,532022932652053
0,600954669765978
0,561385708197587
0,615087982870636
0,569071792884387
0,638105474168071
0,575320200942896
0,637998130047351
0,600495441803465
0,612705868572266
0,596014073415322
0,671055328037443
0,605686096835724
0,652884313554436
0,581984037622401
0,64236668360894
0,615252887035698
0,674758440167781
0,628826067873724
0,681943136719269
0,635742060238809
0,6960089000045
0,657314910774072
0,717420682572352
0,676958369252717
0,700927067034999
0,675675320505154
0,72473601111994
0,665778097747993
0,697801090268725
0,667799485473281
0,739730215850266
0,66184829368188
0,760025017272747
0,71184199719893
0,766177040200519
0,740607327166059
0,749405009898754
0,728245018977283
0,789771214059981
0,742286163125608
0,784356691689571
0,720926914103489
0,837962483874384
0,767955705843968
0,778694777394788
0,73368220824144
0,804390225583339
0,846956324972105
0,839439446269309
0,757325160832415
0,838531311826322
0,832329720058122
0,803282282682375
0,800428259657133
0,856446772640925
0,811141432980193
0,887908672855948
0,806738095658324
0,878193909853264
0,792200432767259
0,832580958620301
0,84687944506926
0,938832030398022
0,815262103145899
0,904171080575146
0,799696849538376
0,883026532409498
0,830470825698847
0,924807541589394
0,836686492745256
0,904895574177839
0,844484108877315
0,929522577181322
0,892525796361055
0,990096617836142
0,897109307679005
0,93065736475109
0,920504816980502
0,936908960229517
0,894917799844538
1,04380556050622
0,895373073845862
0,994598443254639
0,915613885647423
1,01172728812044
0,944305261974837
1,00145233044042
0,966592339179047
0,995960986205352
0,974251384452492
1,01204857666397
0,966970120952797
1,07734532972535
1,02318370806904
1,04070693360901
0,960444650013254
1,02584604374819
0,985181599451809
1,15866431468712
0,974960834100936
1,05018138936287
0,922271441078059
1,02496680595657
0,961885851760922
1,10773722703124
0,970495118255084
1,07724753885134
0,996816995833968
1,10885487375511
1,07710743166809
1,22943220776347
1,01327631554593
1,23196282782561
1,09749699684528
1,08419775712552
0,977765045745312
1,15170215711707
1,06302795894845
1,1133493631906
1,04460800686557
1,1894988162141
1,06453069489249
1,18904842324564
1,02768902682081
1,15590869868021
1,06485488464544
1,15240432389877
1,0802465802112
1,21773629969072
1,12699204297521
1,23041566750513
1,08940240978124
1,26688896181143
1,15586656569963
1,24361678925692
1,11620636803047
1,16347681498719
1,13438648297699
1,2453901901862
1,0613011879494
1,32619899523274
1,10051145041664
1,16138437249229
1,09945361073298
1,20878369119917
1,15002753954831
1,28201579390588
1,13570385862618
1,26547892729163
1,06916630386781
1,22199876919583
1,06464392417729
1,3000814355307
1,21180765281634
1,31475740503915
1,23583732205311
1,37120610982127
1,16826013207821
1,41217203119542
1,21213958175923
1,32030179368699
1,29170476822014
1,22508166146159
1,21871168755971
1,31309581520218
1,31392135660065
1,25133008885399
1,22249667385795
1,2721976845121
1,24071703542196
1,44565308578828
1,19281919211482
1,28930702191914
1,23659328380214
1,21091809620538
1,23010668458002
1,404007913776
1,24292162136239
1,26190440159839
1,35839807328343
1,28957582056478
1,22625139063483
1,32223011454045
1,27403807029308
1,32272834833646
1,20853284431697
1,27988013690928
1,28165809581609
1,3606198047194
1,20575044735626
1,38266695643443
1,20774517460173
1,4485060905702
1,27062818484162
1,38827337663516
1,24308650889747
1,39869014362623
1,23318177412905
1,37944739742553
1,21436977885065
1,41221024415166
1,28613530594487
1,44084594005639
1,32472695103486
1,37932723981277
1,25853325395706
1,32649015396208
1,3155638046805
1,44142198496659
1,26328707176115
1,42258625387627
1,23381559385358
1,34631089952497
1,19169665623963
1,36837927327943
1,27325305324832
1,44560076974568
1,2242632951863
1,43118587170667
1,28515096660528
1,35952025270195
1,22378440828662
1,3716134887499
1,28855886895017
1,32798281877867
1,41131110498533
1,33727408162252
1,30790102963211
1,50112750118615
1,25390755064297
1,43104262362939
1,2816644668134
1,4960492454334
1,31982177286356
1,47283071275864
1,26230730837347
1,3427320111848
1,31704827792934
1,27871007838753
1,25309982812468
1,36387335681081
1,26116131417622
1,31912127889989
1,35637158323481
1,31548682373735
1,31240412699279
1,3750018724095
1,40457679791634
1,32482230530216
1,31355689334564
1,3570197540458
1,39633071264738
1,31299685554115
1,34643355440807
1,54727975797118
1,33026658996142
1,40378141490639
1,36604880118374
1,43128610316021
1,39545087551813
1,30641251698602
1,30068979184212
1,36912217827721
1,27902498021249
1,33214161277905
1,33667841161987
1,43383292650303
1,24994081398946
1,39571774227202
1,25853015158907
1,36443710561071
1,31124394216155
1,38265009739072
1,40423030542769
1,38782650954815
1,2991352644535
1,3153664115911
1,30655023538818
1,36053524209745
1,32847545857529
1,31373995683715
1,2857323617683
1,31295697340591
1,30983902311531
1,4347038525274
1,27599804086798
1,33783712305713
1,28501568198736
1,30568540101497
1,32358597667589
1,34165333473327
1,27406666072687
1,28274155285994
1,2443726177689
1,31875437472994
1,28830430685064
1,34688011394874
1,28443841407323
1,33596487331152
1,37265456318473
1,37747013836136
1,25334891509601
1,34259126614652
1,30249654539047
1,35535851575155
1,362696696802
1,31818837251736
1,23192130764966
1,28270791720763
1,26207384465848
1,29021374763178
1,31360650907231
1,31419703099359
1,20945951064064
1,26889986319014
1,23578174869138
1,2156055521016
1,15869860061879
1,23545770304908
1,25813981656198
1,20354714816682
1,28496782415146
1,30886894423611
1,29263794998821
1,33723998425337
1,2706957428309
1,29691378968626
1,25208874888262
1,30657336590774
1,21946108279625
1,2377495336967
1,23119796232237
1,26862209195018
1,25285050516856
1,22612697755438
1,24583827006444
1,2759807077901
1,18856638278912
1,23032914303065
1,20566830656619
1,19616911180566
1,24284418951034
1,27755209479477
1,19945922149748
1,18178388949335
1,20933397865294
1,22486157850171
1,17851270341002
1,23385183956581
1,13854365729873
1,21114695930699
1,18163327574565
1,18892304525121
1,17684441449066
1,15277044025136
1,12943007336045
1,19805110804783
1,13122204956271
1,21586134973232
1,1413740864579
1,12008008911742
1,11584808358171
1,14105826019987
1,08594383521495
1,17337189884903
1,10519530290269
1,14276708439761
1,10652462078942
1,12546560147964
1,08936560842602
1,16121175129655
1,05133568864153
1,13670536272155
1,03960254477869
1,062289840112
1,0779673542906
1,10137567198637
1,0516082908929
1,0656488346267
1,0346355311646
1,04174000209498
1,0823879714511
1,07005268390125
1,04409064145962
1,07953239648752
1,04512255107237
1,05936048581347
1,01661763009347
1,03948438561218
1,05232406077473
1,05375364802286
1,00434683375464
1,00126680390873
1,00230736705525
1,03927819109519
0,997217285024825
1,02575776831577
0,980281750623899
0,986389146374462
0,987752807810061
0,962214079613946
0,939624027159915
0,977493314955256
0,938007194463627
0,999550288101451
0,93751162325596
0,950600448132823
0,919937795000931
0,941209594799365
0,922613569526311
0,946378791007927
0,943010170422217
0,932684179049424
0,922041331058236
0,923084860622742
0,919347745501473
0,922610436045415
0,907034088130578
0,926330503366487
0,879370251587195
0,899559091271792
0,899995893438338
0,884829199840062
0,871489096631921
0,888832817914863
0,850421069501115
0,869998835545895
0,83426399136202
0,855573877774696
0,845725482422424
0,838679807051312
0,820505569642005
0,83476753638408
0,838754272313337
0,864540663780636
0,793272699941179
0,833940794729018
0,830996558161028
0,832020937214756
0,790425775195988
0,793846852493196
0,77744141463784
0,788325804501907
0,778148032658041
0,794470367108155
0,787366664297664
0,810166406753917
0,756363983015506
0,769528520696934
0,755428311619476
0,775868029284489
0,747947953431743
0,758870287762598
0,738148428429948
0,738809766623932
0,741310677571492
0,762797877021767
0,720686963937876
0,718780131268815
0,730607549955832
0,730578170409649
0,716774843499896
0,721167774948644
0,688252782150356
0,701408262763955
0,70521068380764
0,718137806638774
0,685037047996469
0,693428790687751
0,680365830149368
0,682374307805373
0,690518227766384
0,691812529835274
0,671664192932098
0,676251857605507
0,657592877378302
0,671351940953588
0,672529417175127
0,657717854706103
0,651163321656263
0,640919024973031
0,622190633040445
0,655812147884533
0,632102706023371
0,641332037717436
0,634243393260573
0,640821673931344
0,626443259465606
0,626908791670499
0,619457954882789
0,620261076441714
0,617210291390543
0,617992730600476
0,599154338887976
0,612928144865093
0,58982300456083
0,600331425035607
0,587476998916181
0,58027130654656
0,58047977566491
0,586982450463079
0,564842415522829
0,590795023542387
0,573389302863422
0,580203714175449
0,566646447797937
0,571059041849079
0,566902706384808
0,566370998999416
0,54524834516671
0,558110521795841
0,55721769922318
0,559212250255742
0,547277661886189
0,549275261285876
0,529512437525681
0,542751612805604
0,537609256415542
0,534533181193187
0,526282313079845
0,537258092960727
0,515751427374365
0,517995494356987
0,516766542075743
0,523164772111331
0,502110926910243
0,515236398671816
0,505174939212722
0,503583449834038
0,501812715599891
0,503699742834225
0,496180631700868
0,503934363922662
0,49078226315788
0,488758622938192
0,481931170644127
0,489097379645081
0,482367683571544
0,48615101187392
0,485499103526961
0,485918066088145
0,472012249569761
0,479640305283033
0,467464835185509
0,472756228010212
0,466355684310526
0,469190645802167
0,456818309812396
0,468942731868029
0,452587631849726
0,45373766252368
0,453126333268158
0,465769917020417
0,443568649305465
0,456248630414719
0,449449525369371
0,446982473432025
0,436876592923243
0,441404715850679
0,438128982552437
0,438523832619403
0,43348196716065
0,439183696488858
0,433899159480937
0,438259886190859
0,428842513614218
0,438409220310031
0,432731335984315
0,431301743286088
0,4281605850283
0,428359524993868
0,4273310676442
0,427495578863386
0,429728278736045
0,423231578621479
0,424721604062443
0,431163167780925
0,425898088652597
0,424236983230015
0,422033340344455
0,4289766335268
0,429367896621552
0,426979322769543
0,422249673345166
0,433100315265618
0,423964710713082
0,433893481647211
0,421486747568346
0,429442859465721
0,430313117985581
0,437508243116025
0,429935221362235
0,431994130312155
0,428832557495289
0,442366879443937
0,436173054153773
0,437547567883532
0,438553351748699
0,442997335543065
0,442744007366165
0,44896189665044
0,445972068702731
0,458350161967688
0,445650494424302
0,448794954350024
0,450250843308873
0,458232757804712
0,449880279305263
0,463003835381265
0,466330016398251
0,469755519505987
0,454114058668241
0,456211274126013
0,464940381503015
0,474720597990079
0,467421675088908
0,483974590766869
0,482582817832679
0,486949084271252
0,477658328999755
0,491673038056057
0,493611122065504
0,500373690296557
0,495291975372666
0,498696948491998
0,50367290212006
0,508527646404771
0,508777008150494
0,521421307440726
0,527496392181211
0,534486021943705
0,525826025175329
0,547173009370439
0,548527516056234
0,544870664411379
0,536006934093675
0,543914376730011
0,542742054108006
0,555306155274824
0,571064901033065
0,566925178433586
0,570750690804168
0,58147159370964
0,568705326668483
0,573422785412432
0,579463738659787
0,594057337366603
0,590110397878858
0,587778359086206
0,577037779098232
0,59163795637435
0,587424434017261
0,591332691572888
0,597880594442781
0,592837056110548
0,582750426924222
0,597071075482634
0,572545086143992
0,581383754399906
0,585961879847306
0,583702080493118
0,584586405479148
0,585928245697238
0,575440512932222
0,579535206807969
0,565284939254563
0,579238480071153
0,576486377194122
0,567888979318085
0,56008049381231
0,559229301539294
0,556748704312279
0,558714683610959
0,562067703278208
0,559628034176486
0,55795044608382
0,562231294717717
0,552730022473716
0,56411574946712
0,565112804135249
0,557414062945151
0,547542975335159
0,555371055784794
0,54584613335132
0,552211867132652
0,558769501918531
0,555156898883559
0,552502430746117
0,563680336408015
0,552520478976204
0,546134259399411
0,543914702921661
0,547277326812768
0,544938478345483
0,54742327179674
0,551697416682559
0,559696037467312
0,544348507069694
0,545782274024398
0,539507727308812
0,539521892049764
0,538129577461841
0,536025427484483
0,525219711336582
0,525965001668741
0,523003789362841
0,515121605327865
0,511328018186971
0,50857416404111
0,5112922417225
0,512538064713642
0,505675771429829
0,512661758021783
0,506805646046999
0,499628606003772
0,487163703185796
0,488605378587346
0,49270428925399
0,49110065528562
0,481635293953792
0,479888161606958
0,469142134665958
0,472614675382404
0,468276226985457
0,470456461959746
0,46463674298668
0,46620505658129
0,458814620999033
0,455114750592832
0,446683875160686
0,449731113584286
0,441065373852262
0,442051884958689
0,441391634417341
0,43677076774333
0,436353511327775
0,43118270324971
0,426012411111698
0,425731744427891
0,424330227080225
0,42367272338698
0,422633766579762
0,424634128612831
0,414291271563425
0,41634038552934
0,415559568701453
0,409415000805816
0,408111017143864
0,406319485310635
0,40536294517921
0,404379166977639
0,400193812474631
0,401612763285267
0,390473644260348
0,396169504964861
0,39348637683485
0,392165350060522
0,392011932888802
0,389080821471352
0,380301139008927
0,385372033958671
0,390648250523464
0,382453776024731
0,375862270805288
0,373071315649462
0,377322189362426
0,378091728442318
0,372915865468616
0,371250176945872
0,367834841252799
0,371225995138788
0,370531933418687
0,369406785527696
0,366966394393464
0,366898090670109
0,363649767778051
0,357738144057748
0,361021381187664
0,361096162897115
0,354098169023006
0,359397229058819
0,357589799768189
0,356288777605433
0,350052436158619
0,353253679929686
0,355989710086655
0,346908340209224
0,347771079400536
0,347874747434849
0,34113150651624
0,343663359692654
0,34409572766219
0,347201183773978
0,343930075082384
0,339333334623705
0,340292195063147
0,340209937082209
0,340359534772675
0,337289706611245
0,335116195616182
0,336438303938318
0,336012745011893
0,337339157413036
0,332159455809133
0,32962047005646
0,336266031416313
0,337604839840095
0,332278211828256
0,329360346706087
0,329823600170402
0,333052707765314
0,327709938708905
0,332497892721864
0,323767254826119
0,323591225693042
0,323934588368635
0,324977373397374
0,32539300992058
0,324560508470835
0,32301892934136
0,319855933943814
0,319469564462332
0,319824102173732
0,321201361721621
0,319127832393094
0,318642649463093
0,319000678084347
0,31441371634976
0,314469314460969
0,313554909322166
0,315702619667106
0,316230920981644
0,313204068011394
0,318364122884869
0,311626244782267
0,312286530931637
0,31199349999703
0,313036732498815
0,308408548294121
0,307375666171311
0,311378202428698
0,305782261284525
0,305886360850153
0,304234664729547
0,306610603209781
0,307198322232489
0,307735656510543
0,304966979717357
0,307732395947102
0,305250127106357
0,308482890597404
0,308290249120892
0,302571416905721
0,300190955615028
0,301476720189349
0,30283258554489
0,298971649123033
0,301069113497245
0,303951428930632
0,300828292368705
0,300006263125883
0,300784247868413
0,295681531630939
0,298481602563324
0,303905623555858
0,300531282299628
0,295683130429991
0,299234352463523
0,295890028841026
0,296915361061261
0,298778766612105
0,292201063556894
0,29871677601977
0,29582062767145
0,292292197442186
0,292417565970853
0,296908915079517
0,292868086835563
0,289042472314182
0,288954697612105
0,291290000045679
0,287251996563679
0,289879857867834
0,28801997288856
0,288333677521046
0,283506416214759
0,2889235432598
0,286667339980185
0,285082090753236
0,286622719914274
0,28834584335447
0,284991966813917
0,280279524246192
0,281469003478077
0,283550842380532
0,285127366005395
0,283825813298551
0,27959388860812
0,283689335843219
0,279618774508283
0,279389657200274
0,281217281534139
0,278269421791373
0,278423613376514
0,276962978890275
0,274301596071929
0,275574506370738
0,279853625863685
0,281225151086082
0,278993919448411
0,270060232180149
0,272548027424375
0,272390112247371
0,277058503881768
0,273552673567566
0,272449610298696
0,274981641549084
0,27041630273445
0,27319802967938
0,272470856614676
0,268773679517326
0,268397569297891
0,268932536645713
0,266451511373409
0,265930934354489
0,267391658245931
0,259512433060885
0,263886353780573
0,262438647118578
0,259988235556532
0,264422193089663
0,26573682067516
0,262607938154111
0,263706506157968
0,259390841538018
0,260694650334886
0,263405502207263
0,258903405290223
0,255846569042354
0,258265674609327
0,253077797318373
0,252661133551357
0,254334831571582
0,253478501163629
0,249289603045237
0,253255623191249
0,253999531861419
0,255364976066261
0,25096459789628
0,244138372818481
0,24415163470982
0,250152931683148
0,247695184945265
0,246437608907508
0,243436950026436
0,241675864686914
0,24512106829899
0,237503028216649
0,239218201658225
0,240491241781584
0,241773987448871
0,238026014895601
0,236627093438854
0,241837166495162
0,236116171800851
0,236724702500284
0,236942418585521
0,235413190537095
0,232900156716043
0,234780203277744
0,230460142962504
0,236083662945421
0,231800277815765
0,230770258460017
0,227319084547518
0,232217503743321
0,229364973249922
0,233418195128323
0,22901255393052
0,227342040336524
0,226618560694211
0,225810541441136
0,224437170473728
0,226784631544552
0,224857071920759
0,221611653312759
0,222540592617568
0,225244274912474
0,224135236642778
0,224061102599927
0,220749882367713
0,220793252634932
0,222200819922407
0,220666545749064
0,219918868784715
0,222088308105635
0,220193116124099
0,213093086417879
0,21920350454031
0,22463463187971
0,216800116462869
0,216577041490438
0,21520970490111
0,219052980523362
0,214582343648185
0,212719417762921
0,210846147655351
0,21538096800454
0,213713953399363
0,209422418059171
0,21499806444587
0,21479493485042
0,211929752694843
0,209360469088212
0,210893984426622
0,210787453802341
0,211909179373396
0,209837975798015
0,210023905260849
0,211806080345352
0,205985527530345
0,207179549605306
0,206862916883397
0,207748608478187
0,205570761637897
0,206099110091924
0,205581272519068
0,206044384506776
0,204889215775899
0,205087860711614
0,205395155389837
0,206709850698082
0,206049541175814
0,204774476949134
0,206164448558244
0,204697112457493
0,204824900918658
0,201157781440073
0,204240696894518
0,207113527335909
0,200332257481561
0,205087318376979
0,20442338371174
0,203429546515485
0,203013171652453
0,205412673004502
0,199169938965359
0,200514518000085
0,200609482574895
0,20066067552674
0,199196443231165
0,204329968736074
0,201793740948167
0,198518797410037
0,195855082369061
0,19908472457017
0,197649589609983
0,200684611326787
0,19499502810714
0,197732555694582
0,199547430634802
0,19674199430995
0,196158458610936
0,195495119113444
0,195085959016172
0,198719234461274
0,194092388893853
0,199887196983208
0,194074477847943
0,195640254515702
0,193818234328499
0,195293771876932
0,191079269775001
0,195467911168253
0,192386876414617
0,194616023429496
0,190353424861337
0,190693726586821
0,186462774792425
0,191945292259909
0,191275128455346
0,18979514138807
0,190016508287786
0,186318348200245
0,189329473566961
0,189805344665939
0,186321482875002
0,189211379151253
0,187653657339379
0,186893977677318
0,184295971629033
0,184466383039121
0,186736188081076
0,187123703051858
0,185226181872275
0,188728848044877
0,183904747666543
0,187144889923737
0,183507947602126
0,185654762753053
0,18881303266641
0,186304289568601
0,183434756075769
0,183846095422316
0,184127655664855
0,183682722277046
0,181833527697661
0,184770238846864
0,182825686206473
0,182873462269007
0,185528376211006
0,183410014284795
0,183408048108031
0,182173686864622
0,181553954002176
0,182932511354204
0,183250960371508
0,181854476291654
0,178460059310025
0,178955190365994
0,179355370961594
0,181134919334934
0,18106609626661
0,178107097055576
0,175372323704904
0,175910964486156
0,1779400094527
0,17776597976293
0,176181827404273
0,178776470319607
0,174477117173104
0,178755236358243
0,175655470611735
0,176999140216042
0,175469960004778
0,175192271043177
0,173006361329148
0,172043655860168
0,168714096276753
0,17078779181299
0,169866287689607
0,170766173008245
0,171631325418352
0,171638120654643
0,170298779987008
0,169564789297898
0,167215222155936
0,172262691062068
0,16958920185294
0,170998112655999
0,169599574907814
0,166054749184383
0,162682797279304
0,171873398197797
0,166054080301491
0,166776268978335
0,166310008730599
0,168428142772036
0,165899336996459
0,168053742341914
0,166440449849155
0,16391714099923
0,162252419418458
0,165344476951366
0,159710262162318
0,16525788050857
0,158110462149722
0,165471945056697
0,157508545405439
0,161514562016964
0,161439365819489
0,160445026055438
0,159389612906985
0,160334468708131
0,157932260345378
0,161120387451523
0,159325225907505
0,16043969085417
0,161869046371899
0,163824252529708
0,153903615055564
0,154690730204444
0,152272741670991
0,155572572901621
0,152560731780203
0,156552691526504
0,154398057825311
0,156073917360667
0,151743736882092
0,153737038076135
0,150597783382344
0,154291383285654
0,148458122713863
0,153939805082161
0,15317088642769
0,148961295812635
0,149139588812638
0,15163530915099
0,150504877024288
0,151116243214069
0,14638243338368
0,147059132985609
0,146030560247375
0,147283753417695
0,142791116946321
0,147148299015139
0,143970259789051
0,14688671640144
0,145447212944857
0,14609549416847
0,144788090611236
0,14782541343841
0,143936560165968
0,144777565395444
0,141836267142674
0,145446130222196
0,142637672260507
0,144488481468915
0,141235367066683
0,141975025697194
0,140672173469293
0,140280424034713
0,143942728385118
0,142161553364766
0,139047013372938
0,143931806441055
0,142034492620387
0,141719213107332
0,139476336240542
0,142762982780953
0,141967823778577
0,143634953952569
0,136814709757636
0,142702447663378
0,140400047629255
0,141533892185865
0,140723186922887
0,14149129735966
0,13762463078679
0,138972745404006
0,141225387878261
0,141033410406111
0,141237654843445
0,143754521839989
0,137283699274814
0,144278564744182
0,135174939309418
0,142758296720239
0,134774045515208
0,142973192196865
0,137137817417143
0,136820548261178
0,141296835214501
0,145612613621413
0,136656906168919
0,142807138848195
0,145343606423132
0,140394353892618
0,138664235657522
0,142153720253918
0,136091578758314
0,147356604413993
0,138180292623167
0,135331631230519
0,140986054347734
0,139145765677854
0,14035322201713
0,137679475218161
0,127758734830152
0,136938294737902
0,136601022874735
0,131908257052198
0,132333243742281
0,131931193013694
0,129394841014246
0,134088316463357
0,129851886916794
0,128167759798042
0,141002270816096
0,130006407401305
0,137123090005272
0,129230376950519
0,142026325616107
0,130052353488529
0,144647265008278
0,12910498463649
0,143100232470856
0,120129582431133
0,142410318922873
0,119757049695099
0,152794742426402
0,118249322939798
0,155214898052851
0,114232501660538
0,14894978646157
0,107344022424882
0,159686834292938
0,108883463471858
0,15532714746074
0,104731430556882
0,168162139533093
0,109088767436601
0,151357538769302
0,109805832936184
0,152403176639021
0,115915224141896
0,134962786697045
0,13016664695628
0,126991521729675
0,134571506564072
0,11991740735123
0,141285953388711
0,116372654391087
0,137822364504829
0,120105566462287
0,137864521551981
0,123359263921644
0,128043128642704
0,126536773893015
0,122663270365796
0,133217726568664
0,123377840746935
0,125298882323178
0,129061639691857
0,125071356824089
0,129347808166878
0,125856764431884
0,124074800612578
0,122352228016588
0,129004056155341
0,123074800707964
0,123667227110011
0,123217164607543
0,126400513095488
0,121074441966321
0,124386193637435
0,122010430298788
0,126123825649223
0,123081710883592
0,125375580080689
0,122588085755529
0,126556268065016
0,122291132408439
0,125844355281674
0,122550769293851
0,124711339113854
0,120882544093617
0,12430888871753
0,1225974674628
0,124352648940665
0,123428286837046
0,126584361079888
0,123270754831657
0,124810503860253
0,12251829701545
0,125546706189088
0,124860504951324
0,130023342582261
0,124001431877053
0,126359708221818
0,123424731323033
0,124650393636568
0,124123504976905
0,125315165792142
0,123911319859573
0,123835443975293
0,122616542443495
0,125627765924363
0,12457568749917
0,126852612089036
0,123881171286143
0,12703234884561
0,123659883544402
0,126056417216949
0,123120210430949
0,124104210558737
0,124978427809659
0,127592776567563
0,123664488133178
0,125069738648545
0,120110093506664
0,122634783571479
0,122758087846305
0,12852999944096
0,122759743858764
0,12588943247901
0,123345201221327
0,122963440220063
0,123089906823409
0,12535605356694
0,122459347224558
0,12511428392646
0,120869838196851
0,125165673979727
0,123203099276365
0,12368451605179
0,121653128102126
0,124438706070997
0,121069722124098
0,127219972209926
0,124354056875541
0,125783635303271
0,122912043087501
0,124764641652627
0,123805831989427
0,12581987883864
0,125443458154788
0,130173316012914
0,125270577941631
0,127473567329824
0,124865337282072
0,126296434181997
0,125051175420837
0,126407411975307
0,123180290353484
0,127618580024037
0,126125862077862
0,128669751520528
0,124579968613383
0,128802921249979
0,12606603558599
0,130269979289618
0,124605218323098
0,127281113147409
0,127432613323131
0,129122399585323
0,128706199528845
0,127906878606664
0,127884929615392
0,127251254596354
0,126391899620335
0,130028727502733
0,127769459900507
0,127410263353827
0,127440239787286
0,131966230078426
0,126704942640188
0,128324499872282
0,126379812139433
0,127741486853324
0,128553329848498
0,131763284034803
0,128075336791719
0,13215071998616
0,128311781119583
0,132333883952605
0,12707561834928
0,133431650738657
0,130741900613622
0,131923263435213
0,130727823177253
0,131644175477059
0,130381524151118
0,132380551760766
0,131010902834836
0,132405762527303
0,128158064691658
0,131477000674386
0,129368607451088
0,13227730853225
0,130502600452489
0,130370628712404
0,130175249088001
0,135651445706233
0,133312348204256
0,135178874584092
0,132268548933396
0,133845193184462
0,132145279577988
0,133193653245989
0,131091081924369
0,1352852993855
0,134393562830997
0,133951086037003
0,135571340168974
0,136613810503796
0,135689248108518
0,132897210302542
0,135091664833778
0,136117888792759
0,134065627205039
0,133880886975071
0,134360851063748
0,137000027263073
0,133173127818267
0,136161184894065
0,133291718760865
0,136869811220997
0,135093087394212
0,135588150418777
0,131298154154712
0,136185503686222
0,131632834113191
0,133159963085645
0,130721108029503
0,134671509717802
0,132578941287786
0,132822316439043
0,130733721130571
0,136868573111557
0,131144850381495
0,133644420249608
0,129253977251565
0,135355152465977
0,129995168549246
0,131224711200179
0,133303088590688
0,132618760669229
0,132434998269199
0,132838040178306
0,131075190175579
0,133945018680689
0,129612416144424
0,133695700680587
0,129693081645696
0,132784587040586
0,132825265077178
0,131630967999366
0,129279981483399
0,132687775752944
0,12956643082449
0,131115791496547
0,129321109100384
0,132457120549158
0,128834792542985
0,129895858900664
0,129022723099435
0,128582464702715
0,128988843886938
0,129583181894794
0,130375413604038
0,131284651269816
0,130026759180029
0,131370761797951
0,12868403675807
0,130435244046107
0,128697456588589
0,130532597487296
0,127711084128729
0,129600683727533
0,128586935340077
0,130067676475464
0,126795830151304
0,129860765772388
0,126331212756754
0,129185717760861
0,127840205177728
0,130263324513051
0,126956397150622
0,129458375320419
0,127019556602479
0,127183196070828
0,125623312160695
0,131012544283904
0,124548072980048
0,128681440390929
0,125183764843565
0,129106604565566
0,128082965584917
0,128463671285932
0,123561156223741
0,130142131673826
0,125900504672925
0,128335230882582
0,126709743323119
0,131273098067648
0,12619619257302
0,127273566551549
0,126909490070308
0,127484976788008
0,127313729199769
0,127316390159008
0,124088164416677
0,12723360557313
0,123860301482711
0,12993095349135
0,127079161850875
0,124215665990541
0,125444299133906
0,125064187441341
0,123236194588633
0,125235013000424
0,122700826054443
0,12630681854727
0,126188695958644
0,12716894881426
0,125049854687382
0,125795994806075
0,123133487776082
0,12494369751617
0,123277576540492
0,125942754706855
0,122139310189673
0,12557032800553
0,125765216978579
0,124065503404527
0,124666379975469
0,126352491315522
0,12339066996133
0,124914964193624
0,117746598320301
0,12338411078652
0,119216480561172
0,122958779022679
0,118395162225148
0,122384733321459
0,120257079140774
0,121168153938996
0,117873835350652
0,120401333079049
0,119665802859358
0,118862316630137
0,115946948827285
0,118948197441857
0,115956860801411
0,115775127498943
0,114910417658922
0,118600220075959
0,116510754727662
0,119421150960086
0,114592455298605
0,117057421411691
0,113737157406709
0,117918091163787
0,112163559509734
0,116251591648236
0,107262717850491
0,119185457367243
0,113131995229445
0,111711538895806
0,110277091423642
0,110139100352395
0,110923028624411
0,113723434833045
0,109723951590855
0,10964365447228
0,10806715289458
0,109193880425271
0,107075773287903
0,110500591621328
0,106827152112293
0,107299915732886
0,107776759084512
0,109017956952172
0,105999144725393
0,108226524735725
0,104656909800829
0,107737440336888
0,105115077963797
0,106574198693289
0,1040216023707
0,106963746294936
0,106315706268369
0,100960048755214
0,115787028265219
0,104805729991568
0,10531405640551
0,103410711281681
0,107875463498661
0,102602622561779
0,105628347101398
0,10290764638461
0,104940247300988
0,10452856288815
0,102607612140982
0,104425268832476
0,103498395475837
0,102854708615792
0,103678041338679
0,104617345291872
0,103992201798337
0,106390287481681
0,102905836389197
0,103646952086892
0,103538745013645
0,101103771169767
0,101714679824306
0,103051286282868
0,100842126234756
0,0965183360244641
0,105916388263093
0,105092779278468
0,103128490210055
0,101997914602877
0,0998894942572368
0,101281303269598
0,0986473162505794
0,105475692161819
0,0995186891530556
0,101145023376179
0,0987650211489407
0,101426668699211
0,0989082575362796
0,101336025239217
0,101258784975902
0,0973860201813581
0,0994621547240887
0,0993876319172666
0,0978523451795582
0,100725280492734
0,102366403576481
0,0985628854707957
0,095989653389215
0,103706978903966
0,0984777700390367
0,102306298893677
0,0876495593469484
0,117514720648576
0,0964653036175298
0,10515545796383
0,0988067272226448
0,0990363456016877
0,0952897516487266
0,0993309049224036
0,0963027404469913
0,0999720816140798
0,0949894653298395
0,0999223165440686
0,0950934002090357
0,0995208709201282
0,0948835066532648
0,0994459492083626
0,096304595966288
0,0998880285421785
0,0928556327196959
0,0982774043686319
0,0957895088773741
0,0943750964023568
0,100068515440005
0,106737287924798
0,0912964846446412
0,105513222892319
0,0826386223397921
0,105014020864557
0,107979126514913
0,0926046840788679
0,100033448305685
0,0934444927069839
0,0972973467786876
0,0913068051266306
0,0971884222242737
0,0901762920305503
0,10665589338421
0,0906446107759667
0,100737664030155
0,0977959618805396
0,0965365051828475
0,0950259296504089
0,0927381228903214
0,0947072121884223
0,0945291646532054
0,0954707609517381
0,0943440568042387
0,0960659351446874
0,0922329945967719
0,0930521780106599
0,0945570434166951
0,0923638176658226
0,102845264428838
0,0901536747195859
0,0948683155872525
0,091248608830535
0,0932415827569791
0,0826366627450584
0,109508740083135
0,0898492388138424
0,095797963729076
0,0919048898217655
0,0917325830741459
0,0939870775462392
0,0925452705097555
0,0935731097901054
0,0917034304471663
0,0933138366101619
0,0925475785073111
0,0928105455794716
0,0911380217522455
0,0922960157217867
0,0909871923113081
0,0945109010588519
0,0909849071247971
0,0954207469544175
0,0895622716535775
0,0980784507366766
0,0866351444107093
0,0918512525475078
0,10872020324043
0,0937687062254791
0,104109703282431
0,0915566063836797
0,0961803110843393
0,0879238890484874
0,0953949490511887
0,0874834529732195
0,0962913436530869
0,0883401623511
0,0940442270914073
0,0917651814862976
0,0959977344774592
0,0894276659306095
0,0962419497232107
0,0866027225278189
0,0939889916694352
0,0863567148145125
0,093851093803799
0,0902654451837007
0,0942548386994058
0,0844772443195067
0,0896528625256893
0,094313673667602
0,0917331124838155
0,0852239511803092
0,0801744298825652
0,12163781934329
0,0818471806810248
0,1033618233332
0,0856729127832376
0,0918773435127973
0,0868554894545597
0,0902053480407662
0,0947112839781681
0,0952903802164229
0,0864460569009686
0,091793175938791
0,0892817996621346
0,0947990462699863
0,0854990643214558
0,0830372199811221
0,108728212345781
0,103597630587543
0,0871904974602295
0,0954660510977919
0,0684287122356664
0,118692306296197
0,0921768599036718
0,0870593494533018
0,0934574156688755
0,0878507464674933
0,0915519784690516
0,0887523794728334
0,0902180680187745
0,0926095527028045
0,0941420404934603
0,0851094310062349
0,0923352673500358
0,0881791255416038
0,0912700751646425
0,0929230630605125
0,0876884761541855
0,100613118011196
0,0892673237632853
0,0892242025047651
0,0964223645655649
0,0881909138305503
0,0933389892670782
0,0906136199267218
0,0917837033269897
0,0875331629711132
0,100707834579951
0,0862299755389247
0,0943250455675481
0,103063866585632
0,0905330543604282
0,0933442821937718
0,0975780494747154
0,093640709586676
0,0965290539127259
0,0640530073751313
0,131961030754751
0,08362140615013
0,116307745295567
0,0921538570701825
0,0958526372841406
0,0899717374340594
0,0953935614578763
0,0827122287179672
0,0943075937801447
0,106298945228437
0,0863673851308046
0,103256270138277
0,0763528273239761
0,114165895068592
0,0943184209650612
0,100799896296789
0,0925413018251594
0,0969513898313374
0,0902839616109123
0,109375595074402
0,069629811253552
0,107492194219074
0,107710771031136
0,104793652678986
0,110897871258374
0,0821238116321218
0,111317429214439
0,112200947270086
0,0917096082524801
0,105580969335974
0,0913488410744358
0,103879474571373
0,0790600496051004
0,124834161721154
0,111289283295792
0,095696391787458
0,10716927532732
0,0978071132864285
0,107229610101981
0,119893202781345
0,0968465848862037
0,105155205327098
0,100826444031751
0,0996467807847965
0,0881261060188543
0,147607447098415
0,0716281624421161
0,144533154222227
0,100448988838105
0,127602383632263
0,103050882658504
0,117729934183578
0,0977265558252113
0,133605581085525
0,112995117175057
0,111521443016777
0,0896774133523709
0,146436294443967
0,108313789191418
0,122166308229646
0,119850526676243
0,101947125452185
0,104564969906585
0,168261063004169
0,131302586496285
0,131803243409625
0,114376336154068
0,135942688185684
0,137436488075647
0,119199670435348
0,130635583574
0,125634319548785
0,129532684852352
0,129211922631576
0,132551076252
0,140690356926325
0,128591517099573
0,142966588828931
0,118046282449831
0,146961818248614
0,143776382712023
0,175169240133338
0,144104171820798
0,148949096621562
0,169228489374265
0,145881580882751
0,155071860375394
0,145552087707753
0,153293877215634
0,160638558513333
0,15519489316303
0,1552740582342
0,149886371625081
0,186182464348138
0,149836373944121
0,193131408665278
0,170825934277048
0,171109906745205
0,125792651523672
0,241389970891967
0,232581896271116
0,167969159336226
0,202500164613064
0,143504845615169
0,258213170732671
0,219675426353553
0,203754110170693
0,208648778545604
0,215259748046027
0,209639893722712
0,232873557867058
0,231772352087484
0,245903120129408
0,243852660354296
0,233306165113363
0,219305318969182
0,299306484382377
0,280624431361917
0,290180663527721
0,271771027288028
0,284608526321687
0,292715788669432
0,292478618759527
0,287728074737845
0,308321396083597
0,259332604947802
0,371988938936891
0,322808245761801
0,321324025555886
0,321257030896927
0,336831951582097
0,349908258234001
0,330562142938844
0,408239129093726
0,346355177421207
0,378010666795696
0,360769401481457
0,381346746260704
0,362830451740392
0,39558132163512
0,42341626344765
0,396506618627925
0,407718137812302
0,406349571466072
0,412394597745553
0,418384180509486
0,429045009672467
0,427236325591562
0,425035190049639
0,510498961309722
0,478707744592554
0,496016187187795
0,435301364074717
0,454863198783493
0,422382841875368
0,454765510606681
0,464256902416787
0,46311345154992
0,489584728204401
0,441809340092403
0,453565682593907
0,456232028026652
0,456632470700191
0,463173783270082
0,460725911125487
0,466147035172924
0,450957668420817
0,478700617982031
0,392822280187753
0,553471463775427
0,465512508452158
0,457388442127326
0,449051092140078
0,452677734864644
0,443722848784684
0,452990319346404
0,426037647309314
0,463987826548276
0,434826360239077
0,424318129066174
0,429233561052236
0,417169521653997
0,461483933550026
0,420845927890127
0,41265149354613
0,409440813466007
0,398058770178421
0,400725203834505
0,360206293979748
0,442981361864206
0,404880118378187
0,38189421359314
0,382450341512723
0,374976632672739
0,376315141555235
0,367573996381879
0,363986822617949
0,370187174177752
0,370190679274034
0,360954728948014
0,364360645192616
0,350608809044921
0,347340184241989
0,343759255850783
0,354423916714179
0,33992593085234
0,348120732803
0,340224256396301
0,340587681352487
0,339665202624414
0,33596406921111
0,33758961748033
0,335573127311507
0,337136059241447
0,337210937338335
0,326428587969613
0,328884319363262
0,322437002918863
0,329558339074969
0,324912985256578
0,327653660129952
0,323541712329558
0,325852906222806
0,321989615984373
0,322663069874745
0,320560348274412
0,324572512900863
0,317444990761233
0,319974964086901
0,319249145653085
0,313334876538762
0,303836348850125
0,311655543797026
0,35248024907559
0,304571550511938
0,311848896022953
0,305925766402968
0,301551058671104
0,299598635806173
0,297208512616112
0,334122726638002
0,301418330482297
0,300772438239328
0,295740620116208
0,29328863202581
0,30588306170237
0,290142200635233
0,281927082459345
0,29021092280694
0,214789272963069
0,347645782878836
0,279308564425782
0,365271142486579
0,301949363493977
0,288517261695395
0,263639321365877
0,309413227142585
0,293355473275081
0,270229799702836
0,283062288498567
0,256473547877284
0,302925329191972
0,268560560285924
0,268962766084199
0,265461142160369
0,263565332688266
0,298883984318173
0,270921901029352
0,255040889117708
0,285954882091198
0,279508071702953
0,269675212682428
0,337607941357859
0,278317585262193
0,266439508923252
0,249853256528494
0,261646886974226
0,241961087361467
0,262854683530883
0,280516860349168
0,248021171352783
0,261450825182602
0,239729895680116
0,25473854749926
0,258339810933876
0,249702099638176
0,244910156448169
0,252761824267099
0,262323618668141
0,216847228317177
0,271471326418342
0,24094223776156
0,294275732098758
0,247622411897494
0,236667354816727
0,226247153937004
0,279889295268612
0,255749807793132
0,242809834353332
0,241484324290382
0,236731189074714
0,241887420938006
0,248971030361824
0,216600961221667
0,256198794431114
0,238947236147331
0,253038024017196
0,249921014151867
0,275773378805708
0,247002753058422
0,236417046437944
0,23252539322496
0,245309741148729
0,228131668019321
0,243250846161294
0,224605419099151
0,260430199146931
0,224650298769606
0,258839396324333
0,266843811337516
0,247551656915109
0,246979271713113
0,254731388700428
0,238939725872459
0,267476426194694
0,274437021751578
0,271885508947232
0,251614620029645
0,281403580105024
0,275098682428526
0,273166825747379
0,281124433983128
0,278281823001027
0,283258020374325
0,290906434273489
0,302114179019926
0,306781004135074
0,305897239523686
0,307889912531067
0,312656743340253
0,344336508946808
0,335040633795633
0,318268182488932
0,376663253867832
0,357296875479375
0,393397402505906
0,369466825115961
0,37826563747676
0,384743267041037
0,388937345678575
0,394086224887848
0,396014641735847
0,429401033280995
0,43069294170521
0,417211949898579
0,429989081744624
0,429538722769462
0,448398658745667
0,431885855816513
0,459531842953831
0,434695215678009
0,496967278857791
0,468692321354083
0,45699498504211
0,464540247057094
0,45692051657826
0,47271684635257
0,46565377565747
0,463468103802522
0,475966778124377
0,489121537023043
0,486373417509709
0,47065820720055
0,477526102142927
0,474072147069611
0,489175360270478
0,485657328772986
0,481243291565065
0,492244283524458
0,492285361172701
0,488267992895301
0,485820206584909
0,514593825419035
0,526519572802975
0,496376049020877
0,514496498957808
0,510986523270462
0,515117949307654
0,509497072564651
0,524993406246199
0,541304270170778
0,527897821023567
0,533225337660846
0,53925866764963
0,527711279204355
0,541511664751728
0,548838054673489
0,56023135186244
0,533912052545943
0,550363089577867
0,527349237743449
0,585105181621159
0,572839728834419
0,564051710680811
0,569653436817355
0,559001817817764
0,574750281588959
0,560510029417593
0,569289323354253
0,567038017630103
0,57372339164487
0,569135119176958
0,568543757748078
0,566558547653146
0,573183744666268
0,556851930841283
0,573804613711718
0,576804678264038
0,55355944004657
0,567019920063192
0,559916607750602
0,551338282985578
0,566846368432552
0,581242413298068
0,552032926367356
0,541364190961994
0,557759750313001
0,573525763119966
0,559370580108809
0,550229219244
0,556963584967435
0,552214251489976
0,553788556984253
0,550002392088197
0,548271113851009
0,573173923080056
0,575096946261769
0,560182243328233
0,564357442416442
0,567845906530843
0,577472252698768
0,570962400105363
0,587530804678878
0,586015656429232
0,597896762148093
0,590102029679461
0,603631454229434
0,584473923352362
0,603278862988902
0,604987262770693
0,613608974488872
0,604060379207767
0,607742842884493
0,610737573800668
0,617569932183214
0,613428623373195
0,623089225161624
0,614223971501301
0,619104743519467
0,599855286402429
0,614130872657636
0,607381363999813
0,61517503486335
0,612770635111427
0,613374006979854
0,599624821682396
0,603100387209502
0,599818264732251
0,590685645922589
0,595309138160881
0,601192119142437
0,586767767516533
0,591266326005687
0,589226996168329
0,584942011628565
0,584088476213051
0,587799727272395
0,576621205654725
0,578274536377703
0,580130192388477
0,577842360083586
0,571203137041541
0,577060951301798
0,567065693434236
0,573364636360443
0,574882929156916
0,582915149286771
0,575918403624044
0,575273380682129
0,576716911779534
0,574259095551213
0,573608828848602
0,570895344084955
0,566520671529488
0,569197406659628
0,573523309495937
0,561090608924541
0,567142515730156
0,557858857028169
0,557622888898737
0,555608525869853
0,550720973888135
0,55087047675954
0,550811355569367
0,550675356649981
0,546236189367153
0,541016608341309
0,53718257605472
0,535014827486656
0,529638482412094
0,54391990616802
0,529416145540646
0,525154186853355
0,526222979994266
0,524235228116307
0,524149154176597
0,521092009780373
0,521104374988883
0,518012294441528
0,51766891851434
0,516876378880962
0,520100765513487
0,517117822804301
0,514749204809106
0,517638097824759
0,516169092309214
0,513581852831409
0,504560957928525
0,510329266778086
0,498966478744033
0,501085941322699
0,502661776049058
0,49798375837288
0,489049733613887
0,4839469405223
0,48126123591237
0,482248493751269
0,474009245226724
0,472072301293687
0,467516813435916
0,46607820636203
0,466703605378687
0,466184189113309
0,457264573464784
0,45753293013126
0,454705064539565
0,458442703391592
0,452435929689495
0,453702382458147
0,45183106500877
0,452618901298923
0,445244381406737
0,451008247398889
0,445930051028042
0,454260186180482
0,452572856082127
0,45367426674473
0,451706020786475
0,454002142615816
0,454260091200236
0,454070180599937
0,452971922533711
0,456221717935946
0,457436108501219
0,459150205931087
0,460517192358904
0,460652735598538
0,464040420360585
0,468725246519041
0,460475552176121
0,462896755567671
0,463250696306522
0,46690155828252
0,466872642783793
0,467390104151801
0,468071112757317
0,473764002368642
0,467133941588049
0,463497267148535
0,468291016845842
0,46553522386004
0,466484318339475
0,462089618184269
0,464442749297672
0,468069402362528
0,462211777073344
0,459628942000393
0,45900684590481
0,458134803809153
0,460860690191192
0,460181978692845
0,455356168520694
0,450906856887452
0,457957848974931
0,45542010971742
0,454121886459822
0,452163697149391
0,445827968008007
0,448882008713046
0,444488719940481
0,447701147353364
0,445366505500384
0,44096003655892
0,440150300852928
0,438246236358425
0,430975496619702
0,429872047223579
0,428402815560849
0,42605391351909
0,426199477211499
0,422724925971003
0,420143182761382
0,413072314428714
0,409810455520492
0,405156964307499
0,401512031415783
0,398928629879983
0,394481055964602
0,395277641607989
0,39067337653344
0,388733484263819
0,386584199878164
0,387341756900663
0,386948513824695
0,388150780343096
0,384769982605519
0,385573299954589
0,385575949489354
0,38440919291307
0,381517987506634
0,383386793461537
0,382551346838237
0,386288652491211
0,385574059006656
0,383273719646967
0,380112942915765
0,379644228927212
0,373694385650848
0,371317900532451
0,368370386332975
0,36530499986645
0,355483326016626
0,355430211831417
0,348087348487327
0,345745879290392
0,336575362489747
0,331928838406748
0,326119738731022
0,324759615974886
0,318810729558594
0,316594540677963
0,314568341164326
0,314551808460914
0,315240041748433
0,315171432258127
0,314430959124065
0,316792473651211
0,323965257290629
0,3269667636813
0,333700210111729
0,339487488242521
0,349534714184721
0,356601697672816
0,369205156268204
0,384669895187026
0,39649658563261
0,41139221539848
0,422421828467194
0,43945385700024
0,461928603267161
0,480284225587767
0,503372776753503
0,522465926091887
0,548802138918009
0,576844720820882
0,598843111570693
0,623633628809691
0,658707734968685
0,688571879587807
0,709308128276804
0,738784536606447
0,767262644354907
0,795305556281375
0,819081640810851
0,848493001726093
0,859495332885573
0,878970143852637
0,900138780577492
0,911709945968087
0,923392719097896
0,937330771039754
0,946977672498172
0,936616937532217
0,940538967445219
0,938273850558242
0,927420774037014
0,919345537811248
0,917825198408238
0,906054135894683
0,893902210160977
0,885902614871601
0,879732525837619
0,865035250129282
0,857560624738772
0,850116857121482
0,835139430424805
0,834590188074793
0,827408933528447
0,82699369543533
0,833450473736491
0,831883200113743
0,830847335826193
0,828242512176164
0,835277491758567
0,836971030392678
0,847966012812674
0,863317387799632
0,864453214428138
0,869323335663769
0,885738151567192
0,89188094439612
0,902102739554746
0,900710024735607
0,910510994220067
0,926415681963345
0,926910555645749
0,927258413144027
0,940240714054312
0,943518929957159
0,953284548265594
0,95106636166239
0,948966965944391
0,96879468994754
0,960513813326271
0,95712676572111
0,969898359159848
0,964135634867979
0,980229462035528
0,976588406216143
0,994754255306572
0,993299439590571
1,00091152123905
0,988941603797374
1,00868346068906
1,01936929819925
1,01415378711618
1,00435967156688
1,01666577172068
1,01389574415118
1,03028431184499
1,02082750805568
1,01522215000214
1,05140092909082
1,04907861990204
1,07270136540796
1,08180010761464
1,1056099030919
1,11477489496099
1,15636083996382
1,16609041071741
1,19337979436665
1,21612376234846
1,24804772413548
1,31924510406243
1,31063495836015
1,35759768095983
1,40627500954754
1,4276171340758
1,42409178505547
1,47741686762736
1,44966374933762
1,4771491692343
1,43825598596485
1,4623476305537
1,45714044181805
1,41226083492086
1,41389072964767
1,39824183375091
1,41978398512498
1,41373964882041
1,3749890340732
1,38578175942837
1,3567748435974
1,41996174285751
1,38697182672714
1,3732068484703
1,39886413915791
1,41747047119197
1,40979726720169
1,44319753301052
1,41508937329124
1,46156607604508
1,48721130385658
1,52962877741142
1,5152071939368
1,53874756915358
1,54931833532404
1,56683131430277
1,56818325998891
1,64511812410741
1,56423280912097
1,64946315188106
1,61394017439707
1,80896832927924
1,71050354305994
1,73482604129314
1,66931737752591
1,7978573241949
1,79464056256596
1,78353188235486
1,8894502962011
1,8454092608757
1,77227488674975
1,95786869160482
1,83680025597406
2,05880866806128
1,90036126852086
1,94868321885339
1,98749050890713
2,06573239904007
1,95420565086644
2,0770704655196
2,03285674279114
2,10499149360322
2,16111733547017
2,08715344212241
2,21851479458615
2,54664797717642
2,36958169860771
2,23691962388929
2,43513395550758
5
2,16544603353483
2,47097649027175
2,34424944338441
2,61187552544822
2,31620176847363
2,44827673331405
2,29109984204479
2,32379274803816
2,00987590743378
1,96672928535983
2,09261987616851
2,1614924592004
2,03908198948924
2,11381333174014
1,89401806815327
2,23340717499253
2,08647696901506
2,1246557578551
1,87162832437497
2,01251062364079
2,11202553510482
2,27088221757487
1,94312931314645
2,06207312932137
1,9171924626975
1,98653192287733
1,88818095095634
1,92684821913524
1,91321642104781
1,84587793802444
1,76703034874801
1,8292153792437
1,77522425608169
1,76738134472878
1,65032962813105
1,73508848401871
1,59424723885717
1,53802210506408
1,54692787461791
1,53059250550537
1,44370487211644
1,42250093278821
1,3391245820926
1,34655411640149
1,30804794943638
1,28304778286814
1,17435444053578
1,1582929827853
1,14899690807104
1,11154479207741
1,09747138754657
1,08304801788077
1,01330520614964
1,01075822596893
0,938917768593068
0,910378077316712
0,880354830937837
0,856209050085007
0,827560191605511
0,800804911771258
0,780061387987208
0,763260345699101
0,747463854719298
0,730129736589327
0,720983906166605
0,688539779887541
0,680346254428561
0,676145416668557
0,669641742098971
0,657220588972102
0,6539029615624
0,645953348921322
0,639419569564798
0,643696123984082
0,64119995181672
0,655362864806082
0,649223262858735
0,65438989407972
0,665726751981825
0,666745534719578
0,672735984043478
0,675167649326225
0,681927118401661
0,691814914147913
0,6958425264817
0,698114965342937
0,702145886225677
0,711688641262139
0,703023854826513
0,710366013840051
0,715606909599739
0,72078152956888
0,71232128865525
0,72058083737723
0,725865932495236
0,732768012886004
0,721824849184938
0,718302884101731
0,715123937769332
0,735726648581304
0,724675570980431
0,719273399275295
0,706421296102163
0,728034498906159
0,707919970708583
0,699931463702783
0,699756776341835
0,709137114952915
0,691307199099385
0,692117493402918
0,677832634580838
0,692964047670252
0,667451973217481
0,668650994046065
0,659607438097526
0,650491894206733
0,651590063096543
0,652339990942736
0,644775818275804
0,654123724407809
0,641584736859229
0,64669148267413
0,648139476493602
0,653148775616702
0,653201391336028
0,659380426697042
0,663380853885624
0,672540985648786
0,6774067473826
0,682329114241416
0,670818522155518
0,694627593968973
0,703349562495126
0,694561578087982
0,694528176188378
0,697363013033574
0,678679235112439
0,68617998395798
0,660500181580425
0,66365303440453
0,656266375258365
0,635451540814088
0,633263851936455
0,626006733006771
0,6150640436077
0,62343115555469
0,613685774477174
0,618541339692484
0,613068069920188
0,633257757577393
0,637274618211228
0,637405558937228
0,640024313289425
0,635910146326363
0,622386639241918
0,641971148779984
0,646062280455378
0,639153942807887
0,635286932652003
0,641753751765831
0,663696050440447
0,676519354458935
0,665775223474577
0,653103137922639
0,661832275955954
0,666200035813631
0,668686911511827
0,691004066547637
0,675079895475643
0,673312235682266
0,67601062748774
0,685210967357643
0,683788212082051
0,67455947030428
0,668823350814911
0,695776424105739
0,67146048369166
0,706397756357399
0,674598597573332
0,687220200476046
0,679863025201322
0,696310206349808
0,685273659384459
0,693374300161331
0,687833871805272
0,694171482438037
0,694406535511377
0,685974790689032
0,661203567595351
0,670187194625101
0,664429144697033
0,693383134782857
0,668032966311463
0,663653965305202
0,660919337853485
0,675331789766743
0,635049260109649
0,645320696116456
0,638491459082422
0,642009472767745
0,64646468409131
0,629637028405724
0,610532553984552
0,625960446547858
0,637693686233967
0,634139593434366
0,603969429809563
0,611139691187649
0,610570389269042
0,621007240893292
0,623142896939553
0,627677796383361
0,617371904436444
0,638084296287108
0,606779047278231
0,62605223175469
0,646188189152616
0,633712342885586
0,628511960983718
0,635223669789763
0,626690886892232
0,654532637393953
0,639583733476778
0,636898853815501
0,649556343428907
0,667490471289525
0,647869340116881
0,682911650467542
0,646406703979818
0,641231679162339
0,645324395312498
0,67346398922685
0,663483900893786
0,68314606654731
0,712255256044583
0,708485609405094
0,698883761233552
0,732820023098261
0,720335498405056
0,729260015658578
0,720270668065696
0,784055481035429
0,782444431808443
0,783991992815449
0,794327469822708
0,797327434616168
0,832106408196771
0,842443322683379
0,817848486596799
0,845774808357818
0,850110445625119
0,842642368453048
0,797697684926807
0,821184945089045
0,869015221630904
0,857074005983743
0,844741692134136
0,90822850818864
0,842427971630452
0,889850661496099
0,865949979010074
0,903924578097335
0,855844641418071
0,865047766585918
0,897216518197785
0,988496770047592
0,924955312433787
0,950018007573393
0,860414750379675
0,883120593439152
0,97581547100341
0,970692953426318
0,868181487165713
1,00453989723607
1,00865928064434
0,974559363478582
0,923962789594241
0,914185782575679
0,887494307675097
0,998888428483452
0,953438103987589
0,980998082797832
0,965442204008849
0,963926674895791
0,858596523732756
0,897974867842505
0,964824702770392
0,859094713484602
0,870561349875787
0,859534584626942
0,830410659299045
0,940904427243268
0,927129760356492
0,884125969625281
0,820597707446314
0,880926480067008
0,870959550709212
0,895994985711688
0,87985024554728
0,938592001881836
0,882526823572618
0,902405333542024
0,915395050835246
0,861183575359334
0,862672570464343
0,991620719295581
0,923024320318428
0,95067977613053
0,929646845031423
0,970124077805405
0,979344862091885
0,993676863785006
0,918352156801549
0,877253222906514
0,969768934091912
1,09551205801941
0,950175444809822
0,939215188962651
0,971818540609214
0,941422394543942
0,88466503299677
1,05311395875637
0,931760219940645
0,888525183904518
0,987126940806284
0,990950164842793
0,939582982539429
1,18455707755112
1,06144684336448
1,06408968521299
1,06106823139316
1,06514789325805
0,99012585351598
1,0260777927904
1,005862675094
1,23194567046122
1,14219381515102
1,12268143773995
1,20276808460829
1,327253227638
1,02883283868085
1,13937380267753
1,24657682544631
1,14449637200608
1,13498711447334
1,32983475318147
1,10340261697183
1,04377460968434
0,893639033260317
1,05598797981245
1,07935788776537
1,18276971549357
0,975308331488196
0,950576615146906
1,03614359793038
1,02153686896169
0,941388069596071
1,39354971398481
1,05441215055363
1,00965459567325
1,35701487423745
1,52128758015311
1,02930259285093
1,19799069085799
0,945329247770704
1,64254338855025
1,35863725540427
1,09102737254651
1,24196387771664
1,07060896421734
1,08177352830454
1,12898102196913
1,08977432581854
1,19730411126729
1,10286501439822
5
1,29875179694417
1,16890927636626
0,992326154710281
1,46723564183203
1,5607044669776
0,713947310964812
5
5
1,32377068052227
1,91608622540532
0,906920235561034
2,06375035673536
1,66734736429035
0,634229217664836
0,764110201914715
5
5
0,718309756060047
0,747247550643206
