3596
4000,36533379555
650,420452594757
1
2
2
0,0872004637124156
0,0754817871849515
0,0764363538639521
0,0733498020403882
0,0848988895509231
0,0795053036479288
0,0765220299325941
0,0740379231933438
0,0839911160446682
0,0740111985248322
0,083757216303509
0,0737883414382877
0,0739437826422889
0,080347779910619
0,0842953840268502
0,0800789884917894
0,08512264551499
0,0829810999988455
0,0832960452961504
0,0712945664448723
0,0721070176518084
0,0703170977368724
0,0832267666867671
0,076918888281676
0,0849037931373544
0,0741586060783419
0,0835763071371191
0,0734769557130038
0,0835477983170106
0,0824549239278286
0,0808357520309746
0,0796104907104308
0,0829450782727132
0,0710091138906562
0,080798098841835
0,0736565150488378
0,0722985907336346
0,0759514217193243
0,077493535917655
0,0722134538709715
0,0877893123259259
0,0721838370976535
0,0761712845388943
0,073953206534432
0,0798759584139966
0,0806350921985429
0,0852644553886834
0,0784691926536076
0,0811078663208968
0,0764211575240658
0,078527664615899
0,0720076477231655
0,0704898723683025
0,0764268350316504
0,0819062333845067
0,0791347779009147
0,0813469445552814
0,0747390917236273
0,0686526897175278
0,0637161677591973
0,0783513897746668
0,0850842523899652
0,0786715206166083
0,0671777072754009
0,0725961129347747
0,0731675566788428
0,0805687591845749
0,0645075112386023
0,0799317914961024
0,0595020773668596
0,0732811870745921
0,0728525901431911
0,0949711908573171
0,081363552852026
0,086541006778453
0,0777336881547779
0,0790023497678612
0,0664835415972285
0,0652646079991532
0,0648660605553389
0,10149405510151
0,078798543570124
0,0761062097635476
0,0627288434670042
0,0812752806834943
0,0864857073484044
0,0662986278357785
0,0642658106191443
0,0974472256727839
0,0760297528826024
0,0764890050566201
0,0622919685301105
0,0710268386397429
0,0622932564129316
0,0710060063059264
0,0561939788052236
0,0769745188595066
0,0735416658569933
0,0699227051931253
0,0629041940705155
0,053476911720058
0,0734604938908981
0,095086319776357
0,068304418127814
0,0826243034926642
0,0772386603143171
0,0478401002970523
0,101026695033226
0,0916996932043796
0,066111771862091
0,0764578318966325
0,0611337554277546
0,0818149673493317
0,0688311690359845
0,053539616691045
0,0604610985259036
0,0992761707790282
0,0732718960230769
0,0688514377443405
0,0547941017238464
0,0555294616010989
0,0728917732819089
0,104647813259604
0,0732151380747257
0,0750972101826336
0,0615109804892532
0,0531964927319134
0,0936798004285743
0,0893376747198026
0,0730562428604649
0,0683129473638518
0,066804219363039
0,0471144979962359
0,0577066871631001
0,0948130022170131
0,0840945133665786
0,0613192334284797
0,0410456913457508
0,057346727202999
0,105086823408566
0,0928015977412213
0,0653027439794658
0,0528357770162935
0,0629616328916685
0,0978982350023293
0,0792625785953131
0,0602829575765297
0,0749414440943035
0,0793815336980144
0,0717117044982967
0,0594109531060522
0,0641684014991551
0,0793499483733175
0,0626563900205736
0,0275804366742104
0,0925349003942843
0,0920812921941512
0,10032389142801
0,101083036256249
0,0872950626573469
0,0575932037701106
0,0785443119377473
0,0691814794624046
0,0677050228760354
0,0565987452525003
0,0535717550119949
0,0817680465386258
0,0885834446270022
0,0686195082295039
0,0649805940975164
0,0992520363581016
0,06872747043037
0,0503297993613474
0,0998784836901864
0,0815166971870494
0,0548573337458157
0,085408931206505
0,0833102786980211
0,0535340140406487
0,0732455553531372
0,083397610504303
0,0722251260912838
0,071016639076346
0,0640494273627834
0,0518349680260633
0,0872607123380006
0,0703710443362913
0,0678467703850824
0,0575674668917791
0,045936797204795
0,0485935581095999
0,126772616916012
0,0852996820386792
0,0774114363819149
0,0536038400006883
0,0488214927905972
0,086910171209098
0,102624073625885
0,0696438901287926
0,0652787624607119
0,0614691343674179
0,0693405557669264
0,0630872805962806
0,0766391782913553
0,0485011651734232
0,0573063324527534
0,0850052763762486
0,10037287663003
0,0688812456492341
0,0695671371957827
0,0614125117584005
0,0503305613443354
0,0948398363123923
0,108517558213237
0,0764128318496805
0,0609240209419566
0,0578328952478625
0,078967281933401
0,0778357667801746
0,0730429965491071
0,0726672079976114
0,0739095028060121
0,0672513313699791
0,0700888817932643
0,06714959814835
0,0730213435922816
0,0671566075145151
0,0671894244191851
0,0654449166511346
0,0690164589877793
0,0766917719792931
0,0754953419964127
0,0733431793203939
0,0747380986140423
0,0521973082669133
0,070630104641828
0,081383390916657
0,0834092685004059
0,0637895742088282
0,0710984655969939
0,0657168110208437
0,0771321025283832
0,0638606962118049
0,0794079398288176
0,047240405155083
0,0762914111607544
0,0759768301320732
0,0895429417668954
0,0703690481647168
0,0573082645883088
0,0721928070179106
0,0878855790291833
0,072592348246769
0,0606093524398418
0,07030145358106
0,0566301671092622
0,0501498786042667
0,0992752763758122
0,0838934810864184
0,0623347164818151
0,0747537755075509
0,0867127709559281
0,0783590121455049
0,0443786346825145
0,0618076663267177
0,129972470065665
0,0681063299305136
0,0703132928445872
0,115896872061186
0,0910017485259357
0,0746068071783219
0,0549086160552968
0,0261528861738365
0,128322420807829
0,132599470172972
0,0716269859275948
0,0629541553055139
0,0900916318930885
0,069342136619508
0,0822077142336399
0,0640601738979045
0,0898373638376384
0,0674827916615615
0,134069247619003
0,0953570296090666
0,0692646799662819
0,0874573231593372
0,0944932721259165
0,0878480377421348
0,079408149001363
0,0803346597832189
0,0667177574354577
0,0839787275791938
0,0939133812976763
0,102800681782665
0,0705694596610569
0,0709476657091512
0,0899045853496109
0,0955861145353494
0,0691143065806662
0,0818945997690314
0,0819034303603695
0,0835316168733975
0,0758891412225269
0,0721566982809146
0,0901090632496444
0,0689929425126697
0,0610688137055527
0,12100202482397
0,0825738020783979
0,0812297835580307
0,0984981293642687
0,091952262413534
0,0808505111834024
0,0823116475844399
0,078816895205456
0,0850449401646869
0,0718910411828539
0,0766515067284536
0,103367345783679
0,0954732929331274
0,0901322535186839
0,0815523255430209
0,0806054676057078
0,0761198774482835
0,0902279247374821
0,0849688030268257
0,0933001020481202
0,0868302914004009
0,0641419982484025
0,101312542354891
0,113595487757877
0,0743993964340341
0,108681381534237
0,118547757023274
0,109819275107626
0,0853010556626355
0,106619075309439
0,0888544609325751
0,0991092830456046
0,0982378188137184
0,0961360644548197
0,0918635367059056
0,119587483517026
0,102816396559178
0,102937166595999
0,0691774947381864
0,155637936418605
0,136611763350165
0,13127928991567
0,101324950359231
0,0806180253552658
0,133007707313333
0,118998289658161
0,15267858527923
0,131407460132156
0,115278472867701
0,106180135099648
0,123386546099508
0,126022572969286
0,120964661103796
0,124558240807537
0,119942865055675
0,134058314868101
0,12747879885825
0,135140109942269
0,111177833326341
0,13841004164465
0,164997938309341
0,144540658553388
0,139411614585324
0,142069215100665
0,120051149769363
0,168889214999047
0,137040433510701
0,211871728816973
0,138899606111356
0,199441621728989
0,176149394681847
0,182555092923496
0,145928436656846
0,16392280866182
0,158062006268067
0,18131660138602
0,163438392744487
0,18557188673326
0,15905622932702
0,184009860857569
0,175098386953276
0,201336081414726
0,169207583698596
0,203619249255041
0,197477623723287
0,198814725424295
0,198075455334909
0,193578708326001
0,196529426386754
0,273349196297803
0,254505735491216
0,212522568793399
0,224619263890772
0,217854206444512
0,220421602871329
0,217222206460551
0,227524834798301
0,220839143398209
0,212282869502729
0,268146330920114
0,239704394517119
0,284601879399988
0,251841558432291
0,238398734450945
0,251655373192048
0,249808544538913
0,255017242973511
0,299343929550119
0,265449537322503
0,242440289364206
0,296644544484612
0,269442475108364
0,278214351432013
0,299381169258769
0,273616461232518
0,273808724675602
0,268015686963025
0,294594883451213
0,283056163548418
0,316855803730937
0,292793408814375
0,314163818019855
0,304489838693866
0,320828245611596
0,290425735106374
0,346686613176638
0,298689375534955
0,349300971265287
0,32637288243908
0,339634549197889
0,337317236464563
0,327537066067126
0,361578439983513
0,347182467969054
0,355250208752055
0,403804311802743
0,35227528632815
0,377228108783041
0,360521242625259
0,376932733895294
0,385850867565136
0,389631442892232
0,380811314124662
0,395949502771074
0,376435462370584
0,418345846020134
0,391395944625039
0,425890197911368
0,413159551147244
0,42178363271414
0,393234339585204
0,437062509707927
0,419524387074221
0,425492520334011
0,439656104715905
0,447995599497956
0,48089625794143
0,486388688001493
0,453222444360356
0,462678239589718
0,454377661207545
0,476582375682233
0,459484040857758
0,490490161125961
0,467510392145329
0,479035356191041
0,475683611462197
0,504076150183954
0,485594985566462
0,522181314996344
0,478226029035905
0,536903707649291
0,505714558502072
0,539062360249072
0,532146962870353
0,543567421576661
0,488816570923839
0,57730345826809
0,515003649573095
0,566371063129336
0,556352710829233
0,576110234745706
0,52659597521096
0,571872245959825
0,553721827399035
0,589022849152542
0,56960468130254
0,582666747468078
0,577769238279873
0,633684678980501
0,59720786091784
0,647666289789795
0,58324424175223
0,618234628397579
0,61722114204948
0,640659060949547
0,616195923950989
0,64220919268769
0,607828718001464
0,680954673776959
0,610653886174945
0,614534386529656
0,616557356214443
0,7147590669798
0,637270545899582
0,685424726256611
0,634109862450433
0,699865893926563
0,654487760052568
0,714806020547486
0,643284492604252
0,726479550230697
0,653709379857503
0,709873928768044
0,701138715246044
0,722439655890009
0,669565818229551
0,746659714245223
0,674161899766897
0,76245734967747
0,705927142763396
0,738370924068886
0,702911898969586
0,816527738803113
0,724657887840459
0,835710631100366
0,735134162186288
0,823939385487427
0,751301829151714
0,775378198520579
0,755792751023988
0,839506095434594
0,709011918447796
0,789434628866031
0,753460972759956
0,803949596969786
0,781770811065414
0,854833782382563
0,813825365260043
0,821344683360136
0,794684824898987
0,883371866515206
0,802455215028627
0,854318224733001
0,776423047082377
0,847525012192988
0,874510891002554
0,886363396771761
0,762872957247226
0,875971754578929
0,806183109935255
0,841844576832818
0,86008546411108
0,91489504184083
0,812805442959003
0,986293146842303
0,87039585117198
0,96511958954536
0,851934416227025
0,921798484518803
0,840428004979805
0,963282970006816
0,882193395155701
0,91440611755268
0,908178638304108
0,922117123557564
0,872488021698028
1,05391344234542
0,965499784255285
1,05117622083404
0,922568078480254
1,0260113942983
0,983178379326458
0,973228106513805
0,887392773379419
1,03858587635322
0,941863309486762
0,989989033569941
0,950424849850641
1,01939719425823
0,956386168623707
1,17746526417165
0,941003001317556
1,04747083993944
1,06569745238992
1,08996094981081
0,910980104329789
1,05379533219213
0,992417472794211
1,09027848519749
0,95376191511764
1,03592399449758
1,00708221710977
1,11155703564157
0,953484162202738
1,08788696169265
1,02802619567473
1,07122275345758
1,03920527790724
1,11598299147541
1,08745635156851
1,18046674761328
1,0014285118062
1,18362286381109
1,08672812408315
1,15468303073177
1,09167581878236
1,139704670686
1,00616448890339
1,22594840863602
1,04812796053651
1,15045988765281
1,04986554476197
1,16620255277215
1,16962237339669
1,23668610032683
1,09477782952323
1,16903195426561
1,06945705496049
1,16300035782228
1,08735753668597
1,1280035251735
1,07165494223566
1,34103479918536
1,12399190463993
1,20412153173218
1,19402128782126
1,27894227390609
1,15561146675563
1,17385632688136
1,14165175712413
1,24893262409261
1,03383606716978
1,16801095568763
1,11384974327163
1,3320744290682
1,15331181942047
1,34597990344275
1,20049458640299
1,27685066852276
1,19422087752072
1,2576726550747
1,15640436774572
1,25165474144077
1,11816574724819
1,45910016268088
1,17911059130979
1,40859562733676
1,1519748700838
1,25180663162554
1,24969269484148
1,40777496618379
1,21308475448065
1,37723576975308
1,22905654898588
1,36353448996154
1,20412772330696
1,32871020369248
1,22250998032438
1,32238527614273
1,14391921527643
1,40600110091264
1,23106299997428
1,36217163129023
1,28099662361621
1,31602362338754
1,20291239491334
1,4054115485038
1,18554158038068
1,27589730232603
1,24290568007533
1,33091963467297
1,23341550264301
1,38055824193831
1,21156666726613
1,42935210631047
1,25009335253347
1,4544097572709
1,24798952106083
1,47919478014119
1,30727019388728
1,54087384673319
1,28425758631594
1,34844393858602
1,22081828001166
1,39225310436733
1,25237112851693
1,4057727221573
1,20799559423557
1,42705817712039
1,25504820029658
1,46014059171556
1,30218550154806
1,39919831664763
1,23583701482234
1,42402786199227
1,2376733819504
1,45512231167035
1,26908233532687
1,4817343662298
1,28885759426206
1,40227710657529
1,31765562706152
1,46063455304825
1,31726594511735
1,47577331905738
1,3647019353623
1,54544143886608
1,36860685781954
1,36442345853741
1,30464843370349
1,46367200954333
1,3247213355901
1,42860013769101
1,26813354980979
1,38091184970711
1,30970380272219
1,53883053773761
1,3049510733278
1,52690238801922
1,32829402469481
1,390660397347
1,27224556826936
1,38719666743028
1,23674573551779
1,39168275182448
1,26611288275088
1,59169094098187
1,21413813253534
1,41033631683645
1,33767064343566
1,46419561591396
1,29886660593945
1,43548632506446
1,30252302847639
1,40944175091392
1,28523023302132
1,35938593230485
1,38145031867572
1,46123116018542
1,28727976148133
1,52829864314996
1,32523002895254
1,40849864952017
1,323692993387
1,46756912603331
1,29354150405689
1,33298717351516
1,31684638513325
1,32789621410609
1,32141695585779
1,46494108907518
1,42929219253664
1,4448619636691
1,35375129714553
1,41083824802475
1,27249521685564
1,43175418366288
1,31157599184862
1,36078788462063
1,34723738428922
1,41025531862353
1,35603755441631
1,4754020163153
1,317551546053
1,39632017288832
1,31149743808477
1,26049778460351
1,27297985120809
1,49335395248258
1,33557739447982
1,52304304501914
1,30664920402798
1,38579168044046
1,29157529666342
1,34240787790213
1,36981059376578
1,46833503724775
1,3398712403091
1,50204523257832
1,40014573999718
1,47502348478405
1,31049810283384
1,51981531243393
1,2804780883569
1,41287083258457
1,36117810479071
1,43076006959219
1,3560793216977
1,38793278573708
1,30107610591581
1,39430725246628
1,36445449275166
1,36713516865029
1,24203863659737
1,40371831996035
1,32855017816437
1,3599871249712
1,23787107052085
1,30810455874013
1,30690794400341
1,38153485539322
1,29399087921185
1,36172335004592
1,28862400298742
1,31769880979382
1,28555361928373
1,41446110570337
1,30260152961537
1,34948583310271
1,31329720501941
1,29232650791352
1,32409901881314
1,39759221804293
1,4016564547259
1,31025279323566
1,28017897843793
1,45387555573024
1,29184563431542
1,38550444904149
1,1985414917598
1,27351562729409
1,26708579230177
1,23304125228247
1,29498855703754
1,29119421345081
1,24047933485246
1,31661666162081
1,20682193961323
1,28085591192491
1,2113187866856
1,33735016333349
1,23842057706184
1,24454182765905
1,20959768675999
1,24016339894431
1,27370553813741
1,30849171387022
1,26451242717947
1,23969032519942
1,23858910541844
1,32629104480228
1,20678809506876
1,29516255227561
1,22914511475263
1,2703383942534
1,17438322587436
1,22212445075539
1,20773410598958
1,24655374282617
1,16118922905618
1,21622366823342
1,20417764055847
1,23208397082108
1,15031054689064
1,2245291159477
1,17774924336031
1,26543637177555
1,2135464431609
1,19942621503835
1,11481006852127
1,20835262926361
1,10400316192393
1,18820188242343
1,14844409956588
1,2329497656975
1,13341066036735
1,12092375481311
1,07621767596943
1,15209379346117
1,08679240541806
1,13097240781029
1,08030402444795
1,1224795901714
1,15319179645501
1,14043900973879
1,07029070628072
1,10490792638716
1,08753203516552
1,10401734806882
1,04279916964125
1,06898790765751
1,02930576230709
1,07312674426568
1,06496704639711
1,12976308191068
1,05825253550193
1,08331363981747
1,01947435262862
1,06153020271476
0,978710199428895
1,03371720947724
0,986243187220402
1,03606551613853
1,01034087580938
1,05323835913605
1,00892536422515
0,985503300942558
0,963485840009476
1,00512955081553
0,94751936949057
0,981473367292391
0,993043730387465
1,00000769131565
0,950059827862369
0,991436723437389
0,93409364670238
0,963441375127147
0,933588384309567
0,979107228931644
0,932407158166515
0,962780639413898
0,920827559730108
0,942387442223614
0,90803644064633
0,90772947023236
0,92433527822634
0,944100774984324
0,918483912122355
0,939847876122373
0,873516110594284
0,903782313817624
0,868530922847586
0,887711329127996
0,875530147544304
0,904968269435651
0,847451653621273
0,868384338113366
0,834847066393769
0,844129331908054
0,860181949681625
0,872030956716767
0,840837068720977
0,839840533556628
0,831674363854844
0,830304817991694
0,820666837350469
0,846498192953673
0,781380720811834
0,79964613118991
0,783092473777627
0,815346989949386
0,814575896862598
0,808416431455275
0,771648421428116
0,777871109712542
0,768682328160092
0,775832022428369
0,767425442832791
0,779222024895907
0,750789341772535
0,762954820374819
0,7580899836432
0,76701383991049
0,741521453676189
0,767323268569484
0,728621910074314
0,756898115268501
0,734755317920424
0,73193551220238
0,704046213110213
0,747465001397446
0,7432033834128
0,736323545418786
0,705498924710585
0,722081501609133
0,682062974866127
0,691526381059798
0,693083613950839
0,688678149205533
0,670908992376859
0,680363786832019
0,671488348492286
0,660936306508066
0,665886036845292
0,681047967235072
0,662871081850692
0,676678481636099
0,644283818405147
0,660016028037587
0,655168100214391
0,66460887152856
0,632990212206532
0,642648246892804
0,627306900332338
0,651153670342546
0,627180264834976
0,624996472818558
0,613891883869142
0,621872127788301
0,606189454832994
0,625755940432611
0,601823379097462
0,611955724124128
0,596567892865617
0,600793626414949
0,59996569783995
0,61042195639124
0,58896789126656
0,589950739119151
0,584671553502861
0,591675438538141
0,567176932320496
0,577367551921995
0,562757332949657
0,571733894422037
0,564642813203297
0,566609168594083
0,551526526812068
0,559658648793191
0,547218337687409
0,554706144431078
0,547705089346519
0,554486544229973
0,53432718211786
0,535138007731022
0,53088850362237
0,536446899575775
0,532620874311605
0,539245505489817
0,514423784253978
0,526003174491602
0,52049646474346
0,526125243756237
0,512286180548464
0,520229296263388
0,505814367420867
0,504221250379778
0,498082986845567
0,512595384055842
0,498993100507985
0,495608556018238
0,499170603259846
0,490480005185395
0,485985349637513
0,491725318273402
0,478544051789776
0,488337123134406
0,480907368304572
0,487809531252903
0,479083061447564
0,476526130877719
0,4611921525395
0,466818956351825
0,465708783454428
0,472089281152395
0,45647891392843
0,472736431637472
0,459872841305425
0,46009053411084
0,442743174474418
0,462450633215196
0,451586269041873
0,467319812876456
0,458522264981412
0,455298323868679
0,444847501831045
0,446308231327813
0,442529744056693
0,45461693883375
0,450322097132251
0,4486334026306
0,441195520662954
0,441140871943597
0,431140750023023
0,434669639858554
0,435241891877136
0,443496908730963
0,43883921582178
0,442805024970773
0,432398124058274
0,444899743346502
0,432975013245903
0,434698100458382
0,441016189586927
0,444795999742898
0,433709594008098
0,443837713046002
0,437582998294625
0,446625641916213
0,442446143780906
0,447035254348995
0,43375884883047
0,443394138007119
0,440548062436213
0,451401836571312
0,445728147706128
0,451953088996747
0,45009016647845
0,458980065485886
0,448962097772868
0,457937165842155
0,456573252487138
0,459377876713587
0,459015241851321
0,475712510729333
0,461733619535924
0,469223689225288
0,453745011930868
0,463713458982079
0,47317643961514
0,477433127079635
0,470574161188255
0,486889438415877
0,477725523152257
0,480807778346579
0,484224657562593
0,495366045815868
0,485939760098059
0,500381630972569
0,496417997781975
0,495758561347865
0,506342034500936
0,509187091040749
0,503055543336181
0,517913199240943
0,523011680899216
0,52110416439619
0,518770805409194
0,53268555632739
0,539004098968625
0,539392568089327
0,53856416868805
0,559914758569445
0,553288878179175
0,56725311546851
0,570077985772741
0,580454216361387
0,568021749969496
0,578954304802203
0,585432932485426
0,588603597998032
0,591341879490782
0,599370933492839
0,5868847751458
0,601251363200801
0,603137961830261
0,600170236985198
0,604054641471175
0,619305129773044
0,604468604075217
0,619738489773891
0,616126460480957
0,626864235045866
0,609977263552196
0,606588792649392
0,606916225644664
0,630291394691477
0,622132962018324
0,616452471488412
0,603160383642601
0,606458955791095
0,585090356164648
0,597953036669482
0,597935382850011
0,600973184623467
0,596061758905835
0,602312856574933
0,59533759497848
0,597588041325474
0,583294723826576
0,587531869038255
0,580827864313809
0,582712289739433
0,585551621614547
0,589580398801967
0,578111323492114
0,582535498391974
0,573196860591901
0,574243254339821
0,572179971257606
0,576547534382434
0,578200375026884
0,575962680562474
0,566571815180796
0,572593000776306
0,570660689473618
0,578479069352679
0,576568007921156
0,574997307757765
0,570409582291129
0,57921286783681
0,573117417279502
0,583091876459086
0,570484567447057
0,564064655118848
0,564203892255608
0,56822470490643
0,557906343888652
0,563543454409635
0,543635686606358
0,54654466680136
0,554389230849715
0,544057604148112
0,551450773096847
0,553558383365839
0,540630230923879
0,53916818151468
0,536342702191498
0,540407837116859
0,531303188930288
0,522659788316886
0,520279060443115
0,524270174530326
0,507616963641242
0,515540848474298
0,517465207637506
0,510124250705084
0,499089393945332
0,493428114086981
0,48978866229949
0,489800051045455
0,490865699903363
0,493102055927275
0,478540043782269
0,484774126156584
0,473271702912835
0,47236293424997
0,470472573471266
0,47358722491759
0,46438179708765
0,459523663294993
0,457191041848588
0,450668282279438
0,444227362294302
0,44851661471095
0,446014776736513
0,448698455413356
0,444599533044327
0,441057447329855
0,432912070850939
0,435864995659986
0,433608730837135
0,434905618915271
0,426387000899356
0,423519407330528
0,420944193605401
0,417243807050581
0,413528428343771
0,416209313217537
0,414767080693045
0,411752990757894
0,413693623760496
0,413386064586549
0,400130055658302
0,403937665198276
0,399487911707018
0,402537997785974
0,401261371419088
0,39944676690302
0,393633556645026
0,390276328951726
0,391524988270657
0,385657837445329
0,384681330755222
0,390466590997269
0,380508476532054
0,378372925681301
0,380403435789329
0,390110214141168
0,38121023240569
0,376221654422188
0,376917785422808
0,374585619841464
0,37599276844624
0,372771529378174
0,372257721382625
0,372370444584365
0,364646033615241
0,366363954907334
0,364836003896577
0,363807903734167
0,364277930956362
0,359660274752797
0,352441643651039
0,360247232474021
0,353510568535256
0,355366860909491
0,357606053586655
0,358625015674696
0,350746491255079
0,351862029711082
0,35309034184668
0,3486295703299
0,350865516043204
0,351030771105848
0,343602372915848
0,346224876969245
0,344845544692101
0,341796549389858
0,33919623069008
0,342056288743463
0,341273876039323
0,339509329498955
0,338969468320238
0,342322172868046
0,338846428889652
0,334205333210722
0,336414684891384
0,335006964188319
0,334427987469253
0,332246907977362
0,332197645286529
0,3358472511344
0,329941584797029
0,3322102867131
0,328958897950476
0,329560521418101
0,327974126812576
0,329999671335559
0,329045406594268
0,323300128298787
0,324470169496997
0,325346960123608
0,32215946919299
0,321821146458974
0,323232647734091
0,323179767475042
0,317518747997079
0,31747659508289
0,319985115823942
0,322439745878649
0,315997121114001
0,310854779910279
0,315052881304666
0,319646181241494
0,321826580267315
0,317265240034806
0,315072791569553
0,314841406417789
0,313138068100441
0,311005024691105
0,308123383717923
0,315095156960623
0,315167370538225
0,313647845558507
0,309282378594698
0,311596204874414
0,311469576726227
0,310294566250501
0,307574966457499
0,313230897532195
0,309803268089563
0,307964688535952
0,31126521973024
0,305842024714945
0,30383340566784
0,303630411384849
0,302859044805127
0,300449058826656
0,30821906217839
0,306504311844906
0,302977938673688
0,303722033123066
0,303821650109744
0,305695735481499
0,303714714302669
0,30871464348766
0,301576246236878
0,299482994186184
0,300968037399817
0,301737861153393
0,301208864742544
0,296373073762879
0,296368443629962
0,300989635543147
0,295752722526321
0,29592507244645
0,291223386431128
0,288942354533403
0,29453940509231
0,296776527969471
0,291818496749917
0,291838821135884
0,292913595670687
0,291984701316167
0,292753685959968
0,289565021942246
0,290301132645516
0,292741688962489
0,291011351156433
0,291704549560656
0,28824876747768
0,283175821296411
0,28666798227047
0,287804585310268
0,2836247743264
0,288285659659097
0,285509499524226
0,285194812309071
0,286396331933873
0,280425421231523
0,278466310908112
0,283504403115986
0,279857732610976
0,275657340192264
0,283176932585935
0,277950707580009
0,276311541948888
0,274657116280237
0,27468405832005
0,278266743450348
0,274448037777257
0,273784037026695
0,272283094837235
0,275135068691688
0,276100726087027
0,270544997521667
0,27061141268896
0,275706425124876
0,271120031940643
0,270770981042303
0,27417086632157
0,269909228446502
0,271361018362918
0,266758027358422
0,26862917770979
0,265387667434253
0,26550837728899
0,259257569702168
0,26685540186364
0,265299773596605
0,260304796726795
0,266351512404291
0,264399939717319
0,263039405387158
0,261915655052151
0,259082980310714
0,260019791685537
0,262118203266319
0,260549226427651
0,260164855967745
0,253276699272986
0,258726367755855
0,252518798202469
0,254515826822799
0,250963299161939
0,245830456092585
0,252370105531329
0,254679794183803
0,24731328387806
0,246065369563309
0,248149149446805
0,245038299668683
0,248619506618177
0,250124874009999
0,245836995293371
0,244912339361163
0,244686815202924
0,243158836635024
0,243548811642167
0,243811644466124
0,244465082752748
0,240354211344761
0,239053920749256
0,237250435440184
0,237929612268004
0,239466030681508
0,233405203848886
0,231929168696224
0,233479740771568
0,228031337418499
0,234627006699111
0,232973026554797
0,232428416552138
0,231225411508283
0,228965962936494
0,229064278683084
0,229230006439043
0,229873741783975
0,226796624971906
0,225893641431077
0,226656747256892
0,226772918624342
0,225062145505283
0,222507630839841
0,224007104256037
0,222949968191573
0,224587543021029
0,220787372332322
0,224081641979272
0,222782831379497
0,221129850367876
0,222950887552609
0,223330579282722
0,219939280582348
0,218257504908114
0,219240967737958
0,220484456656672
0,218456049832773
0,215784168182837
0,216466479894608
0,216969378746795
0,216466455104036
0,213441781592817
0,214046693553897
0,216480600238386
0,2110729135734
0,209316239619114
0,211789303829162
0,211033236089113
0,210308565447688
0,216735039400362
0,21044053432853
0,212323914224804
0,210375795402646
0,209468034501078
0,208451309933777
0,211467883853178
0,207434346446578
0,209765450811854
0,210390315871351
0,206741341497851
0,202649139969392
0,206456422351268
0,208301672574715
0,207523555652757
0,203410723453636
0,209166726556289
0,205625149559494
0,20525949662668
0,205434984583188
0,200988573487145
0,203672497788356
0,202545901191803
0,202903818622183
0,205607725828619
0,205164449449028
0,203178070791152
0,202034182913901
0,202477570331037
0,199276171286903
0,201110533869379
0,200443668868563
0,201946159826915
0,201911799809007
0,198739556387669
0,197769817381339
0,204094154505511
0,196825358180319
0,199375228579168
0,196927499590741
0,198791667327815
0,198433350236755
0,199035075851114
0,195325514392982
0,201185421356617
0,197242331205364
0,200233231226753
0,19621518705261
0,194610064734964
0,194238006512083
0,197311130950803
0,197222102832809
0,196979751499891
0,191489507884226
0,191389801986002
0,193375490656951
0,192836482189737
0,189522351445907
0,194284051601461
0,188397563957569
0,192304757366834
0,191178992780191
0,191295716563783
0,188871969265878
0,191035885769734
0,187437633122654
0,191192663969825
0,189647533714027
0,190338479979039
0,188272089096145
0,184752313143297
0,18701482701275
0,188554705850158
0,1843108358921
0,184090583925659
0,185237154394049
0,189544594730203
0,184855209191303
0,188410484587879
0,184999837040695
0,184914171875441
0,18222067322364
0,183395251859853
0,183386212532575
0,183774416135044
0,180226851888381
0,180398231907388
0,180076702878731
0,184927364171992
0,182999247869315
0,181106579763345
0,187359392243346
0,183899139014036
0,180055095713521
0,181916888745048
0,181442467042947
0,18325155564389
0,180083690824269
0,18269153479141
0,179920377112946
0,180817810139546
0,180479157272165
0,182366122125822
0,179574346027539
0,17923693435572
0,174941593451763
0,179066482168158
0,180381326304035
0,175938927887777
0,17433824076821
0,177308721337352
0,1757972024563
0,175793887023165
0,180455546650006
0,178915080554321
0,174970464097777
0,175628262124023
0,176307152327241
0,175156229542464
0,17061632863109
0,16917291063045
0,171385049920533
0,174342369052122
0,171123561893167
0,174734927156394
0,17303681427043
0,173738958382533
0,173025986844395
0,169625673934307
0,166993665941486
0,170664785763205
0,164973861706369
0,167268039771107
0,167097549312677
0,166884665488241
0,162186290700469
0,166006067186178
0,165975089974429
0,167435436625253
0,166241787890487
0,167485907888937
0,167032839541883
0,163937958412928
0,159539548554511
0,165677129202127
0,160114531386495
0,163384271611688
0,160001349083403
0,16314564845199
0,161838334620502
0,164293358071707
0,158975401665634
0,164141798457862
0,161967849929638
0,158572379094165
0,15708176522852
0,161409425893874
0,156927307745755
0,160211919111658
0,153669680399357
0,159876156518744
0,156042121702485
0,15772958669204
0,155174940867751
0,155399752369352
0,150244979462769
0,157126046971184
0,154544664822846
0,154086197797379
0,156818301394362
0,156462968778254
0,150916054609683
0,148522170842571
0,147066524643284
0,150365614765658
0,146848361625477
0,152062012032691
0,149547716094113
0,14850075002969
0,148895945771352
0,152214890472443
0,145864584381311
0,150039932762049
0,145304317612339
0,147831549827257
0,144620419754155
0,147474810645648
0,143632017716871
0,147429911993462
0,14411984925075
0,142699381394807
0,142123567135289
0,14302833883604
0,140108193233175
0,139046975871711
0,14033203415148
0,141590018079711
0,140350355975323
0,142837875213665
0,138037166258437
0,140822286525194
0,139022201472164
0,139225781917165
0,14135668573844
0,139734685348429
0,139139748113312
0,138954984883181
0,135907190532637
0,136755714701505
0,137001850245015
0,140214698202169
0,136996438984117
0,136681491250573
0,138597092770171
0,138147190233556
0,135988382507117
0,138026870437149
0,134471097736294
0,137719833051644
0,13301236848655
0,138178404587117
0,133459925849382
0,138484297356428
0,132213952575643
0,136523233052113
0,132461190987661
0,13607772309931
0,137303156732458
0,135660041797142
0,133471462518049
0,135361981222652
0,136117676646592
0,13620003361794
0,135962261421432
0,134955777144587
0,135257090584902
0,138957471248077
0,136406179657231
0,140538403220694
0,132643799793599
0,135019485577504
0,129980064298857
0,134409240307638
0,137355755632277
0,137417829837129
0,131192905439413
0,136758199323622
0,137862911370221
0,139083553974698
0,138114648907636
0,141354003597498
0,127302400919456
0,147224744860529
0,131873678343423
0,133830661970353
0,136940445096712
0,137231406374814
0,139470463052501
0,131656165450818
0,125749330474137
0,134281217603089
0,128639195581125
0,124546098374338
0,125330426049569
0,130150191289797
0,121060659109871
0,128896907862329
0,129814215630977
0,128631212655728
0,131139740691147
0,121912058109014
0,131062261700964
0,125813054301338
0,132971770020169
0,127591423613534
0,137938725357073
0,126481896693069
0,139159971490788
0,112719247401088
0,134660864890405
0,116188378110234
0,145305809443436
0,114696916484487
0,155590267605724
0,10539304022967
0,147197313907425
0,105140154666908
0,160581302823187
0,102018793620744
0,151408341751187
0,0949375601918025
0,166864071750402
0,102044331037866
0,147881800932031
0,103022956978592
0,147502525005871
0,110656801916147
0,132052343415674
0,122245550028691
0,124988826306551
0,131177872262681
0,115140394385659
0,13489663325804
0,114385646059669
0,13683114113623
0,115984893678286
0,132574919716928
0,120031118267293
0,123927621449235
0,124208956124377
0,119598339367275
0,126710714423825
0,118045889171272
0,121129336717006
0,124597090023964
0,118651083821447
0,123409995188051
0,119721009771673
0,123966756895898
0,119477218240233
0,125427238373972
0,11955888289161
0,120338139443914
0,119330312894081
0,122404916757736
0,116635646555296
0,12058206525225
0,1193695560943
0,122509909144772
0,120469998528422
0,121070754028958
0,12072095953416
0,122809591774666
0,120842524383427
0,12177232047556
0,121058327355246
0,11847765062174
0,118648639008706
0,122816843467777
0,119981309037328
0,122244198568502
0,118290015846729
0,120691490278072
0,120792122292474
0,120175518832611
0,120483851866341
0,122724934306272
0,121354454956427
0,12376350313806
0,120369843921401
0,11948070585045
0,12116291689508
0,123327158670189
0,120791510765326
0,123719519441948
0,11992406426287
0,123516003600029
0,11978361588404
0,123958100910486
0,12179244769118
0,124014415561592
0,121480257026858
0,125074479171732
0,122195497887572
0,12311889749039
0,12190783556259
0,121995273888974
0,121234322464358
0,126101990289661
0,121863231444828
0,121592666247444
0,121421198119625
0,120293865491858
0,120793632923025
0,123071389901145
0,119819963794073
0,123699004226564
0,120941607273136
0,123004716933723
0,121617566782228
0,122907477618097
0,121474154752987
0,12325311573329
0,121708992113209
0,123939259272835
0,122517366432621
0,124834421203778
0,122101641400362
0,124149429855612
0,121388668577347
0,126655673630398
0,12128554959343
0,124207404896971
0,120038108183282
0,122728109314562
0,122282093912415
0,125011199950917
0,123591101770485
0,127546494422737
0,123276716812828
0,124844039665557
0,12516739915024
0,125103374707331
0,125302382493416
0,124948919947726
0,122795811090847
0,128310373638574
0,12325495039452
0,127082566174079
0,124695444068045
0,128893711887578
0,12689563925924
0,127465735197746
0,124512036074998
0,127856254243997
0,126669686428196
0,12884468195112
0,125435821237138
0,126943890329413
0,126201300773045
0,128804551719309
0,127187722950905
0,131265292111004
0,12751647151612
0,127591469902194
0,127630968175235
0,129631766283878
0,130401681028393
0,131139142324078
0,127183625656314
0,130421295472425
0,126788017833639
0,135013077424447
0,129123603557635
0,132040947908773
0,128628005198346
0,131165423792067
0,130497985809205
0,132596361414867
0,12993829052122
0,135275211379346
0,128999073689746
0,134486652469384
0,132984160120117
0,132851166447809
0,130747794190492
0,13248400578469
0,130035516634187
0,133609035123401
0,131008453370737
0,134143615000129
0,132598616459062
0,131318024801268
0,131371650730795
0,135136945543941
0,133014842989488
0,136108380058341
0,133953959790821
0,137836569889127
0,134071905436569
0,136023176539164
0,133773268578625
0,137093146427095
0,132939278535242
0,136798946945713
0,13543968549116
0,138339489655027
0,135885491773392
0,137396057394142
0,135496078333822
0,13931796891604
0,134974142912341
0,136571734286802
0,135330298994064
0,138420847326159
0,135006576886764
0,137561102451018
0,135872125354283
0,136433835502116
0,137049228697236
0,138458757212547
0,136552526443252
0,138465134291873
0,13557425671103
0,137136508894468
0,133473241390125
0,137151564727268
0,134906409750644
0,137797846006548
0,133097281793656
0,139342718689848
0,134965005113388
0,13604501698197
0,132966828949053
0,136240459845824
0,132621882566406
0,136335187042768
0,131997345938721
0,134766613001701
0,133418725403688
0,134003449795156
0,134377796948539
0,136493317452661
0,134087498713853
0,136739950038902
0,132039480784351
0,135952442368082
0,132764287036269
0,134896948508977
0,130950092252704
0,135621170818883
0,132835251114167
0,134567455622094
0,13046320232966
0,133614204235455
0,132426653392305
0,134781449568298
0,135240365792641
0,133407084294487
0,129804400183685
0,131210439579241
0,13469960070752
0,132820264984775
0,13257998998198
0,135848261570982
0,130614707186769
0,132444215601821
0,130476383756846
0,133385666489412
0,130615550465011
0,133292200922448
0,130188968770694
0,13668800394885
0,131959628211936
0,133030717304374
0,129272062211041
0,130991148673844
0,131425826690162
0,132170555762806
0,130344463230319
0,131321745421909
0,128821975218583
0,130388480102853
0,129755893724829
0,133055263020681
0,127317933628991
0,130632055161558
0,128641987902742
0,1306305200602
0,13030903316907
0,128396287882128
0,128637866953056
0,131124348174873
0,130664194490148
0,130355075658274
0,128953816757914
0,133192866768632
0,127163351296186
0,131692049385254
0,128443257617923
0,130994691872076
0,128124735784363
0,130716897018116
0,127997592657844
0,130011403590097
0,128408950633044
0,130663603127027
0,129929545003343
0,130067544090841
0,126165875596398
0,128501285112555
0,127536319858048
0,126976852738419
0,125751296799679
0,127862604075404
0,126615660746868
0,128617743110008
0,125425782296415
0,128834018946871
0,126356790860506
0,128540871562515
0,125984175062819
0,127516349287295
0,125422462543942
0,128071665262937
0,126187665941235
0,128149674546938
0,12645921861557
0,124920409707122
0,125167604121028
0,126530812431226
0,122034910930058
0,127560934218561
0,122434042422372
0,126512080727911
0,122048938196491
0,124767122625618
0,12124752858792
0,12306810545498
0,119685084618611
0,123714906722127
0,12128647261728
0,12202216235232
0,118893305253045
0,122873199252281
0,118520844393123
0,118801626373632
0,118334049930585
0,121324785772835
0,1162104922232
0,120010269138997
0,114899440523902
0,120619786385886
0,116751606651301
0,119436545807317
0,112257658215494
0,119475786163833
0,11086264287546
0,119721625306568
0,114056588668423
0,115052562475913
0,114443065402382
0,11429165248371
0,112745009950941
0,114506946491427
0,111260054389583
0,113025319045923
0,111465807603195
0,112873105192118
0,109140867290017
0,11160379444061
0,109215800832222
0,108737489119525
0,106592770448809
0,110119425158982
0,110163697284008
0,109616507331398
0,106616951533401
0,109166699192206
0,106335339469798
0,107118841217595
0,105466750407697
0,110159493418977
0,105079352069543
0,0982561755454906
0,115147849048351
0,10607655040477
0,10711361535029
0,106485517931868
0,108810548763399
0,104041275934207
0,108890054563716
0,104702605056874
0,106363995211935
0,104754253696382
0,104584725946481
0,105132685807044
0,102459894201629
0,104913497211782
0,105011544273939
0,103910904621362
0,104719382580704
0,105444021948777
0,104338677656896
0,103992711039997
0,103976680689333
0,103740397411651
0,101807527730608
0,10189214420201
0,10354351360404
0,0961736247453381
0,105528346137527
0,107282792411403
0,105050560905874
0,103482916894073
0,100214255844267
0,10092888361017
0,10220485293916
0,105912871061978
0,100560914708054
0,103255291016735
0,101321123195594
0,102284705529298
0,0980468174802812
0,102436614359674
0,101156786958057
0,0985858212772484
0,0984538087964239
0,101156339925717
0,101456080284022
0,100311799495948
0,0993733960155982
0,0988078351752028
0,0977175368376355
0,102043656820164
0,0978667799926323
0,101330532876817
0,0896633349369822
0,121692974936231
0,0962622915848354
0,105441189025569
0,0990599459306812
0,101350918269875
0,0958185292540844
0,0999926207469405
0,0961016944408014
0,0992901589741017
0,094142403438424
0,100084280329442
0,0948682522666947
0,101202998864599
0,0963475510870837
0,10072224249169
0,0969201549260389
0,100677872550172
0,0925187833236291
0,0982151561310426
0,093480738916061
0,0909157811158632
0,10275911503052
0,106473223547316
0,0889817962708784
0,103675604172284
0,0806507758271509
0,104397166088509
0,106159229371671
0,0917536568469809
0,0984404799007114
0,0930206671825185
0,0964975958510649
0,0921836038966284
0,0974110772584224
0,0888787720415589
0,105283056149631
0,0906737554524899
0,0982932654328201
0,094414261643138
0,0976877481660238
0,0955182524284674
0,0943168881362803
0,093794715976001
0,0946998589356684
0,0939177885952215
0,0928161780271512
0,0919259158714153
0,0901992128071073
0,0935985961790782
0,0938214134601861
0,0900610696152241
0,101149605106408
0,0888243797019098
0,0933521012953149
0,089429957937368
0,0926555678945376
0,084585411766917
0,111278094147367
0,0892831900755734
0,0951235962325991
0,0898430205341575
0,0902422779606009
0,0951799295130388
0,0920185410526579
0,0936204582760085
0,0928235475988016
0,0905049158923269
0,0904258560431925
0,0927455865738199
0,0901167327094645
0,0921101546632741
0,0905064718798837
0,0937890906445608
0,0892879924347589
0,0934972129073798
0,0874260291973509
0,0952988923417243
0,0864716311000949
0,0941228294632795
0,107680390788941
0,0905974396756355
0,101366387405146
0,092000312994893
0,0971656612753289
0,0867941822148816
0,0951765257634223
0,0861549519260811
0,0958881298562825
0,0885317603964013
0,0935618504423671
0,090086186625794
0,0946609472172499
0,0858995472298248
0,094681848972401
0,0872495918949048
0,0946073826438706
0,0844569519102882
0,0919955105876792
0,0866513794182125
0,0928393215952611
0,086999660849182
0,091731427214954
0,0918517893602016
0,0908570353306169
0,0830854525609065
0,077138296295913
0,122488081555307
0,0821595215936842
0,103123658986322
0,0869366424441838
0,0917856110329004
0,0863310737649403
0,0911329888347615
0,0939213533744253
0,0944104694066434
0,0848489070791425
0,0934249623301291
0,089329387915241
0,094978701574654
0,0856862921663854
0,0823545803386551
0,109381722949514
0,104172636603372
0,0856997983050942
0,0973981381295327
0,069588703798539
0,119277954069005
0,0926821008597906
0,0885811566974719
0,0943137192005648
0,0883651029269269
0,0929395186699771
0,0883283108451993
0,0891132587003881
0,0914890031005289
0,0951966234414626
0,0862050941397513
0,0936637110904822
0,0878451708451046
0,0933854747374279
0,0953717979413374
0,0871042992697154
0,102135242297438
0,0923134915678307
0,0893635135817543
0,0987311318061768
0,0905474537316652
0,0927153570288808
0,0927554112987397
0,0918999477374702
0,0880007907855354
0,102222584340154
0,0889313908182171
0,0974994517040345
0,105553143243864
0,0905653741405064
0,0942718113530859
0,101067411578427
0,0948455796146658
0,0987381695862399
0,0646380971809479
0,134420428033536
0,0852344427078298
0,12040295367055
0,0935732072398967
0,0983005263553848
0,092785583196854
0,0988419439493566
0,0847370641777279
0,0993407144486766
0,108621843860247
0,0891865511968875
0,104530492419084
0,0773341218152357
0,118508176226719
0,0954487771309575
0,103917561732771
0,0950548444982581
0,101407261677416
0,0968146904210945
0,111307244245916
0,071368023604927
0,11920320737654
0,108675437570165
0,106435891662348
0,114240821235596
0,0863447206249412
0,117414598646183
0,115748157620692
0,0961883050353861
0,10862074951878
0,0940363073946436
0,108425378852462
0,0802650294904862
0,12628498391435
0,114718597695388
0,0988287210114922
0,112305295187034
0,100577289174576
0,110736812931215
0,124999542784971
0,101679705331178
0,109090160995423
0,105522604855013
0,10360908252528
0,094687644299977
0,153070037622806
0,0797668187556101
0,15407505130959
0,102399494517884
0,135464235772725
0,110933794250864
0,122668571980491
0,101468109751117
0,136934618699839
0,114962578468893
0,114417044721213
0,0907732500830074
0,1533945112542
0,111361109287425
0,12337188030498
0,120130789236635
0,104564338207206
0,106470643520281
0,176696360853135
0,135888620639394
0,136171366647586
0,115024987122955
0,136534500026028
0,140257992647973
0,121437987221557
0,132010301179342
0,128150426189834
0,132240571602368
0,13036719565363
0,134514249688111
0,141124976924812
0,128238294119559
0,147376226614968
0,119645217817051
0,149207222790317
0,14813672767694
0,176752515162165
0,145911672764512
0,150872821919553
0,169031446893939
0,148066989687837
0,157601045382493
0,146614841036962
0,158522068232739
0,164361856233292
0,159144386329285
0,161518606198081
0,152423597793087
0,189119783543408
0,155212254526758
0,202416265147255
0,17183222317526
0,174910373955572
0,132083316353769
0,251549617647685
0,237563929538895
0,170978537130064
0,20844509660565
0,151827004225294
0,261536612169222
0,221631090527088
0,207509014354512
0,212772903639425
0,221228425829023
0,214167466741788
0,236929871280565
0,231889828766977
0,247923263860508
0,250474618653879
0,233035714028105
0,213128940159496
0,316142770275015
0,291462686203663
0,294490513099602
0,269312000518739
0,282948776874803
0,300411044220215
0,296548065560088
0,287642641458681
0,308209253691481
0,260969315908196
0,381012481351983
0,324330578862779
0,323749318458717
0,325668327571477
0,344280765443386
0,351757156140515
0,321148764863367
0,412485042545987
0,349942201509832
0,377990840014113
0,363297518969058
0,383536417574705
0,364988082727491
0,397660461554014
0,416690820699001
0,398671547609726
0,409165738371258
0,40788922360937
0,418692984908362
0,419763341575144
0,427532004049036
0,421548670359031
0,411684178347031
0,478840737977699
0,455235898810436
0,507906780461654
0,434464348621482
0,451979851535641
0,428356965139574
0,474968241820312
0,478484855097475
0,470241144856142
0,499282569898682
0,455556741027265
0,455941216871103
0,459081786545123
0,464150691933409
0,457190669665109
0,459333729561561
0,467013658284064
0,445377428624704
0,480015042146132
0,387571940387624
0,555527354325748
0,464806027062715
0,456484097937324
0,453243672581617
0,458542186602158
0,441187444652972
0,448007097534573
0,422324504631483
0,469577963265738
0,436737100975455
0,416396708172709
0,417964970159378
0,393644451911235
0,450848353847196
0,412160681409144
0,404407266534283
0,406653338120882
0,391988942533042
0,39937477906674
0,353440617217841
0,435922550682512
0,391975768196504
0,37542489789043
0,3811132987334
0,362746487986109
0,365595413122326
0,357267066018549
0,351802546697635
0,360696500939656
0,34775003392026
0,343034228124334
0,348358833186129
0,330362302986516
0,33900607044456
0,329599762756051
0,333506263793875
0,328139291034769
0,329889098960187
0,320085215727325
0,324340915332129
0,319691709682945
0,315647178124761
0,308554386205376
0,309324637843538
0,312067853456433
0,309970669460508
0,302215503183212
0,31015900659201
0,304272207757156
0,306358961443079
0,299452543381143
0,299602889392574
0,297261266531731
0,298734547503091
0,2912675591907
0,297592048409263
0,295743200360588
0,293276916666686
0,290644178756149
0,296085797382135
0,292124618942151
0,287764471345506
0,282868475118276
0,283328384313935
0,330561694913604
0,282924584213589
0,288990485809218
0,283108613719456
0,27982807244807
0,275534634415427
0,2759763039689
0,309666995339859
0,270686701531341
0,27152215144226
0,269060482950919
0,273895317521511
0,283725264699378
0,26807239782389
0,262093244262627
0,266179375469713
0,196130923729165
0,346642077176004
0,259000943214134
0,342017064107888
0,275653042864691
0,263790477094852
0,239574421883948
0,288356847305021
0,272072919678249
0,247876364095352
0,26684641471856
0,239691555625435
0,283675321830595
0,252649869714987
0,250681572306505
0,245785682494037
0,239229923538133
0,275567898035244
0,254818879173495
0,238974902997988
0,264105804782848
0,255766899694283
0,23628956440395
0,323059384240282
0,260672925578736
0,250921105957687
0,235318073954075
0,242012663968004
0,225643377061261
0,245359015658564
0,262523916312023
0,232278256175986
0,248927347463845
0,223466872567525
0,239993679288258
0,24019796508576
0,233802006575893
0,229454578384396
0,23998794408458
0,249609101901917
0,202691438391684
0,264534968050152
0,230624794488086
0,284578060553071
0,23575704708929
0,229137992321022
0,216698012830925
0,27043230932946
0,247858382735411
0,232503230463952
0,233043190591267
0,224290535317074
0,235003864449443
0,237850386652307
0,207273692495527
0,249656771421445
0,229604794017635
0,239680098205764
0,25330855757385
0,27178206864352
0,245718058963394
0,231311999644593
0,225557592296646
0,243024613771537
0,226262623254742
0,237534737704827
0,216899298441551
0,260056769350599
0,221885268559752
0,255637076991407
0,262378637273634
0,242969679748136
0,245262708997907
0,25184068636354
0,234626333938761
0,267748626392952
0,277492978526648
0,2763682554066
0,256721449824492
0,282256678698031
0,273574770697575
0,270545491922572
0,280405047123411
0,279329284817298
0,28450907687191
0,292307254059728
0,299724543094789
0,306046682926044
0,306204141143983
0,309530219039514
0,315930732459561
0,344056940230928
0,339433827110949
0,319386553907585
0,386332279867168
0,366353097909788
0,391078345897206
0,374956596329619
0,389927558441217
0,393222111298948
0,392383602164166
0,40360297101682
0,409763787052026
0,443149444677573
0,442216780061508
0,425430646420474
0,441364646580829
0,433698212848659
0,453125060380709
0,44218866387976
0,488746486183512
0,453930452776832
0,511716555478797
0,481740050187643
0,474019976545652
0,480656481130748
0,468150753348943
0,483482892389354
0,482406363491026
0,476259079786439
0,476544486081385
0,494273838489462
0,493058589587655
0,481897358630114
0,491530559282116
0,486712536228137
0,489682932935584
0,492148595186213
0,489181465109035
0,494281216488516
0,49348060585704
0,497371116370484
0,488011421543039
0,540579576689185
0,545112047328689
0,512779104558464
0,52060452517969
0,517695827413576
0,527493105860146
0,520055834626159
0,532674634854453
0,548489260234426
0,533595950667013
0,539875973152091
0,538751424495365
0,537249410754918
0,555350452801945
0,557686934242694
0,567250514404532
0,54618509218616
0,549997441295799
0,544387640808635
0,621146705326808
0,57721871925217
0,567303425273081
0,584568531466441
0,564166734392706
0,576046783950049
0,57442395468211
0,58105872899582
0,575534758553336
0,583171985166865
0,568861740827517
0,579978794465403
0,577343095417964
0,56435944525938
0,56482409653753
0,580338541272559
0,583098848171651
0,5674523271567
0,565939868208266
0,562298987178322
0,556325282228716
0,559894762621302
0,579754003941371
0,559401635272207
0,546196408776457
0,549856183193836
0,56239237012617
0,558009944264969
0,551851404016965
0,543424989940933
0,547397345387119
0,549595843183567
0,54572704110867
0,550234265823493
0,569110255555041
0,584930809195242
0,563897230365596
0,571753341271417
0,567184228841015
0,587062876663644
0,573760087603979
0,58720202086193
0,586199287469553
0,598149889650438
0,592763405699116
0,608233604697344
0,596042736434829
0,608543416355664
0,615357458671838
0,627002979562602
0,611799114296562
0,620865199253292
0,624680801525074
0,625760812230731
0,621970658686203
0,631670472128064
0,624151162002321
0,634077164193765
0,611617198855518
0,625072631222314
0,63826112981643
0,633929624851811
0,626439704892052
0,632165167412482
0,612435857184337
0,623038775318706
0,618558150004389
0,615265923533725
0,611866198879829
0,61879537421602
0,609143483567653
0,609297020375374
0,606768129783965
0,610158642893493
0,601150865162988
0,608732957442341
0,599659499978966
0,602330734581201
0,597249581669301
0,59390337599873
0,593203447346662
0,592740129484696
0,590832411325551
0,59355857090115
0,590972726376173
0,603059899376758
0,604989159763099
0,605046391651088
0,602074699547476
0,601252303640409
0,594243135311367
0,587434698696313
0,587635035411084
0,587407029040332
0,593167741697734
0,584263877499353
0,583442079962965
0,573638365050331
0,575112356601165
0,571822419065376
0,572182668108881
0,564178453735387
0,559239847070458
0,56072042878837
0,554130068700727
0,55230720284668
0,547501664219941
0,54771657230214
0,540394910186798
0,54390475890313
0,534591592733247
0,533770214877921
0,533688771630903
0,528806775053442
0,530979875700624
0,523298873968754
0,52188438032676
0,523246276089846
0,519414807245683
0,525632572391521
0,517031164974044
0,525042090848723
0,51669036310947
0,523653122129957
0,518370705664046
0,526094306028503
0,513616350247054
0,507209765152824
0,507580235320854
0,507964093876614
0,500591231230128
0,50085057636097
0,492504981190319
0,493318312631965
0,484873096402671
0,487854635590559
0,479016953950921
0,475029482024808
0,472152887120472
0,469512403999917
0,468469416197181
0,465179040524969
0,465694424860539
0,465420085154766
0,458981941597425
0,459609371498887
0,455153456800137
0,457493694657146
0,454360641713953
0,451500763678351
0,453325642721099
0,452836270312717
0,449776296896301
0,450536527832871
0,45184485725344
0,456677965810385
0,454032817365795
0,461261549333722
0,451561259652422
0,457991769586185
0,456707294190504
0,461223628990887
0,459994108120331
0,461989640733277
0,46121198842108
0,460337336443063
0,463219082247289
0,465270737949705
0,46176435001497
0,463337238940048
0,46509131234256
0,463247645216148
0,463984561120734
0,470569026261935
0,468607563796814
0,465448145643892
0,465900063861031
0,468302992829868
0,469746157053433
0,463508783705319
0,462979412230107
0,461996900031156
0,459847665036285
0,461676328513788
0,461788574291557
0,461391317966243
0,460945912784899
0,459663032205361
0,461012762156301
0,461886416421048
0,460263089731181
0,4575037253
0,460226939392906
0,455902932789114
0,456118761080694
0,454601115280146
0,450907056824314
0,449139440740965
0,446993798233058
0,447553835438565
0,445330919981756
0,44038102951857
0,438110631374865
0,438009893339205
0,430652536765335
0,429290635991262
0,425983307089765
0,422654289130536
0,41747541977938
0,414840007326063
0,411870848293421
0,407995207709416
0,400904686080723
0,397795901847892
0,394046272200013
0,390529421270701
0,386867334762849
0,384905939783709
0,383824546081339
0,38408942222977
0,380532367025358
0,379523975618777
0,384245470253273
0,382716818917291
0,383575231372132
0,383483830106587
0,38453323678124
0,383414506063333
0,38416440721653
0,384889533504083
0,383074661682007
0,383809569030903
0,383663906096914
0,380886897900112
0,377896213520624
0,37689676703803
0,374684195771091
0,369745457432988
0,367273826304841
0,362375895173493
0,356377706687633
0,350146618638555
0,346213891271454
0,34075118563237
0,332056238661207
0,328179026941626
0,322325751921631
0,317774280953506
0,31494745291083
0,310096428619034
0,309481894657771
0,307925181361865
0,303618434815292
0,307462074025147
0,305736567794258
0,309677466148275
0,313722595150413
0,317339678920987
0,321920899990116
0,32866906817382
0,337322862148013
0,346496436306125
0,3555774049615
0,368848143313643
0,38250013764746
0,398118579308688
0,41062714424006
0,433691010539923
0,450968044268811
0,472761102789247
0,494476737457771
0,52050139542888
0,547221495843444
0,582088882477792
0,614412277407374
0,644119568263777
0,675179882147287
0,710913610530633
0,743197391247246
0,778644646737243
0,804755308015892
0,840206643298595
0,869396869871885
0,896380994808107
0,92214267535788
0,939365778391801
0,964501408492473
0,986866291304047
0,98989658063582
1,00164248516609
1,00353006936424
1,00238152585924
1,00907086987377
1,0112018150383
1,00094211949331
0,991323662302391
0,974892873345903
0,956622730310856
0,958431955321632
0,934740931281532
0,918492034658018
0,899886338407508
0,903588666573714
0,879905451837611
0,873123304378105
0,865335008141151
0,855680636904438
0,862790238699197
0,847433190558091
0,853445477547589
0,858060914523166
0,851526578505194
0,855767398675857
0,869266897198251
0,858864323877655
0,868917004095565
0,881778163290756
0,892985180968433
0,896185828013278
0,906622272948167
0,908257917208273
0,923154964005308
0,918304215319398
0,937051539186448
0,93797148886693
0,950986525770019
0,961199945090617
0,961616447836718
0,960112542463756
0,968087620929961
0,97917772909521
0,978832847543902
0,980249815287722
0,996053565036448
1,00177549055967
0,999821689738722
1,01160178629638
1,01687026476471
1,01905799589224
1,01644284065903
1,01480001091178
1,01638912596372
1,03036867964712
1,0318134599646
1,01012631004519
1,03323036677556
1,01529526400218
1,0276088725607
1,01540524255494
1,03115837300355
1,04047444177678
1,05397655945835
1,061264678378
1,07667651347415
1,09013248830137
1,1054126175079
1,12802631628141
1,17920400397832
1,19210560282975
1,215624524511
1,26197969722881
1,29205159232629
1,33580464238383
1,32285270072806
1,39711828511727
1,43298439481471
1,45239173594767
1,46380839227022
1,48760663060448
1,46134708630729
1,44945794567562
1,45541234612397
1,46089222253541
1,4385220545369
1,40901098609684
1,3737380947506
1,39545082208962
1,36662870468695
1,38717191092741
1,31842964844085
1,33825806572592
1,34390342270475
1,35458294985007
1,34493512899182
1,35657491015032
1,37714596064062
1,39445328757882
1,42334720292748
1,47121115760623
1,46231585272091
1,49859850628288
1,48098345214215
1,50997592411962
1,5061610393582
1,5808481760397
1,59094104804552
1,54771504462364
1,60013083078482
1,66560109317426
1,68659165802035
1,67710932159495
1,68527882102952
1,70397008039692
1,78904488423339
1,75125892263626
1,90300392486263
1,87755618743985
1,7499369321159
1,98708540882391
1,9874100767043
2,04486440104052
1,94947420243892
1,96138893915698
1,98357168781299
1,99882550906241
2,08091995018262
2,13832818605919
2,3244024815002
1,97434533295345
2,21855560670302
2,21847642438101
2,21875220622711
2,17644227381777
2,42023897157913
2,35131819227552
2,29261576848528
2,29805332988515
2,35983731820839
2,41602845137278
2,48655073238056
2,45528530020562
2,62453542014144
2,84401888778504
2,09504434056661
2,34389459975698
2,14958901499092
2,23435692556004
2,67776175355768
2,46632471199034
2,34416481146129
2,28196451801258
2,14820465442784
2,32933455494543
2,29709894235278
2,17968514276307
2,26253356259672
2,83088549032814
2,05090494918706
2,04548778858961
2,41307855635878
2,38056224406347
2,14018842285712
2,34143591285451
2,58675259339432
2,65709039220049
2,10412701162344
2,18066302722989
1,93063219741198
1,97365423101335
2,17402773400514
1,90944586558765
1,91999404628426
1,90492213477495
1,86019207328803
1,8561007578916
1,71720649230403
1,73448641770938
1,62643428039558
1,66156693802654
1,55192377726438
1,57522462527422
1,53808041688445
1,52090572707932
1,46710307228264
1,38748814142558
1,3606407384314
1,33885984241824
1,26268030212487
1,21751445615307
1,21014385660457
1,17757585617488
1,12670110120266
1,09939769218333
1,05259502289771
1,04221260940486
0,96611504266485
0,949327804642231
0,897480131160041
0,877819711840169
0,845825291785945
0,82861284034293
0,793735964328696
0,782007374227191
0,756568200435968
0,746958777231799
0,732369399404274
0,728948616900207
0,693588587597283
0,695804097549855
0,685805522971475
0,679918178069632
0,66932785545077
0,666556246860891
0,668986912823407
0,671054368842302
0,668723363681801
0,677541405660911
0,676356114503476
0,68850188342551
0,688218609943656
0,698327207739124
0,705417925993283
0,709624385806167
0,721539987525609
0,743253632129578
0,74817706655741
0,753497185120063
0,764626952803193
0,784931166396062
0,784661117830009
0,775032001572685
0,776655319328798
0,784077944060844
0,777227021832147
0,786750994485409
0,794042756984779
0,80397043234432
0,787164562271115
0,796557964592579
0,785637617105937
0,78103523735302
0,785560435874846
0,784956097904523
0,77520359202479
0,772730188448743
0,7645827455889
0,774485188707123
0,755116848188787
0,752591662505786
0,748906621531725
0,754675660351168
0,740861747260434
0,724293679537468
0,709540350309278
0,701792897245181
0,694198656695525
0,700049636015524
0,695378474841411
0,691615263318893
0,680666547878893
0,686567431048872
0,674546827850864
0,669716169201129
0,680899938048501
0,677011653593951
0,685686792905101
0,67742051013967
0,681404753140219
0,694712550601944
0,692477921836991
0,704005583834079
0,691473872617187
0,711812865462697
0,711402465679931
0,708831653076212
0,675966690442544
0,691698681598719
0,67907358265114
0,672970646255349
0,652100020255933
0,663455151212836
0,661636342351656
0,642595271271788
0,645445816969027
0,642841911025807
0,627303794314539
0,628759840466548
0,634092296844886
0,62278266140244
0,619604030445775
0,6442476822734
0,613014853872195
0,637345327345316
0,625869427538419
0,646787020272856
0,633103183418464
0,652604725011983
0,64560287205998
0,657746342461681
0,645412735542775
0,669579160409623
0,677924836995435
0,690769449451786
0,668595073112443
0,688985999692839
0,703797743243747
0,710767845360889
0,703465085458585
0,704821478541838
0,710121138608222
0,737180495435869
0,704358357314239
0,729897158077173
0,73038111030797
0,730382951130217
0,736457699770187
0,734689357554782
0,727830224325032
0,736113433845254
0,728307149211008
0,739215996300008
0,73023031618731
0,730329675759655
0,734828442161721
0,73714820514726
0,724502713708088
0,746616698461121
0,736973984167763
0,71677764619152
0,731076300608912
0,722343501154478
0,742698878396341
0,718375507111847
0,709425966035289
0,733088821402937
0,716629382686384
0,713682519010955
0,705984201080206
0,6997387304588
0,706932530683665
0,679233194794992
0,67839023563949
0,695325834525543
0,688734081373744
0,659476384678207
0,652999774245205
0,666444392890713
0,668592461711309
0,66582236469697
0,649787696403605
0,67020524201111
0,69050869542364
0,674206846618403
0,651940880919571
0,675234379933354
0,637753466982932
0,670622213231206
0,650538926735188
0,673795514292957
0,673231895453513
0,694114801940951
0,665509562061372
0,689245794895523
0,691305324212656
0,674148517739472
0,678860959682068
0,68263827267498
0,688054134618118
0,711440266774671
0,699223869587661
0,735926416830856
0,719736376528167
0,742863165232529
0,734120155661503
0,710673665074578
0,714682029788101
0,753982342548533
0,75168686192981
0,759397479324427
0,766981237054616
0,812744146000958
0,782173494741242
0,79026684233779
0,809696899424495
0,82196887592744
0,816965844292062
0,863295738470866
0,844817699874307
0,859381602173177
0,831848402441113
0,802184282883941
0,813137165795207
0,902977706632998
0,895692393853358
0,88696769527668
0,881392037345855
0,948267832880136
0,875805664015044
0,962500454171636
0,937407700872766
0,940839838305483
0,924360931160055
0,905715643527285
0,981655364012543
0,975725973477132
0,898651008243582
0,955865150061919
0,99557265045663
0,983729179964314
0,966976861107818
1,03639319368762
0,970032737066438
0,947990410450937
0,953595838686652
1,04144733063391
1,0749054073205
1,04120362993438
0,968662690686528
0,953214107506649
0,948612059772194
1,04343483238585
1,00282963016449
1,01212462950677
0,964933552653674
0,943856555942737
0,926291423794272
0,987000940233522
0,923481438455477
1,02364599106528
0,92572381599013
1,02223856141977
0,912616236616316
0,968996448722564
0,996674484306798
0,956547739908568
0,907304214408413
1,01320396821086
0,921874962345353
0,979588314366054
0,908034021197976
0,913643929237571
0,914406728911874
0,983647200446835
0,921555877433915
0,977389115232282
1,05754090799128
1,01211416091499
0,960339999096082
1,0826057662339
0,890932211176112
0,972637893020464
1,04677552464483
1,03637170528257
0,863676673559873
0,969377615645354
1,06166513036078
1,20607281920851
1,0188443995548
1,04243663942929
1,03935132216612
1,23121855148373
0,943329660663371
1,07786472119449
1,21488809664918
0,938789482211147
0,976525119393175
1,11380950563189
1,04057754489302
1,22576142633771
1,10765308537378
1,51324267655563
1,22814769051092
1,14335143640941
1,20498838713693
1,11460223905124
0,976488827762977
1,12139382487921
0,967690425811718
1,75388415009734
1,40838627246126
1,06920608008582
1,18179142436439
1,68378877334749
1,06357957859775
1,55760241123831
1,16212414849837
1,01719572757474
1,14201879454789
1,24822674164559
1,53388426567913
1,56390704847942
0,877514267096153
1,41057688923895
1,28136464834638
1,23989842035592
1,19369354701078
1,09706401237201
1,10985440850952
1,54716139383814
1,25801081464363
1,08469894483798
0,975885716339965
1,22122073498282
1,07226589215161
2,08690253176321
5
1,0842782355727
1,0158488645928
5
2,16057460422776
1,39979383964639
0,940770802450583
5
1,29957663670224
0,976892991588971
4,20899745885726
5
1,43020940568644
1,11050877635314
2,22590325465774
5
5
5
1,02257481952464
2,0817191083721
0,848354924005058
1,55449394731568
0,862621558684994
1,05003689452674
0,814733572495205
0,586845841531643
0,790283246626415
5
1,2620185223208
1,38547157695125
1,04464472145332
