3596
4000,36533379555
650,420452594757
1
2
2
0,0163055290859288
0,0053451053604426
0,0227327656434022
0,00309755062677401
0,0229337209882866
0,00670971143877003
0,0277011162992851
0,00895743992117006
0,015236324807002
0,00672581056426936
0,0215408105202867
0,0068330687653553
0,0163570862190752
0,00447536742613307
0,0178681788902
0,00749831493278651
0,0204454067809525
0,0120494366912441
0,0235973244081093
0,00604413295372022
0,0182010406088346
0,00165071600182893
0,0140154608325131
0,00688968787201723
0,0154527186110837
0,00123771972785909
0,0139481659097861
-6,5218597465066E-05
0,019880942392019
-0,0014215877019778
0,0200674606857861
0,00261287093884716
0,0210675373447016
-0,000353536813290945
0,0156500017956604
0,0074497922045667
0,017048179587713
0,00436360794353827
0,0179288120204497
0,000266835922601036
0,0148026304966968
0,00712515251502201
0,0107686583764292
0,00666216826819203
0,0216872143436931
0,0123289625623486
0,0138934561478664
0,00681622066390203
0,0253313939338391
0,00663762466147808
0,0274800935668263
0,00258627265850895
0,0135504312082691
0,00369948097173704
0,0158075851677691
0,00422433438829881
0,022521323485468
0,0050057623682565
0,0218688433252751
0,000786314306083024
0,0169024595519564
0,0165179209892258
0,0164122563724606
-0,00053950769354579
0,00857294481158529
0,00709248604582067
0,0148357929421482
0,00764188234797776
0,0150194413821616
0,00896036124924104
0,0145967186844277
0,00579718659407764
0,0322736264902874
-0,00277263035114145
0,0220742806729781
0,0109973116350083
0,0127661680215089
0,00853380096181936
0,00378808060434709
0,00315727731045758
0,0191588535818071
0,0130261221316479
0,0169171510796548
0,0064043635887456
0,0122880991086226
0,0078368888159226
0,0153434193395343
0,00924603039891546
0,0235217774387904
0,00411309046405812
0,0132086755517807
0,00643095184138381
0,0210833656873551
0,00794110381119614
0,0178713932371894
0,0114865325894619
0,0158231191555745
0,00265903358704963
0,0200866816856897
-0,00771026195810214
0,0204914775787065
-0,0139690262976445
0,0432956703809261
-0,0103975983014941
0,0305400816996228
0,0102078754259339
-0,00179156174751678
0,0229784577147938
0,0190524655667263
0,0153507080292009
0,0131263548344899
0,0100984417629289
0,00875635614718384
0,00720322791389718
0,000743218433407716
0,00567809204166081
0,0323128177252863
0,00766232127728501
0,0160825964469119
0,00808791276758232
0,00879142542515511
-0,00426124105768322
0,0419034022452765
0,000648167450077393
0,0240722442745578
0,000385021746790511
0,0094312350897046
-0,00670953017508921
0,0391298945249444
0,00892166001007816
0,0287922102443982
0,000500515192066751
0,0235053505466191
-0,0146833150078863
0,0405309408615966
0,00436072243209705
0,0178095457582491
-0,00814015117159214
0,00820775489540031
0,0251070385257
0,0270322448214216
0,00788365739322233
0,013727289759188
-0,00782989199315387
0,0340273089627571
0,0126248055085327
0,0137590077901077
0,011793697854188
0,0206931217145076
-0,00327372118662423
0,0166258269582908
-0,00623456941588341
0,0246715374018358
0,0115761456591511
-0,000455065060829661
-0,0185563811683823
0,0579335454899912
-0,0302643526836828
0,0668538713990619
-0,00207306857021913
0,0338815769962951
0,0022182488768621
0,0145811038143521
-0,00393814363680515
0,01573705137231
-0,00613303282935197
0,0102070035743214
0,0215414527543195
0,00759799921123175
-0,00464255987087678
0,0233356460464759
0,0178387089003242
0,000987830315929846
0,0356642015353386
0,0342300287959568
-0,00847483180904716
0,0413655034139014
0,0168090965819033
0,00575184177621077
-0,00805324019320401
0,043387265028158
0,00328174073087911
0,0257844797374496
-0,00310519535208705
0,0166964459602906
0,00473158688086987
0,0267005267071882
0,00120616747364906
0,015851224539237
-0,0109556412836251
0,0147974321544442
0,00355381601994996
0,0434667617295942
-0,00389775486064087
0,0274287125096096
-0,0269624451705474
0,0265960224211359
0,0273627715603253
0,0153838985480669
0,00600112230741923
0,0153451387788033
0,00475313384056602
0,00659612766690719
0,00109038340301508
0,0176549118698571
-0,0233896211866439
0,0369129122863387
0,0111972012177895
0,0280838033802602
0,00407363552072558
0,0176404150606904
-0,0177627507072234
0,0352004646418299
0,0269452903805675
0,0160577161038529
0,0122161714515679
0,00345013873271851
0,00405012510238286
0,0372442545082713
0,00161196085228199
0,0128731718706549
0,00623765242746385
0,0165634329246795
-0,00162229559026332
0,015977815720374
0,00333148496310335
0,0157158428385265
0,000470925971253026
0,0162258343340075
-0,00260185418228913
0,0116907314554395
0,0104381753616079
0,0238671442578202
0,00733750644225846
0,011723889799192
8,91179922392603E-05
0,0388276801298479
-7,19168662268789E-06
0,0224427316210087
0,00139129060354677
0,0187248039943888
0,000296700560673771
0,0136392425088512
0,000683981322641313
0,0224344078939131
-0,0150713804864243
0,0435632059034114
0,00230551513016769
0,0209504634278637
-0,0021820627797827
0,036889804437635
0,0160556778593125
0,0188507777990336
0,00118217459139099
0,0112696388592488
0,000331948217911461
0,00037590678765013
0,00989615810816507
0,0190681678814481
0,00264288081404841
0,0172225554036072
0,00978585337949979
0,0178854510606354
0,00669705635532418
-0,0111096884803659
0,034969809771634
0,022232437887374
-0,0325924119889635
0,060195431135381
0,013276015325216
0,0166311118998716
0,00335856647561578
-0,0225995649975784
0,015379522197266
0,0389304554535276
0,013315913196494
0,0105306711857256
0,00915120011523239
0,0179401965664265
0,00123768633938653
0,0135488532978423
-0,000864719097169384
0,0259049406150565
0,00116648870164897
0,0564887000982585
-0,0193428650480132
0,0279034798405332
0,0237435322451675
0,0104354171840845
0,00723341636411571
0,0136299341046429
-0,0048843038112867
0,0215306059254295
0,00873706357754005
0,0218724443391827
0,0188466387528757
0,000859529571261793
0,0174070407254866
0,0149072723530388
0,00385384776805601
0,0126654774699959
0,0160719849811688
0,0125196501442177
0,015803187930761
0,00368887447615306
0,0135338386989378
0,0170980542592876
-0,0172885647361774
0,0397467021465691
0,0167146687454271
0,00202472539902179
0,030557161767424
0,0202744016557816
0,00973746906045832
0,0108702382458625
0,011181667535559
0,012865508163311
0,00729932953681669
-0,00730094194446621
0,0209400132048769
0,0172587539943524
0,00694543641124143
0,0155820672075904
0,010943470533379
0,0107344550493089
0,00490880453767932
0,0161924745822792
0,00306260123020481
0,0130820970242309
-8,34782791896219E-05
0,0142623474635026
0,0273112438549993
-0,00824202036164094
0,0032503928204621
0,0462159402046848
0,00803052399313623
0,0158805283546331
-0,000428791310565505
0,0226356273618394
-0,00109216333926781
0,0138901511953446
0,00929639866650437
0,0182433174914334
0,0187512009709871
0,0202010567532024
0,000699854191774557
0,0099531376684248
0,00250238895616221
0,058663469952445
0,0056037305475956
0,0332204525842021
-0,0106597566637587
0,0261665542254443
0,0189650682857245
0,011214909975152
0,0265822041189112
0,0153768399052024
0,0178225617737558
0,00986336808678597
0,0124206290225619
0,0153770867531834
0,0227849236210675
0,0192515169426923
0,01561522390512
0,0148796550949418
0,0147975482506363
0,0147828241643414
-0,00373476272581057
0,0421465113773355
0,022145761964561
0,0229721106955294
0,0223400907035887
0,00870167554882153
0,0127065452010459
0,024913647045647
0,010851953758471
0,0444606127315665
0,00387561402931509
0,0593439891258043
0,0128165542078991
0,031195928326509
0,00769404479134408
0,0320266771986693
0,0150292840117143
0,0295880845012759
0,0169357714410096
0,0189433320812383
0,00588982837819687
0,0411446201555233
0,0116223596673335
0,0321442725334318
0,00240434101611584
0,0470319516782591
0,0173851280935132
0,0363802420999769
0,0138481791831142
0,0247128717255096
0,0282070516705201
0,0537863262001068
0,026593416623257
0,0436021455981705
0,0236482986186156
0,0263238042739161
0,0367379562099712
0,0220048884519362
0,0299836051418491
0,0283496559636983
0,0297602247978678
0,051045946281516
0,0232869028320923
0,058339277371626
0,020617287655956
0,0538486887106332
0,0324726847901035
0,040073901370704
0,043619021442006
0,0555399496295949
0,0226269588400108
0,0476795427517982
0,0568905451312721
0,0374732771427705
0,0492291654947457
0,0450171671572362
0,0429926109954779
0,0426494947259897
0,0402025146415098
0,0350179448317076
0,0375785583871578
0,0565901106283473
0,0339113678777006
0,0516200700544366
0,0421629584388539
0,0535929847570269
0,0397295199058363
0,0568336311511979
0,0397200694064418
0,0736192781498937
0,0386782535571125
0,0635029638150374
0,0372961855119557
0,0676275357724663
0,044844345146706
0,0490324199810908
0,0621292016027602
0,0647980587593859
0,0612419358965625
0,0627911958320013
0,0561910440212843
0,0603567430754734
0,0543410456340638
0,0592463081916598
0,0596793592257871
0,0739039445338627
0,0541436783328752
0,0705947792698734
0,0514560512349956
0,0832983535332012
0,0668577454489245
0,0738843029597474
0,0591514778131178
0,0735740090535529
0,0607283686967161
0,0939460032399343
0,0782992444094334
0,0859125621349195
0,0878433868609777
0,0762523564304826
0,0669590289708245
0,0810938506692659
0,0896097449508731
0,0884105081756756
0,0839240779167161
0,0880798235039755
0,081986755582515
0,0962465131061761
0,080025224159754
0,0985387205838092
0,0856046384201779
0,0955908263295948
0,0932098020028541
0,114163901662722
0,095272252597263
0,0976016209009701
0,0892820942842671
0,112722647022913
0,0986630722586845
0,102599158083471
0,0957298473687064
0,114464230782604
0,0946614080487939
0,107211805783477
0,101730704041741
0,121529073755343
0,104466693905194
0,124489987301056
0,112026647331412
0,11680238149279
0,0999225361204113
0,120835021207119
0,101406309469484
0,127980131816612
0,109634501804492
0,125322938579065
0,109835832624924
0,13526687815099
0,126317580576564
0,135653791902006
0,1200353480421
0,133590144366693
0,126309627843776
0,140415323593355
0,121040082596575
0,136681907847082
0,12699375362263
0,133869970127023
0,130510180089191
0,148961321022921
0,129226352858975
0,145949158927109
0,13374210599022
0,153995684585484
0,147673573675763
0,154842398889012
0,150422998155609
0,164275692822073
0,149083962152284
0,166453210904469
0,153328824528243
0,167005167699135
0,148372295991309
0,176322836483488
0,157359307843191
0,180356629954683
0,151449801056192
0,174776866359169
0,1616628573223
0,162608067692394
0,146250893039707
0,18447925568797
0,167494796712416
0,185299585549639
0,167490353667343
0,18648446949833
0,165697408083928
0,185161052478723
0,172919187596905
0,192442735986666
0,169499629481424
0,201090825470781
0,177583227719598
0,202202822479195
0,184430774243896
0,202514103359366
0,185850764140293
0,197027926682323
0,174531248225166
0,203437039767523
0,187016950872832
0,206151214777012
0,200579616163611
0,220058035782318
0,192446390276164
0,216880139960196
0,207448014922486
0,219706245869691
0,205416302827062
0,213362613482143
0,199174056339036
0,218951442959273
0,203569552742097
0,222980910901117
0,200157393775003
0,22380243960129
0,216472863823065
0,229066530742039
0,209619131584596
0,229232412614796
0,216486644155882
0,238706605106765
0,221144798986501
0,237523168325647
0,217090334230908
0,244073555134558
0,219792765992892
0,242514768715166
0,22826151472535
0,242580751064942
0,234572796013782
0,227235227004802
0,220459402614029
0,243389734501897
0,230156498155604
0,260433927928511
0,244111717833531
0,257085280435432
0,241910952123333
0,262893640689312
0,251676259939707
0,255057862429379
0,235812250546451
0,254732408441857
0,233505035492218
0,272277250131464
0,251715272109761
0,261215874192438
0,236130890825297
0,274245894181968
0,261400312512347
0,280088169412209
0,258154481586387
0,268769588479264
0,255970484830556
0,277415710003731
0,254383112694608
0,285686760490443
0,263704437832388
0,274066211458844
0,251136869991772
0,27441255726574
0,26387974887077
0,281801912760624
0,259589030142864
0,290061377780848
0,270767441370892
0,284713435586675
0,260109454745643
0,291579087774276
0,273632011902063
0,292978157596575
0,277450845987441
0,289412170986995
0,270127236680998
0,287571893770662
0,277120201729517
0,304032998643911
0,268530028719435
0,298795165235449
0,274867461789656
0,302867218063608
0,279901190351103
0,295129955449294
0,266192449076384
0,292577591360957
0,289864819501932
0,293190904456965
0,27292011629955
0,307913339512928
0,283225592086799
0,306439242574296
0,279532135848811
0,304146576772516
0,284660555491943
0,303587529049389
0,300860776875983
0,310449088589
0,297649465347767
0,308933561332571
0,29723126044464
0,305113675485118
0,294089999500222
0,317518459440309
0,298293888883065
0,315002129337728
0,294623274681384
0,322008442935873
0,297316187215445
0,316939693706219
0,299525147542304
0,313420573591629
0,304895804664078
0,320205063086284
0,28393395205304
0,304360262383988
0,311674770583371
0,309564563815711
0,295546649045024
0,314435475479648
0,293476639958188
0,316795737086497
0,295312170801842
0,318797733618571
0,314580295546615
0,32162229963612
0,303601477086687
0,318907735693369
0,30455077619888
0,3217391844142
0,304912525173643
0,318321156689013
0,297593924168748
0,326950983473276
0,307198634594785
0,315012466032451
0,297821870347038
0,326226812770899
0,297294997476049
0,319782075620409
0,302271537442658
0,319622095303243
0,314407207129398
0,318747255315422
0,297746163759751
0,326815184670413
0,31205171952294
0,316323809724167
0,298346168670074
0,314190552364405
0,293867861376403
0,316847980597911
0,306199326246208
0,308229979051618
0,300088499484876
0,316758300693715
0,309024589450198
0,32781256090642
0,307249947226779
0,316823622795416
0,293793094979453
0,310101972534598
0,304828555698055
0,314115125670524
0,306431467629762
0,31467043878669
0,303117167439883
0,318556485499957
0,301252996461797
0,312302224294759
0,297880483991446
0,310389713429785
0,291550255835873
0,312245484636944
0,292378143111616
0,309205449902679
0,299937081398442
0,313401093299699
0,302688939722174
0,312374723349941
0,297151037268151
0,311240495605751
0,304488423477602
0,30673755126374
0,293344437840678
0,307895256258951
0,28995423343219
0,313572026308855
0,305371842347194
0,301760333749247
0,291998701761175
0,304645359127986
0,293108864523852
0,306184364793784
0,29127459257871
0,303039417784114
0,281942926005624
0,294953142663378
0,284603551855155
0,304489101325944
0,287480079327775
0,305043644855644
0,286835897232499
0,297332700064178
0,280141849813061
0,309272776282787
0,287580136503893
0,289950072388885
0,286459728389932
0,299483579088637
0,280817734845711
0,297454643218245
0,282335041873299
0,29547982681561
0,275135130153123
0,293357442721518
0,278646750607205
0,289736646745634
0,271912465474975
0,298193294825988
0,277132712883301
0,280907175507364
0,270901927297925
0,290245744012461
0,270318554034275
0,296828177601332
0,275215849125486
0,288974997285038
0,273869651511967
0,283359590611735
0,279800442863644
0,2834816723788
0,275977214908408
0,281398040721353
0,269370912180861
0,271763090463765
0,257520174943481
0,278834253483998
0,263987573286701
0,274037155954829
0,257027764063706
0,265891810175505
0,258667425573926
0,272861698999472
0,259652816452226
0,268397587520524
0,259431106614231
0,264678014954304
0,251239735548017
0,264812846046977
0,25911766032193
0,260251208413076
0,250008891148254
0,258762118309778
0,248834873335347
0,261019314352831
0,248319084080847
0,262150173988736
0,236070473953937
0,258145919492341
0,244403886177408
0,253961123603486
0,239661883636235
0,252988527423271
0,244398605985602
0,255353602847593
0,242517975296097
0,246415416687128
0,232164985322524
0,242241845000173
0,228709365831225
0,246173569418478
0,227457166272388
0,243584443227317
0,221541420623686
0,249867970687791
0,224848442326477
0,236176172272795
0,224347388227405
0,232679369110648
0,229607246190994
0,240434663296998
0,226926930657275
0,230151792458989
0,225069170939776
0,227562982703382
0,224293114211303
0,225896472178203
0,221019380626157
0,230385881852498
0,213196257624374
0,223119601566558
0,21545297869476
0,224921327843731
0,211850110686952
0,224582849082803
0,205757144800275
0,220353083309098
0,201737462889731
0,215622780068854
0,200674480752141
0,212276312038833
0,204186799653518
0,213174757824789
0,201634962579099
0,211981748298253
0,200768108997796
0,211376976299908
0,199411403248523
0,204388589551745
0,188874229329598
0,197891720534987
0,19788535429389
0,203100917618538
0,196041774123047
0,198277478252033
0,191025127279378
0,196585283683611
0,186974258458086
0,195237055972008
0,178151645500354
0,188259683049571
0,182569429755091
0,190667890556604
0,177468156483749
0,189450528481038
0,179180867040225
0,186077359586763
0,17447192224483
0,187422355568514
0,169974443300213
0,175561696377097
0,171428877611189
0,190777464256296
0,171110278458658
0,180960199979699
0,170050961259397
0,175012440902367
0,171522035472504
0,17652751305054
0,167964372628728
0,171161292853025
0,166283205861347
0,168514413860805
0,162159924527658
0,170077110691832
0,163237207811415
0,16256126836559
0,150095041338105
0,163745038326062
0,154316486957735
0,160611349193626
0,161460340630094
0,157395728835197
0,149805607896736
0,15928457106928
0,147113408938706
0,161291386134306
0,15038664986654
0,14978945800636
0,146053801658543
0,151348450715982
0,14645429462022
0,149603331410544
0,143704561451938
0,154697682425359
0,138103861745614
0,144340531588246
0,140333911412494
0,14674858181603
0,137671273948274
0,145456637698545
0,137729407216537
0,147737940452164
0,1287383499187
0,141200263006012
0,130755076208736
0,138714226969414
0,128708977924943
0,135828157244431
0,130642731194329
0,129607448556593
0,126241571649943
0,136497882689624
0,129328545203311
0,130198384174689
0,129603157449415
0,125816905670294
0,12121052696324
0,12676012439406
0,115952225367076
0,123934221397958
0,121746168729484
0,127364702219173
0,11788620534597
0,12390838366208
0,115756488523128
0,125495989411011
0,111966455280901
0,12694312620372
0,116045834667209
0,123608118010175
0,113868498237893
0,121024071991004
0,112290339622798
0,119602483629053
0,109556791876741
0,116355837989996
0,112703297104805
0,119980339377429
0,110183886453538
0,118333359954704
0,108086146587992
0,110620277934229
0,108149506639557
0,112386640177981
0,104878246222159
0,108775181609023
0,106579460548336
0,109366297966848
0,104927767937351
0,111526332141706
0,0978653478595486
0,10379601079534
0,100616440223275
0,103782656219511
0,0992404516376326
0,102391583066748
0,101345036035132
0,106918842798867
0,0936982380837019
0,101842071616415
0,0929578103959943
0,102867645418851
0,0967293837802931
0,0992698861430181
0,0912108108341746
0,0964831633287385
0,0953427759307781
0,0943985600455234
0,0943661754060229
0,0929772186323881
0,0870508867043902
0,0939752890927284
0,0864354087845717
0,0941604732112978
0,0887449198172481
0,0933649630727196
0,0850647933363741
0,091965278475988
0,0837625828879475
0,0949921005397576
0,0831215212166811
0,0901429225063907
0,085835441536109
0,0942352624462182
0,0834742722830794
0,0886433755921567
0,0785160650650074
0,0915499549115342
0,0811594133781443
0,0894988987116609
0,0773446268965555
0,0808233618505832
0,0779134517553345
0,0822979804918854
0,0801838393229276
0,0858199650389175
0,0759020004326461
0,0813712802633035
0,0749558433445735
0,0832825216364741
0,0777283928235169
0,0790394325099065
0,0753395615320737
0,0779980231483655
0,0712342039510722
0,0785467047527008
0,071148833693401
0,0789033455361715
0,0722236464072833
0,0748454158799205
0,0695615109367715
0,0760338649228872
0,0713477047367507
0,0763743937345788
0,0710456615352804
0,0737140584923214
0,0627890140995074
0,0692605690284977
0,0704109019697644
0,0736102243924678
0,0661733167059533
0,0733836548275164
0,0695616061728876
0,0721020122627493
0,0632008578153792
0,0640011684319949
0,0627357341718667
0,0699674998910953
0,0636222323710716
0,0633118151730748
0,0612180102828184
0,0682096700709336
0,0637352741528857
0,0694833570974421
0,0598823136149691
0,0648146919438684
0,0644608513610242
0,0693731327230107
0,0633917459031818
0,0660922780106126
0,0608591542708588
0,0679235429790191
0,064629351160194
0,0645164632453365
0,059927010136853
0,0669125600535217
0,0606845608872416
0,0636967156735558
0,0605690969736269
0,0661523173004405
0,0596727285616053
0,0648862805778771
0,059696021145973
0,0629726255269072
0,0610067451642488
0,067126774666315
0,0602788135993723
0,0669390261565207
0,061152326318106
0,0628974747148635
0,0621662272007056
0,0656789661245389
0,0617666617076618
0,0666429884229887
0,0613391758033449
0,0667536811078218
0,060662388940588
0,0665201268359569
0,0640058652418569
0,0708204663215848
0,0646062342759631
0,0716827788768387
0,0682950043739156
0,0710826054849138
0,0683418748743359
0,0710057990296787
0,0660640673761077
0,0724870608769287
0,0719842073087237
0,0690766121838129
0,0729628348733717
0,0800280680102238
0,071880059221928
0,0786622986188379
0,0727018274135374
0,0757724814043817
0,0754023781689431
0,0757977012430011
0,0763822968181889
0,0793379447668109
0,0746568420876071
0,0804819579797154
0,0738036682076496
0,0807185841367271
0,0793800478697482
0,0853800269140662
0,0759811869552554
0,0814532044781242
0,0744055706008262
0,0849693972091355
0,0770069448449775
0,0812819452449732
0,0817159740681763
0,0897113205126933
0,0844458572997007
0,086651803622208
0,0814643033159968
0,0915942841539203
0,0834236907866181
0,0900137922553054
0,0835933135494584
0,0920793083165556
0,0881705468360285
0,0926290442068588
0,0910996295631101
0,0916073131004067
0,088979344295344
0,0932217280788538
0,0884763389631822
0,0913431638122321
0,0881202272356209
0,0946715233521365
0,0893666238789238
0,0930903876434215
0,093072388554955
0,0962432886402264
0,0930582906960602
0,0982913782839292
0,0843343706915122
0,0882273538809034
0,0900331040245994
0,0964760077510473
0,087115927316811
0,0901849236029426
0,0918028550672765
0,0887888564964334
0,0822749043095723
0,088974807432546
0,0849515663775499
0,0879548449029176
0,0856471207436307
0,0952180446082063
0,0851762687848205
0,0904284905220002
0,0861812723737432
0,0906256944103742
0,088970278216731
0,089931204292461
0,0840337496325433
0,090979646177185
0,0790293060493313
0,0922191183337569
0,0884480221893279
0,0894649799634833
0,0899427985615641
0,0869110962643773
0,0813468379579097
0,0893877129684639
0,089312356161611
0,0970584152916405
0,0873885564104098
0,0917599173750022
0,0851487195385144
0,0910482892423286
0,0827871694224929
0,0885787663186928
0,0866784441564479
0,0882661290722706
0,0872455494518004
0,0920540106646797
0,0850637549023188
0,0871682751591395
0,0832065788914752
0,0910161025451602
0,087439221066881
0,0864863132991262
0,0819321498515288
0,0837452664309553
0,0846860589397214
0,0872780008808054
0,0777144375011272
0,0846116780447327
0,0787053369247732
0,0850319219862122
0,0856985691013568
0,0836358295895496
0,0761417967860245
0,0785370687031758
0,0782770263980769
0,07947275354064
0,076245187213054
0,0766110295150122
0,0742797339694468
0,0764120550193486
0,0729355266053213
0,0778450703089526
0,0699248118692265
0,0762777042842085
0,0653328724456477
0,0710660852529512
0,0612040773705278
0,0687609263217562
0,0684940947931512
0,0690076908948537
0,0646045625374923
0,0651138327340542
0,0601039980594294
0,0702941980193491
0,0658000230920173
0,0644529274685173
0,0612401049304914
0,0631853584913712
0,0592451315952938
0,0637889551773964
0,0599350033780651
0,0628297865029077
0,0578302015081339
0,0591398491035816
0,0557919150236892
0,0636228878327619
0,0559278134414785
0,0585202524237448
0,053546732824011
0,0556474974038665
0,0538122481620767
0,0553133478803706
0,0548883797903611
0,0564079170322425
0,052062848865071
0,0576622812292885
0,0549711394457649
0,0602011162374732
0,0523202283471719
0,0584115281883918
0,0543514027221675
0,0563273253521767
0,0512549081737931
0,0526867530422177
0,0530640155008499
0,0559211055757902
0,0518939557886882
0,0548894818652596
0,0463763030674295
0,0510806390491928
0,0477284508611401
0,0529284470306248
0,0496717665433181
0,0537868369078693
0,0482146392999316
0,0508490584458412
0,0457965545183509
0,0481889960140998
0,0432311180989329
0,0514100654551971
0,0447836008495376
0,0505313930708976
0,0455251435766896
0,0487479472308965
0,0430336998006421
0,0480648355855284
0,046118717672898
0,047364723477974
0,0417292922573112
0,0478969683718469
0,0476415580474452
0,0453440394796976
0,0441968497512017
0,0466122575200536
0,0408697910818956
0,0459736893552168
0,0431685240868002
0,0458795571622136
0,0425402256771329
0,0461937351571817
0,0409676312591742
0,0435236175870871
0,0394238619199787
0,0449716867793592
0,0394698689644334
0,0449193834341133
0,0399309998249074
0,0449777121806924
0,0382873355834721
0,046650316712536
0,0395329749438209
0,0415623171409019
0,0415644373951692
0,0447511188864579
0,0419842225236913
0,0431010871369977
0,0396345760461304
0,0466998708491587
0,0394751890778362
0,0447665263710355
0,0358006079697493
0,0449842483622854
0,040736161027056
0,0416183510160941
0,0376986764381709
0,042479947020314
0,041082044840669
0,0433855810869848
0,0355629190389698
0,0394103500177433
0,0406950277603465
0,0451171911261902
0,0388511200079829
0,039983249705802
0,0354723025523973
0,0351362229047121
0,0370462953919007
0,0406552041887484
0,0337409502991826
0,0387612963405856
0,0376926542135861
0,039761561038966
0,0355885921156528
0,0351818336146733
0,0400213082842634
0,0391496670471767
0,0331751848580218
0,0378336152942673
0,0336928293328395
0,0401992092460468
0,0359976910961456
0,0372182073474938
0,0372999313548672
0,0398774234005965
0,0345795156851546
0,0389677791656065
0,0377604537941777
0,0397330805699582
0,0357216017359442
0,0377402699358899
0,0298066164830311
0,0384137589696735
0,0377924986083285
0,038846380215453
0,0360945459076167
0,0368711195181398
0,0321432743452087
0,037590547668187
0,034079688767637
0,0357011319225567
0,0334160696835597
0,0395313391405746
0,0336595299002464
0,0392653011290422
0,0343177191809764
0,033202656827572
0,0345919518179806
0,0397347757171478
0,0365788653329217
0,0401041891495747
0,0364640754447836
0,0357015808712397
0,0310359603605327
0,0362389282256382
0,0362808065131001
0,0396348015170152
0,0302873613441494
0,0342984874575584
0,0330145490540887
0,0344007938429309
0,033545408391303
0,033149382142695
0,0340901247711038
0,035649204355596
0,0337719646770412
0,0339622611989227
0,0330872686525289
0,034134749193507
0,0274282622026626
0,0331551077505462
0,0304149863271438
0,033901762919177
0,0307641664125783
0,0341084050792997
0,0328080325340247
0,0336391446973082
0,0316431907805843
0,0349174289825902
0,0287924278576237
0,0327113329727006
0,031149533845992
0,0358698379966261
0,0285975443715965
0,0324367297570593
0,0308276918377034
0,0321937086887835
0,0257123729929601
0,0327650457262505
0,0312010148720965
0,031404131950665
0,028245077593947
0,0275281566262359
0,0288047683340047
0,0303798276344474
0,0309915667636507
0,0339765956575296
0,0284456929669755
0,0310161632807442
0,0269384192905637
0,0322592899398346
0,0256885912591776
0,029990274173188
0,0285573750081439
0,0317887691602856
0,0295069588985359
0,0288790004300833
0,0276134340385566
0,0326388976899682
0,0255262757992212
0,0289420584108371
0,0263856914885894
0,0310351227890678
0,0251251827354374
0,0278766341577758
0,0221964302805296
0,0244165360983729
0,0260638580967929
0,0307105241199428
0,0236747455952293
0,0233776033862542
0,0263803746492997
0,0313345501242196
0,0272027390303889
0,0263296962548422
0,0245140140950998
0,0283490074408796
0,0251113884540634
0,0263625893585415
0,0246545515979287
0,0264905540917421
0,0219974898356117
0,0275007846417937
0,0223372365311665
0,0257412109631093
0,0245641093802695
0,0230902887924631
0,0220880774281047
0,023864487987639
0,0235680603665011
0,0243735339039912
0,0195477781708154
0,0256297571180265
0,0224621944340726
0,0241858127489857
0,0229279777530703
0,0238941562885521
0,0222622391647227
0,0263444409145731
0,020088103398446
0,021674978293891
0,0175129458405748
0,0208122962054576
0,0195305544214886
0,0202904469857628
0,0198425471008482
0,0239580646975086
0,0191104007887805
0,0225999666526729
0,0183762502867324
0,0225817649696938
0,0176828139445872
0,0214412327541342
0,0196516772062029
0,0222114059904004
0,0184130962999456
0,0229806787606888
0,0203227828636596
0,0212916987683184
0,0230425086670208
0,0223527781317988
0,017968217009656
0,0202563444371317
0,0201627264813753
0,0197960490700828
0,0225173900369021
0,0200127928630493
0,0170348422942924
0,0229338440842371
0,0191943187413889
0,0217816833334368
0,0187309913656834
0,0213511472745338
0,0173424982867487
0,0217682894592638
0,019933284936663
0,0214881855969223
0,0186407413700508
0,0197988543687234
0,0180231932434839
0,0206339439487532
0,0182848560652614
0,0205570836912504
0,0206945832831475
0,019981288353176
0,0172183406611351
0,0181342934574339
0,0130535383985295
0,0197152047809756
0,016111297687211
0,017438671382452
0,0179221618630304
0,020195178606838
0,0186029371390425
0,0201867275669124
0,016359635025896
0,0169766448367168
0,0139953677046928
0,0164300524531854
0,015834724276538
0,0192184778578314
0,0150357941834026
0,017077160308769
0,0163162414994812
0,0187864305021925
0,017133445515451
0,0174494981027624
0,0154372721875118
0,019693136845434
0,0149265773210159
0,0205421481532086
0,0197472079885614
0,0158341621953063
0,0152450926315146
0,0175816448835607
0,0176001536095558
0,020039646883959
0,0144028267906299
0,0212981246385201
0,0165254555246886
0,0168234005739574
0,0175091170562534
0,0184926919986038
0,0165804006569614
0,0201931101193332
0,0149283856515387
0,0165524587539385
0,0160777248618046
0,0175661921132179
0,0161735234757029
0,017247721255275
0,015422322722729
0,0180131860010943
0,0161512371464228
0,0163534774472396
0,0140530890134908
0,0148179142069896
0,0159740277163599
0,0175315916128244
0,0135067601438035
0,0173719294558061
0,0160809240875568
0,0173795195053213
0,0148137015985765
0,0171221634283685
0,0164846665848521
0,0189393647531646
0,0173998420009331
0,0173301925273377
0,0136804713251659
0,0161107959364682
0,0143117669731479
0,014286123781915
0,0128398951692327
0,0131949471649765
0,0132010998095211
0,0150483718203677
0,0139642812732809
0,0145272551736215
0,0164792070681642
0,0141584083510143
0,0145990782747366
0,0146501038226752
0,0149202029978052
0,0170800973128462
0,0140975211446552
0,0127827584444692
0,0121273954547492
0,0152479126902331
0,0124425281097343
0,0166159382454499
0,0149476161081379
0,0152584141789592
0,0135880703364765
0,0165505129173643
0,012678151035665
0,0141757292750996
0,0127029258337135
0,0168502606212259
0,0147724469621982
0,0161816454453702
0,0136661644872659
0,0160175423685304
0,0151893299697203
0,0142516355481062
0,0136045147872979
0,0158401416815793
0,0138909375770815
0,0152265691642956
0,0141177932319102
0,0152586638496286
0,011400931648
0,0131280132491992
0,0109872143257293
0,0149851620097977
0,0157108921241929
0,0136599431249104
0,0120468000248845
0,012474661604484
0,013387751078035
0,0145043449845755
0,0119454223108278
0,0135933856379335
0,0140849568928011
0,0138003624318732
0,0131258224507122
0,0100622583602732
0,0105216925069496
0,014716322907848
0,0125851609608865
0,012471183632214
0,0115734427727746
0,0136883571433166
0,0116736620781199
0,00997480836310154
0,0112511678474131
0,0119962518149557
0,0129204899492673
0,0088985209312534
0,012605573771769
0,0130012527111971
0,010972429078062
0,0144479536327651
0,0120842467410974
0,0112792285222674
0,0118048737942383
0,012199993425028
0,0125140680017285
0,0137774484107658
0,0107557189416706
0,00945031945915489
0,0099945049225407
0,0132975449480306
0,00880054033345652
0,0115354014671085
0,0129303550303955
0,0122267546837505
0,0129680976913923
0,0112568682557998
0,0110340636224107
0,0103341007258922
0,00908835949526587
0,0100139732150298
0,00840912296309186
0,0112284671937093
0,0110710090079743
0,00898308200745793
0,0105007068653145
0,0117980832522606
0,010598162009116
0,0104726336850033
0,0118153519711812
0,010660329781568
0,011235073784374
0,0117223908664112
0,00978278011544598
0,00997634859329042
0,0109065126987659
0,0103780444685002
0,00883868762193288
0,00819311410203278
0,008997105329561
0,00931611873540539
0,00997683305694611
0,0100648531422219
0,00726090179765725
0,0132473339681801
0,0112975212735464
0,0112956013980799
0,0075431090342187
0,00933095962972912
0,00935103016618351
0,00873140738691318
0,00814408856732524
0,00912378290223521
0,0108749845714501
0,00923663365357766
0,00846601742824282
0,00887851713966544
0,0070455865344608
0,00881061629743971
0,00881357188838708
0,00871225734100921
0,00974890450948685
0,0075421677252531
0,00919610246705113
0,00729366681688792
0,00899089398267756
0,0104715274303148
0,0111101471843073
0,00385549477109736
0,0094464722051367
0,00921789887287803
0,00863315300152451
0,00778277931015451
0,00879593748557903
0,00748398381421915
0,0078568188625289
0,00746177468615191
0,00959347896812215
0,0058507848186408
0,00751531458569125
0,00380468881885535
0,0110267096137706
0,00518016851059304
0,00914119909585606
0,00512978029570932
0,0116768083637634
0,00859908233254408
0,0124366173582694
0,0100697520437341
0,0105226070637018
-0,00104203864905787
0,00373221150481494
0,00859531495019049
0,0147184024638587
0,00398514413770344
0,0108587448134892
0,00668310546077769
0,00797281569591036
0,00703795993228159
0,00987606602315064
0,00519174740869678
0,00916930474958476
0,00498541040777794
0,00890669061135001
0,00570940107042968
0,0136643952592004
0,00622096348184435
0,0122665056320141
0,00193891752717174
0,0102736338371021
-0,000726463061770226
0,0156659372789474
-0,00329838608408514
0,0161097416181919
-0,000772292748165786
0,0166437390051837
-0,00214174324618474
0,0186476913679454
-0,00345686222447537
0,021699310334882
-0,00803946828389453
0,0207241634806051
-0,00920175436559183
0,0195297604365275
-0,00866872036757175
0,0294544780054597
-0,012946573668159
0,028109646649035
-0,0171497103440748
0,0277634491873639
-0,00965715555174032
0,0319221190195533
-0,0145740459613282
0,0245050026334226
-0,00956219650837862
0,0323814104681903
-0,00666454657773107
0,0194237736362032
0,0013624431455676
0,0120526491150982
0,0119836629341761
-0,000909992246189314
0,0200553906119956
-0,0067423881774427
0,0237371493251891
-0,00962937994304042
0,0316335069593657
-0,0120661997993654
0,0287478088042218
-0,00799930389316021
0,0189081051783721
-0,000653804795192221
0,0139005134313833
0,00457983846561487
0,00974918272793427
0,00390622578710248
0,0120392527729529
0,00609426404758977
0,0084489795108015
0,00525369837085153
0,0107856519152099
0,0014830399528126
0,0120701793175208
-0,0011312045450777
0,0102431149526013
0,00322841210595082
0,00946233604968962
0,00271620820963715
0,00823392386127499
0,00356209016078307
0,0105007795225353
0,0047034891893576
0,0104663920590523
0,00409406518820054
0,0102256232245793
0,00341047158273966
0,00766110977271777
0,00311055781463354
0,00833562456981709
0,00259567068174087
0,0101504400908223
0,00695469143686189
0,0103626072456848
0,00514321420797165
0,00951047212039981
0,00319118019202245
0,00788363271726451
0,00549448437870342
0,00981822364075617
0,00386079026700095
0,00933569842850195
0,00451912033527806
0,00907180443361618
0,00430921774825175
0,00716541687403106
0,00428443887855327
0,0118721750795503
0,00439033196843122
0,0078238566264987
0,00343568980722493
0,00960954482216954
0,00557036972530887
0,00997902310490126
0,0016793886260127
0,00924668280431253
0,00538409891153111
0,00805162424012625
0,00531800131785351
0,00878259274984509
0,00565897383626866
0,00988754902154601
0,00298568584334131
0,00821355682303047
0,00560234645240633
0,00913180073372787
0,00666656882551816
0,0103135497112002
0,0030683553415288
0,00831302657866754
0,00654893774545221
0,00814003373070199
0,0030407154817506
0,010828307659831
0,0042631806475752
0,00804095169839559
0,00211591255970872
0,00646573246088274
0,00596449790078278
0,00749646005591336
0,00476267264860676
0,00930779517626067
0,00564969331993866
0,0105910411240198
0,00404476542192332
0,00621257072485469
0,00413815694882531
0,00917190446821894
0,00553236058377585
0,00558095517478881
0,00172731215943463
0,00920738414876464
0,0069745064476882
0,00715969814439159
0,00511830445743532
0,00749096793134595
0,00584410020568303
0,010278096455422
0,00620852849618726
0,00838527544184613
0,00465980794360395
0,00872718531279763
0,00626036260277679
0,00744695786098539
0,00328375387193881
0,00979002492152914
0,00321142201036737
0,00953746486773513
0,00481299379953128
0,00701452650100323
0,00736170169913144
0,00899343278841886
0,00712044000990881
0,0111672491758466
0,00506396937119652
0,00826856667209951
0,00718193939748899
0,00833640381664322
0,00472333489596554
0,00954553273828933
0,00594404369289486
0,00959714032182547
0,00618099075309244
0,00834939848376959
0,00618412226489245
0,00622999135482155
0,00702711659797686
0,00912027109439946
0,00635433807673489
0,0086194126763252
0,00444544368357376
0,00808307416665237
0,00628654635811555
0,00987973819680816
0,00532176703696667
0,00943511157760102
0,0049331855427916
0,006037947910886
0,00397238000626738
0,00991234931476717
0,00586824954590203
0,00844009286968463
0,00590153595987583
0,00622237552762551
0,00604961643471381
0,0094066263297937
0,00530252351324267
0,0082200586377448
0,00708336766852638
0,00738064554754307
0,00687449868889272
0,0083397050928795
0,00543525444365157
0,00909790130994437
0,0066485165497113
0,00707292954838254
0,00597042754983418
0,00737535209581547
0,00394526866129081
0,00688529293180133
0,00367308405731203
0,00818125035533563
0,00619377612528672
0,00841588288573434
0,006295413378797
0,00914408370960638
0,00507980549448724
0,00817953678198277
0,00896990154566888
0,00965809599342889
0,00694446640820986
0,00973574224989693
0,00877132612428486
0,00793624565361478
0,00437824349548891
0,00942341192638257
0,00520442950636353
0,00648181702767265
0,00640496090925629
0,00638298607574605
0,00594073934082113
0,00972027385266608
0,00484949641241072
0,00849402098183288
0,00602811114638573
0,00894211513055573
0,00825098128758757
0,00846531647947591
0,00459471043170203
0,00892366007381035
0,00585197376331152
0,00906886171828733
0,00612340900401556
0,00828137949383334
0,00560016631168238
0,0089878985021661
0,00386240464035055
0,00775998227570696
0,0065030697798078
0,00948391948527174
0,00475835477237354
0,00629344806714401
0,00653747979387463
0,00719475138550473
0,00510690126607535
0,00647573770667928
0,00604280201113268
0,00537887895663462
0,00432970728882309
0,00925382809743656
0,00600422655633498
0,00904867889315446
0,00578285702610039
0,00795193669788662
0,00476954659145683
0,00873074807351289
0,00595718240689609
0,00863933068269197
0,00493344402073101
0,00970366074704215
0,00683473196472325
0,00629123739275503
0,00904851131241948
0,00749670606574713
0,00549621731721966
0,00850820558840326
0,00476185382312884
0,00689096249257418
0,00423559892796189
0,00711422697616579
0,00700410460705461
0,0102151923874712
0,00549680748992382
0,0061098767206439
0,0058855756533792
0,00727983137529984
0,00550707781196681
0,00784800123893246
0,00540022776387496
0,00891755796106438
0,00701996425552923
0,00748082064634907
0,00593917182419733
0,0060168702221621
0,00423134248272214
0,00686007592350265
0,00480463884798063
0,00931126399769594
0,00549175444209981
0,00816980441033999
0,00569523393471618
0,00746613485888247
0,00590806786079684
0,0060895895176328
0,00323568887389308
0,00674319695626204
0,00625448368427899
0,00582364153277111
0,004073279156114
0,00585724225378483
0,00436417679903966
0,0082178370115525
0,00420145678098071
0,00849645584510387
0,00739004868056513
0,00863567807932868
0,00374783815760403
0,00642097034056924
0,00553210719546485
0,00794853535609137
0,00610237408892621
0,00601867719182256
0,00687520152553754
0,00692570156039339
0,0042945505446618
0,00684908617776065
0,00388440698733943
0,006300044661145
0,00542302319894647
0,00798236763475757
0,00579289982287805
0,00780098492642853
0,00404757024707461
0,00606952078072326
0,00423487598263083
0,00464310729360899
0,00565114602484963
0,00848585520920217
0,00548074246224281
0,00941458428329907
0,00645887470451796
0,0057979739979474
0,00545203349648436
0,00794799347790484
0,00472997460928669
0,0073597149285822
0,0068899057550767
0,00846660933426965
0,00430731488661707
0,0067319601009383
0,00547620429005374
0,007555965546062
0,00452726086360069
0,00570084439063547
0,00619823750613015
0,0079457239574002
0,00524385868895251
0,00745306173483145
0,00324945530402597
0,00589367344999233
0,00410768472073356
0,00747048293694843
0,00399527005399893
0,00787090567154779
0,00560021626282101
0,00960749139160198
0,00306817429874434
0,00785256246455037
0,00281438186637744
0,00783308124590213
0,0042401621893368
0,00524847438025742
0,00464108342178022
0,00769748262548487
0,00370574718521352
0,00794935790408296
0,00329559812317535
0,00453489604101623
0,00306109846731535
0,00730546218720873
0,00405890164494738
0,00466301597815437
0,00314262788263404
0,00688329068444802
0,00348335776935429
0,00683159455982605
0,00347015756838546
0,010047330951882
0,00343607657773277
0,00405076973584879
0,00244579052936006
0,00864707470442951
0,00615256611982462
0,00398432329622505
0,00418720489136197
0,0054231541335561
0,00714374498823691
0,00479730151130476
0,00310453168610612
0,00462345077046829
0,00412131440096661
0,00369263781606957
0,00464409123102456
0,00417005691059308
0,00542200381904184
0,008719887984661
0,00546040255089637
0,00440405640876255
0,0032720058054187
0,00775643729224416
0,00472825637443265
0,00536719249034111
0,00366745680968816
0,00578454848974644
0,00291873159828047
0,00550079668799553
0,00368558709116261
0,00243776581696831
0,00816366866774607
0,00804187867241053
0,00558655522001808
0,00909316176564489
0,00494172187332691
0,00421876305842241
0,00557134596769552
0,00459620487471511
0,00364290921207299
0,00398710105693255
0,00495646771013703
0,0056857163400089
0,00165441688245585
0,0056231466708121
0,00404498877382495
0,0036026137598446
0,00379349478006373
0,00591063518067391
0,00373838925390898
0,00318802415292751
0,00334473517605611
0,00223933424396822
0,00467235297007493
0,00222045605527943
0,00550493708312205
0,00439580001329421
0,000457507814329173
0,00883787223245245
0,0015372603790672
0,00664936251544995
0,000886707466417852
0,00733587297345454
0,00440371203731838
0,00467326722039842
0,00237525503640565
0,00867698635536972
0,0029709975200732
0,00781645649290101
0,00242448128313797
0,0053155772686323
0,00346505761816109
0,0079451591664145
0,00121715010477048
0,00747333684116138
0,00377954799973473
0,0062087387309929
0,00293342656553394
0,00333439016067291
0,00579898807269092
0,00737538150678381
0,00323207679919437
0,00841473226817387
-0,00486409916758401
0,0176352382282364
0,00074543013870099
0,0105601088446179
0,000976899268516835
0,00748039468551704
0,00391416803829616
0,00712593098121605
0,00140803933756907
0,00432851184436716
0,00955995835830037
0,00439891930396754
0,00516253351022451
0,00120135333090646
0,00239444239226451
0,00598340067842002
0,00329305334132303
0,00487749430001513
0,0046829439455813
0,00689003927105135
0,00551128474968348
0,00864305523887969
0,00246424317624023
0,00519249556812124
0,00109686620204066
0,00682402786068442
0,00362713970455845
0,00419715812894111
0,00319983190653864
0,00679677308775722
0,00180951013173531
0,00212385478188399
0,00816636981203534
0,000938328313086138
0,00586274557729936
-2,12674279809968E-05
0,00768590531744143
0,0062475527495281
0,00362338108155341
0,00165994384558945
0,00542693956676759
0,00319757158461993
0,00371658734320326
0,00598291059740796
0,00404401550627011
0,00349777748788752
0,00421082063263116
0,00576362209800898
0,00426352737429232
0,00585997328452071
0,00365671879184635
0,0100347102354898
-0,00161534437464854
0,0128748062558527
0,0045021193486914
0,0120971047149086
0,00596520266447046
0,00639640818214257
0,00355179638112118
0,00494467615647823
0,00395176539245629
0,00383325760430171
0,00633278995921696
0,00338957417302884
0,00394729710942727
0,00566928247312031
0,00422653079394734
0,00205728748986881
0,00621863132877471
0,00516546683982315
0,00253062467362207
0,00152595282356319
0,0065629926092838
0,00097404009074411
0,00860127697903308
-0,00453022910663216
0,0100274813793251
0,00182787294493851
0,0106997276168566
-0,00931788447813536
0,0166584317791932
0,00665937113273989
0,00599424945845226
0,00742422061537735
0,0034299374779067
0,00761729348360505
0,00398016048009919
0,00317362477454471
0,00507648324049632
0,00536483649556453
0,00280218640748936
0,00594578456887793
0,00395052370824188
0,00649867877666597
0,00115205876516809
0,0024299020980518
0,0115290711916285
0,00613260077346003
0,00914640892952074
-0,000651398213993025
0,00405648469813367
0,0155887171185876
0,0004219214339981
0,00987000922435221
0,0015130428199196
0,00975091135162673
0,0037292581214978
0,0077409671933796
0,00320133331493953
0,00836937306472418
0,00291922584939088
0,00660809770599428
0,00460183909517624
0,00708149909497502
0,00948817211744081
0,00178421813752302
0,00496241646032496
0,0122935428902486
0,00330163359602271
0,00929740659528243
0,00245562155925584
0,00541349404474739
0,00371991318267164
0,00755619815059717
-0,000103787050058955
0,00492002761319774
0,00932401104839236
0,00545159883143846
0,00869677563772027
0,010957274291176
0,00180778348328738
0,0121508791746716
0,00180080958881105
0,0152417282630179
-0,00494788061294533
0,0101418255695387
0,00992574397998387
0,00383504498140634
0,0151964522985825
0,000493829381994206
0,0124946165722411
0,000782754586565371
0,0128824316575388
-0,00372556506264163
0,0193662164806923
-0,00320279924573168
0,0152844723647865
-0,00364798310541227
0,0130859219228163
0,00541237543963413
0,0111236610434178
0,00455395035418016
0,00630791355608289
9,25620297035938E-05
0,0166851716830944
0,00409262192632487
-0,000632629173122609
0,0209091974409204
0,00293019668492564
0,0206311679181283
0,00747601986287421
0,000811258575358139
0,0174099656584284
0,00233461685270126
0,0156657179089478
0,00223605318138619
0,0163456963961579
0,00162226624505694
0,00490415409643804
0,0220529604080998
0,00701193284649403
0,0108307645954064
0,00848874700912599
0,00235939217253725
0,0174454988948277
0,00498798334770795
0,0126263513828228
0,00552950217523263
0,0149738775729075
-0,0110685505590662
0,0351903870800709
0,00039161754437426
0,016007576688208
0,00912913685812527
0,0125707761559931
0,0093393041270371
0,0112762766765418
0,0058730979614036
0,0115710912657655
0,0168352231804921
0,0145752991187632
-0,00108327427344037
0,00897031473658873
0,0205661169150357
0,00634724755230455
0,0193956259957971
0,00509043128152572
0,00415129268496892
0,00731840328708926
0,0236060955086556
0,0170198152488236
0,0133853022441356
0,00815295477403279
0,0211090396106273
0,00961950951090981
0,0166188061955983
0,00857004326545676
0,0112360093674559
0,0100758521589023
0,00658767864811119
0,0159926940037317
0,0109487653928401
0,017350247215246
0,00984628442444506
0,0116750393971688
0,0108572136398837
0,0171463750664677
0,0287395070277254
0,0040041469191526
0,0325361094862443
0,0145985739864697
0,0244944852837892
0,0125184393784286
0,0161967907294641
0,0174304900342491
0,018576403786342
0,0189956387195869
0,00892209817150195
0,0257573881780088
0,0126272181110994
0,022938929761044
0,0277556093905844
0,0188463923855233
0,0237889015056683
-0,0125464664427829
0,115625800757842
0,00596456699409278
0,0518745332053509
0,00970295656412602
0,0368023121475247
0,0354459135363306
0,0331254630985958
0,0277479592086442
0,0339703770126929
0,0273196194830992
0,0379897980589896
0,0324177698431177
0,0406026076158513
0,0362186435864631
0,0456538934112416
0,0241711176763216
0,0528158553845492
0,0415267832091136
0,0688654009916934
0,0485895873043875
0,0474200483981235
0,0462737345375541
0,0552330531146515
0,0444109866498768
0,0654040022871701
0,0399700076891924
0,0693993772383544
0,069957806050429
0,0576305680973097
0,0628398819885833
0,0551087430402212
0,0762729849024357
0,0432734390851576
0,0962500311281895
0,0608536799962097
0,0867193703851044
0,0617525352061826
0,0719698106193891
0,0700536404879989
0,0664564854683763
0,082825806183722
0,0785320185365068
0,0805555634902203
0,075286721619223
0,0833647480694074
0,0778149411827774
0,0847809931745727
0,0831504720496962
0,0767659697520737
0,0884673711443122
0,0489024354765764
0,167510045032788
0,0822178384538281
0,0933790547037747
0,0805464187099861
0,0827962853083596
0,100379710997599
0,0758575438335281
0,121719068271149
0,0858819349987684
0,0933986983358544
0,0836258164203263
0,0818512614977344
0,0870903790562294
0,0782565898650112
0,0899079140590515
0,0717504608780468
0,105500397197641
0,0600139175381369
0,114763318935567
0,0926728180065194
0,0828929696083649
0,0809163868913007
0,0828988852300687
0,0783516268160981
0,0871945209431098
0,0713003051661468
0,0791184770460251
0,0832804992563545
0,075892531497712
0,0876980315047614
0,0602986562648669
0,0839665294621828
0,0773057434405297
0,0756520752971426
0,0765736148699675
0,0682962575968801
0,079860163286858
0,059071227498488
0,0716703261518837
0,0821092539685302
0,0676474746039383
0,0746142469805913
0,0622506891739628
0,0678009070974078
0,0611054758148734
0,0690786596715707
0,0709885800670693
0,0686121650126186
0,0615727305630026
0,0684272133993844
0,0624338271959683
0,0672653558288676
0,0586397348356773
0,0661516168448936
0,0583882885604653
0,0659838915949552
0,0590433515631589
0,0662198898577045
0,0563002626880548
0,0630245949886146
0,0619232318338655
0,0668748698142717
0,0598101638431863
0,0647184105022895
0,0589441929929244
0,0638670417413577
0,0571602106411529
0,0679905640809384
0,0621185454592421
0,0638911277219709
0,0579676257509942
0,0646134761197042
0,0577517150592882
0,0689015275954621
0,0598011352995337
0,0646684592382282
0,0582098299878515
0,0651783234980997
0,0595350653350552
0,064555255483104
0,0681173270118716
0,043282670961235
0,0892016984083352
0,0549806295299655
0,0643473272890823
0,0587433991415072
0,0632285056892681
0,0601261118681325
0,0482753124749061
0,0810255449435529
0,0574260028058993
0,0647162398233111
0,0587292480743265
0,0561679082796479
0,062883427962179
0,0626526274338136
0,0537998528620173
0,0645464217366397
0,0358008629464838
0,0946523153920496
0,0313472724311356
0,10450406035511
0,0640000405043303
0,0735422484613622
0,0460686271664515
0,0664287770873318
0,0593130009993986
0,0553438052138694
0,0638102354630593
0,0470956937336788
0,0686824849043857
0,04980318214359
0,0568940853202135
0,0580442739771666
0,0482015395970413
0,0605068760761407
0,0628913937401753
0,0494928587958573
0,0648373102019446
0,0557812221102787
0,0428980548863431
0,0655294569654407
0,0629913238455645
0,0641753106159165
0,0488462747682651
0,0589577377720001
0,043273765715921
0,0521109614492752
0,0613879027080244
0,0470210694502445
0,0594587683891276
0,0441798530371886
0,0486947568597364
0,0404814697082227
0,0560625188346548
0,0434314038095263
0,0422895132843843
0,0645015745865504
0,0333706890241608
0,0584116755013707
0,0296800044724632
0,0639701222896535
0,0384437832996218
0,0536908200000513
0,031878957130072
0,05524184648014
0,0428209969305328
0,0431098972625446
0,0481361922417009
0,0343010303125932
0,0359424074373536
0,0506346621891731
0,0324318358514692
0,0495392385422722
0,0324824799422327
0,0463250729114594
0,0380046040937262
0,0434411751393009
0,053097177775186
0,0409012272634986
0,0374434067487184
0,0368219428667432
0,0323604204225968
0,0432671831240936
0,0185879989056344
0,0605527870366233
0,0247963992332967
0,0401613404127166
0,0436794691265271
0,0352383584575477
0,0369071000501321
0,0390457527787352
0,0345339415160975
0,037864231848786
0,0307283011237807
0,0565642609307906
0,0314368555084788
0,0480185976913686
0,0368963985272669
0,0412859319047185
0,0392358787696752
0,0428705575439837
0,0388081570609213
0,0422177792892335
0,0465671856142965
0,0439277944788436
0,0434175975261208
0,0501760791013031
0,03770101422691
0,0609513456529148
0,053251744196003
0,0443594721624728
0,0664244609863936
0,0427185887942369
0,0773061334348144
0,051279202990126
0,0604284212542105
0,0560936569749844
0,0569502404377921
0,0648768075665641
0,0533116021389307
0,0656416456001633
0,0668078989528113
0,0618779155261631
0,0663353807691741
0,0587885022480361
0,0671539411583759
0,0572251456621472
0,0800706248726886
0,0470125673051448
0,107658951684834
0,0634685281911949
0,0825703617860119
0,0673421268551216
0,0668843781465104
0,0760580157606667
0,0687441028804508
0,0764668046717653
0,0661786258726967
0,0698275803400378
0,0817631555010206
0,0683996485941464
0,0761446899003625
0,0688264515717709
0,0751443629528949
0,0762654601231619
0,0729228097836111
0,0798071301169021
0,0758219189615052
0,0821534643080216
0,0713562641189412
0,0735312318355727
0,105392226776181
0,0762402060228018
0,0906558226552745
0,0749143477705497
0,0841038726019903
0,0781722713684214
0,0803346066926926
0,0858719888933488
0,082835751946636
0,0867598950702512
0,0826710878203727
0,0852903563908299
0,0834280324442157
0,0852774941613725
0,0959043024036692
0,0802143481819069
0,100546901235881
0,0672164505804302
0,115552058183394
0,0838221606938762
0,0967549360675195
0,0888694148570952
0,0924755910095629
0,0956760437785006
0,0906530217113676
0,0904670590026844
0,0867078809344619
0,0947233062591408
0,0932696116746523
0,0926766061777373
0,0848673557600218
0,0930320855796563
0,0886981390021119
0,0930883305966702
0,0990528025287002
0,0895626104916022
0,0883399421425584
0,0883325280234837
0,0948901331424051
0,0819430896239348
0,0980199968219803
0,0853602540241611
0,09159449067982
0,0864881127677238
0,0898334688811797
0,0960379290064215
0,0929848044594656
0,0885502392187651
0,0907645829748509
0,0815845037109592
0,0971063353008663
0,0828003910009309
0,0986806870672629
0,0902574200945882
0,0928980133116507
0,0930792616717147
0,0915371620020286
0,0920103300041979
0,0894504118788922
0,0901346669428854
0,0897387562094849
0,0904501845349365
0,0899589132277529
0,0974206838285358
0,0890066749682227
0,0928257132066849
0,0897307904199593
0,0969254976443598
0,0969638693752875
0,0879862216093481
0,0938116471079469
0,0846088583367635
0,0903685208587491
0,0904036303988748
0,0895018436973865
0,083613766656203
0,0905322977608993
0,0812545383181591
0,0855078405604176
0,0908305233847164
0,0776470771079972
0,0916519382506179
0,0759809081237238
0,0828189496818572
0,0746528167305076
0,0824564957175448
0,0766862269894874
0,0782292237580769
0,0774756749152179
0,0767606482975467
0,0738065235067094
0,0769647085628244
0,0717257636273797
0,0732143607070112
0,0752468727848658
0,0762680168077782
0,0767394181407077
0,0738075712896697
0,0746600228308952
0,0745841146528839
0,0724549736111232
0,0765776732140766
0,070061840281317
0,0767861744374284
0,073917653171316
0,0818261752403363
0,0709262050698128
0,0776195640958258
0,0726905040156184
0,0757010079512608
0,0712698389322722
0,0713024020155091
0,0718951281583615
0,0775069062688876
0,0699478880246022
0,0726206803055256
0,0719373383810323
0,072888680475467
0,0734364752006073
0,0733350826246372
0,0725017736508075
0,0698534664933572
0,0696429097415017
0,0703307949506616
0,0705388649521813
0,0699300795834847
0,0766264995765029
0,0714197050736543
0,0743973185656081
0,0711701844801327
0,0718265587405149
0,0712741634221065
0,0715533775696573
0,0724951178963095
0,0709912166893267
0,0713961505719704
0,073536916619171
0,0705941751445112
0,0715674099057614
0,072297403168783
0,0696536712906917
0,070457872150609
0,068550583956557
0,0714441019066415
0,0712054031106995
0,0677024538570694
0,0670478561260422
0,0669486180946089
0,069912593578697
0,0635678010577117
0,0646957840625242
0,0633370182703476
0,0656342967167072
0,062852032958435
0,0640929171147125
0,0629453082666957
0,0604885600536291
0,0616132000530055
0,0616284781025884
0,0633281768229109
0,0606911554546605
0,0597916790194282
0,0600863594808558
0,0613720304678633
0,0604558673067111
0,0599552047834769
0,0618793813144778
0,0626612449302431
0,0605463623822831
0,0605433988980154
0,0625464326795999
0,0615601556283332
0,0642608081500986
0,0613313534584129
0,0622063160945128
0,0632207511524485
0,0627668368987667
0,0623469021203651
0,0628427107336381
0,0639340210383252
0,0622932971420629
0,064401838684261
0,0636492638051595
0,0642445539874584
0,0660744487484847
0,0636976933194856
0,0626676365247841
0,0640548667806763
0,065096552163532
0,0647227601820867
0,0668570987373609
0,0634539811416137
0,0654248415333383
0,067271749715083
0,0655458320075553
0,0661112907984952
0,0660087984597312
0,0671127611142395
0,06416671608636
0,0649096777570718
0,0648529786434583
0,0643718915468745
0,0634032896292885
0,0614215002078489
0,0663880908475621
0,0638302123729362
0,0640313052859599
0,0634530661670816
0,0640264663303312
0,0619100834722432
0,0624343757216294
0,063018161836497
0,0599992302399598
0,0601466232922072
0,0601371140271316
0,0612506938573169
0,0597111099742185
0,061455774663597
0,0610353328318527
0,060600727439022
0,0595590656202644
0,0602986012954187
0,060342157480679
0,0586026537204339
0,0581149344393934
0,0564323760536179
0,0572734627056031
0,0566993557733652
0,0574619517544483
0,0571873054173472
0,0573028240817106
0,055445948624688
0,0554880300010987
0,0570881672366916
0,0555331927379806
0,0565875727679623
0,0551768349314224
0,0555996922608046
0,0557425754008611
0,0538011241872135
0,0528255125329381
0,0542976010152289
0,0532440556827732
0,0530343486821828
0,0513766923621728
0,0509348002704508
0,0500207784764452
0,0505303131649659
0,0510387669531642
0,0518417313713979
0,051284882380433
0,052706301363125
0,0525174240687745
0,0514217036510252
0,0509797551889978
0,0511291181775318
0,0505225101462831
0,0493540718510649
0,0484696517488976
0,0487229886613211
0,0497514499176672
0,0489117637943272
0,0476512490524174
0,0470068283969044
0,0469277367134377
0,0469955930267441
0,0474558807907738
0,0453569646552087
0,0444749710649649
0,0459242289258823
0,047444124014113
0,0489113859255644
0,0488810687426987
0,0499484147839907
0,0505474481417763
0,0520759413817312
0,0549784024266333
0,0602362895719062
0,0628609203187999
0,0629115367270561
0,0672269180960485
0,07008786745269
0,0743317191864807
0,076353651355468
0,0782509933232607
0,0841450065288585
0,0863654750789908
0,0911336996644449
0,0916960784398146
0,0956192032037826
0,0976608626057256
0,102413038337619
0,105974227698167
0,110201444870792
0,110512435622709
0,113244149959581
0,114172426297485
0,117379724087951
0,117273919537422
0,121467519482742
0,123504051950246
0,124012900079367
0,12806719208361
0,129725338919909
0,129197696578464
0,130477234954245
0,131097828813371
0,12876983684567
0,128869466844427
0,130712590847974
0,12950197463886
0,131337940739985
0,129637084281269
0,130202580053302
0,13215377488296
0,132058168756765
0,131189556507978
0,129432627182874
0,130120384101365
0,132052442380201
0,133323286859618
0,13355859542683
0,137513696471586
0,137794012552913
0,137282040276007
0,138166547154782
0,139300210684519
0,140559229129655
0,145533729638734
0,144686895186845
0,145525423911315
0,148227091694537
0,150006069565429
0,154214355988956
0,155470749890099
0,158047548298366
0,161295423291835
0,161148419539992
0,16420484811888
0,164814139640098
0,168369784594275
0,166169214116385
0,169076216867187
0,172753654434206
0,167685851034927
0,174409305063857
0,169475252124332
0,167939356477709
0,169999696472692
0,169739530525791
0,169927138854859
0,168329434698671
0,168234461626089
0,167825039119304
0,170719611458632
0,170458955866197
0,170305694593698
0,172067050044477
0,177999051397739
0,183685037021547
0,183137795354383
0,187143328921392
0,19017578453203
0,195341628091061
0,1968968792354
0,1995094832702
0,204409631634824
0,207348293939277
0,210052547213612
0,210435608909839
0,217759214367173
0,220469341054707
0,221980597499063
0,225946115284368
0,229703066649496
0,234732161917159
0,240683796179872
0,244895968281415
0,246091875865158
0,254104430079376
0,257593977096498
0,261791620545413
0,265226868119604
0,270248245221244
0,267862503626824
0,275846572327392
0,277929897844999
0,279770198586948
0,280283539040903
0,284547353878554
0,286125635853914
0,28498307905599
0,281752999653918
0,285262011901747
0,283184789964594
0,283077349041067
0,277752341351045
0,275385690841821
0,276234370231862
0,273308347577786
0,271590435682903
0,265203533295669
0,266005025704639
0,264328539652157
0,26316382446058
0,260727182944031
0,263536035365039
0,26472032762464
0,265255148118651
0,2654587696479
0,266951104526391
0,267934507951223
0,269650859748041
0,27591674849248
0,276276625344759
0,277029967322358
0,279574072512761
0,277962439180995
0,283674169633989
0,283094644615198
0,284008248220209
0,285608233257464
0,287229530073794
0,284923176839279
0,28975948671513
0,287515184965914
0,283560554228789
0,283178368881813
0,283113375715339
0,282670246549457
0,283689860024572
0,283133431250089
0,281339557520635
0,279487319778145
0,278463311925794
0,278159540301911
0,278999070186541
0,273048587188576
0,271868208785175
0,270576220183396
0,266668746196403
0,266824109881735
0,262628309636292
0,263366616590042
0,253734946742901
0,252895662273978
0,254103195650945
0,248823169415595
0,244588323194189
0,235473971296531
0,231030971350893
0,224595516816671
0,222587264408063
0,209985362664502
0,203296660311657
0,193451510516426
0,187268777502961
0,179440283236206
0,17481192533956
0,167600308727074
0,159741535898328
0,155116068107942
0,147619858473673
0,143791613478878
0,136784976956984
0,136040107565947
0,135818627272327
0,129137933150002
0,127938941813145
0,130538576201629
0,126267783675709
0,123583609793748
0,123000780850207
0,122368585179152
0,12329579270959
0,120001307772914
0,115791066120153
0,1172324753504
0,112638972274025
0,110838725839137
0,111666486894095
0,106982119606381
0,104673116244565
0,102132354969875
0,095561128151867
0,0940871706754055
0,0894429419836519
0,0870576633795894
0,0858134879604887
0,0797225202364136
0,0783326559859027
0,0734346917764838
0,0705762009512475
0,0670146491642714
0,0642448417754344
0,0595615066890596
0,0589124739864545
0,0544148515414742
0,0515684669521971
0,0463134107540299
0,0478124230350589
0,0444958995118376
0,0452304675945227
0,0420267433876624
0,039214940068582
0,0396384823384782
0,0374971933828579
0,0352218027270878
0,032288496185083
0,0347985987807463
0,0358777555377597
0,0336340581094158
0,0342025555771982
0,0338239449448872
0,0355995395871426
0,0324569346212997
0,0324502138373378
0,0328007964742459
0,0349561122007867
0,0356968359615248
0,0366734994220584
0,0351547734264155
0,0372414108822713
0,0381095752156524
0,0360483820807375
0,0344213700578214
0,0392611460992084
0,0365647382722884
0,0362921267930257
0,0349352970161543
0,0376263632958987
0,0381905609896746
0,034377967666856
0,0344028224936923
0,0357294639158894
0,0348405722669318
0,0374753180638424
0,0318459400812892
0,0347868447955946
0,0352568652027108
0,0327961206560356
0,0354540917339152
0,0354730249495225
0,033788431936553
0,0339618947684954
0,0363497719695237
0,0375212324959572
0,0355492095998503
0,0356586610992967
0,0373489753772233
0,0410922983545331
0,0386793613104242
0,0385306217753042
0,0363537782407908
0,0405479134823229
0,0379223271255919
0,0417813701227033
0,0406408671035451
0,0422701801736298
0,0455474329686078
0,0436870144312841
0,0434679862430546
0,039201220001204
0,0437025265599148
0,0438926067353384
0,0370228553896205
0,0445826157944616
0,0373791846122994
0,0466659205221846
0,0519194612953787
0,0375261715475959
0,0391317623337245
0,0456018087615956
0,0501378613008185
0,0501595723751581
0,0510896563658837
0,0521652629003233
0,0562853329490294
0,053112365345854
0,0553679844362078
0,0584592549760885
0,0579320878262212
0,0610905301771421
0,055947296848445
0,0594061418802934
0,0572670397512612
0,0600641476907729
0,0562559236770059
0,0540897728398268
0,0490478792879266
0,0528736116492431
0,055558686095707
0,05141329295213
0,0531540424499881
0,0459135705351729
0,051253007102623
0,0430420437403644
0,0475712037596682
0,0490676133719501
0,0570453472335849
0,0529996284953487
0,0469976208558619
0,0487493110369683
0,0466975525173383
0,0495181986333623
0,0445715981563177
0,0449633899779029
0,0558081182317793
0,0533383378058645
0,047348413584326
0,0403420042076037
0,0417294481493554
0,0451474866540573
0,0416246173603832
0,0443366983370029
0,0427812795054255
0,038241470312939
0,0418422161452793
0,0439592697110096
0,0447434886262603
0,0403846822399326
0,0396979215973755
0,0479754229318881
0,0450389739594397
0,0547551076348586
0,0426622662575995
0,031129435115277
0,0418548367740238
0,0412798150042984
0,0433351220941129
0,038072397182955
0,045910378948788
0,0400571902491913
0,0397665176188141
0,0403593873466387
0,0356659154345508
0,0427504322859805
0,0382904448950927
0,0389379286711067
0,0410156955272195
0,040607899916878
0,0398114173631287
0,0367254151420885
0,0419453968062068
0,0338379588176274
0,0366190788026362
0,036122428097308
0,0402344628929057
0,0457187754043112
0,0469533658328797
0,0340162445557263
0,0392561814795773
0,0395407975720656
0,0319817927401721
0,0413574085905156
0,0412108069335141
0,0307451807618651
0,0475246801734203
0,0412938290053654
0,0378269208427809
0,0317566525867466
0,0380217145604114
0,0432686084732282
0,0413338894666751
0,0441751498122662
0,0400247248502911
0,0419712961189218
0,0428152350221298
0,02980292095049
0,03910658254867
0,0415318175991334
0,0446429260922096
0,0455330610098784
0,052151069643293
0,0391378587571546
0,0513758984716471
0,0480607045538083
0,0444832306879899
0,0485078554771723
0,0526392634028978
0,0513795820787101
0,0468143065220363
0,0542367907616433
0,0569558925554189
0,0529446579041252
0,0586107693584013
0,0571997956570895
0,0644624574427998
0,0634095446190181
0,0638937879096942
0,0612768510960877
0,0671973263605628
0,0661328959095555
0,0701047300905241
0,0824652156055952
0,0742980713390677
0,0792277022505701
0,0772092225227223
0,0765006435542719
0,0858651667444978
0,0698589280000366
0,0929785088982959
0,077935599769347
0,0894703369513279
0,0694000071959848
0,0643794915845273
0,072493209509572
0,0620242964100611
0,0615362693868536
0,0853604038457311
0,0746760292417181
0,063071666992356
0,0703376517672994
0,0696650577075528
0,0694883123644637
0,0615065472416174
0,0719691061756725
0,0504024037256654
0,0765791677832542
0,0742408304891473
0,0682986540688748
0,0736944437143961
0,0687604916419789
0,0495956987981753
0,0650672620715665
0,0696763869217067
0,059428859019343
0,0695759916058713
0,0717946879753728
0,0688122152293263
0,0576732164803773
0,0589914186105527
0,0678564005932057
0,0580931220610161
0,0763653910850391
0,0543252797390219
0,0567647499994373
0,0558226188507526
0,0821293683934324
0,0547741095903653
0,049445773679802
0,0613912666116279
0,0610973317508479
0,0859775226401236
0,0807634055856352
0,0662308120325565
0,0598977833017426
0,0769852143433589
0,0541308671499043
0,0778965490835518
0,0689131939031365
0,0656038310226665
0,0692432018389737
0,0551426185194802
0,0698552097209629
0,0793136716828452
0,0597491988716321
0,0743005476979134
0,0486388567769896
0,0923908055699473
0,0911573291638669
0,0678794750348384
0,0646354309630999
0,0410884344243617
0,0882392781466448
0,0727180112807946
0,085838852561751
0,0752451157587916
0,0879517155097835
0,11084822916392
0,078932013307765
0,0389478054099573
0,0824135845416229
0,0595357540645565
0,101357338525347
0,0918344752848233
0,0865145693820216
0,082152960732999
0,105692169552074
0,0925199370298425
0,084687537243628
0,0774793656968102
0,113342297131756
0,121192444074553
0,12744105571964
0,0744593656002964
0,0914377118028656
0,0989859914515129
0,10308647850643
0,0756204384422382
0,125599056087975
0,0639184090162395
0,100074513434909
0,07189314378308
0,116135068883451
0,0794043157474342
0,0871227354967019
0,0519993260412737
0,0843814650569254
0,0845912355579006
0,139812011089603
0,119622834175082
0,102449721166918
0,0695744815481073
0,124914101352984
0,123379640735921
0,0786062497090772
0,0833746505601137
0,137318149817492
0,113192817987575
0,065263826968328
0,0575077330287754
0,087478406315121
0,178523526862615
0,176948439281084
0,0513707362808843
0,0807500966498876
0,0391524424057631
0,129628772570093
0,0394016249417291
0,00899546294949018
0,0662417500210059
0,103190777740934
0,0764908795154659
-0,0094982014086148
-0,0388808504957396
0,145012697763451
0,135487408164982
0,149017528800986
0,171810567888362
0,102333636174281
0,077092713860113
0,192814420324109
0,0575516995096645
0,0108452893218591
-0,000881429742957447
0,0925104742260955
-0,0526067024286583
0,0224956483688975
0,0994287848244501
0,298127314557005
0,0558914016591888
0,00175195030011747
-0,11033505015413
0,119195371813718
