3596
4000,36533379555
650,420452594757
1
2
2
0,0260145479072181
0,00716933297783373
0,0335799101065874
0,00934399098443936
0,0280853929517954
0,00746641856387275
0,0288445791227295
0,00656585413148917
0,0210820850121078
0,00795455685448128
0,0267860054932305
0,0112213585548492
0,0203148788148055
0,010728630978074
0,0288948934571903
0,00555339161348151
0,0312168822830751
0,015605919543151
0,0266764369242619
0,00883752374971029
0,027374384158607
0,00535099958547362
0,018977901930246
0,0104871647490717
0,0211200571050892
0,004735128622943
0,0248832992938742
0,00651833859747313
0,0254671315237415
0,00305180816160945
0,0264921171507831
0,00460347645347298
0,026155477318899
0,0123256235550901
0,0169819006404429
0,00627938701535487
0,0223073957350656
0,00820485436907043
0,0238898948775858
0,00185942350445819
0,0203804349531587
0,0130413487879772
0,0191452941087005
0,00744285127082063
0,0217684054770606
0,0179398673246379
0,0177801762291948
0,0132513114165402
0,0241439003868495
0,0128410324250251
0,0292987826349837
0,00394694769742492
0,0230538352046343
0,00400907714074569
0,0214437103935381
0,0164201486550341
0,0273584336953564
0,00313057036225213
0,0257675169549231
-0,000577006579772847
0,0289635776405774
0,0146844743334702
0,0250655829573409
0,00827011148683945
0,0244943972180577
0,010374431245383
0,0191658149245507
0,00656255663650823
0,0168868211653704
0,00811442291493226
0,0178347380386472
0,0189924728755685
0,0365306281262287
0,00337050630681248
0,0298883021803173
0,00933043787380182
0,0244210787762658
0,00820472771034269
0,0141104632611944
0,0061209164436148
0,0296721901543702
0,0136339308475978
0,0211456958067407
0,00984854374554924
0,0155772446970606
0,0224279685615917
0,0221431756796677
-0,00398346958647808
0,0335050266216027
0,0114685672335276
0,0147945330661188
0,00782919669901195
0,0183520129663194
0,00970769989519178
0,0222043998872236
0,0128398724471672
0,0198377602316891
0,00545824261034695
0,0185862218238539
0,000714507747988418
0,0211432910974091
-0,00530835974485731
0,0467345523368095
0,00224657422578551
0,0542778823630701
0,0130811007044838
0,0124466348006689
0,0275033572473747
0,0373556553359287
0,0190388817275591
0,0184706401945394
0,0102832931598178
0,0219766285373629
0,0090688123283359
0,00760724547442997
0,0139138280930482
0,0351575026985671
0,0144500569819263
0,0219318761997899
0,00872084012514808
0,0034161539630252
0,0113753959359906
0,0501179117300723
0,00739462107991886
0,0252835404467204
0,0114293738619243
0,00860468606344001
0,00839551066583412
0,0465490181958554
0,0119645048143495
0,0254159244827428
0,00868396566810745
0,0238378135213999
-0,0102647106872858
0,0430764696341022
0,0126750076240974
0,0245517330817713
-0,0143595757381285
0,0175279554032844
0,036142727878534
0,0388476581897188
0,0115944377251868
0,0169395675197038
-0,00924606550220081
0,0394124373764113
0,0202055093736386
0,0153166484127684
0,0122644000785598
0,0292540850243604
0,00549100887783623
0,0194058447947992
-0,00304374614831023
0,0372027441802958
0,0108087731352685
-0,00748806067675427
0,0142255517579451
0,0544270375928133
-0,00756028078554228
0,0638073710620593
0,00499545947966215
0,03440704791472
0,00744840834481065
0,0221982436942638
0,0054911540319529
0,0219386194551454
-0,00644422030269164
0,0181746059367403
0,0251062520026854
0,0166470268654306
-0,00116247546388539
0,0370003745911913
0,0133415238376137
0,008461030426221
0,0421926301244318
0,0386752268484769
-0,00266604230971599
0,049767813660033
0,023945048694594
0,00903039491968559
0,00381963415500116
0,0367272052971812
0,0147216993516966
0,0254409405628106
0,00584898561526698
0,0197960498796287
0,0184158759136506
0,0274144078159855
0,00313688956314096
0,0259368062513447
-0,00484634595160717
0,0193924227011173
0,0238877088197863
0,0492663946283132
0,00831540984352431
0,0228327835397035
-0,0224207139370689
0,0375242389122031
0,0256312950272724
0,0263205647844168
0,00618445844255272
0,0145125534800428
0,0118003782740965
0,014107500231499
0,00662236491960082
0,0155097620835914
-0,0205081346756075
0,0467326358873444
0,0216298685994955
0,0331524275634658
0,00208923608955516
0,0225911768731344
-0,0173513111058887
0,0372368171564254
0,0242760951044093
0,0265812953712339
0,0130096223512173
0,00391379284752714
0,00898099829012766
0,0402783794527032
0,0049794316603963
0,0218362767861444
0,00682014294019931
0,0244372240102281
0,00287942402900327
0,0246417917074647
0,00756627012477886
0,0222403121055693
0,00514649342339337
0,0196324082015473
0,00264829145826868
0,0193018515625614
0,0144815719646172
0,0293322999965105
0,0117303839652493
0,0113419769329134
0,00220939720574579
0,0393793004019933
0,00844658893745548
0,0275539173025054
0,00618045020492412
0,0223495733761619
0,00506644117633875
0,0186741231564832
0,00434670353650724
0,0232057794342648
-0,0118420209749506
0,0404245934759862
0,00949720593586567
0,0291971311181861
-0,00126493250896899
0,0356952615425679
0,0152932784376421
0,0325867108677173
0,00427451993374834
0,0238315041852178
-0,000421609978193093
0,013181250935276
0,0133012854532559
0,0246434660716051
0,00353577829310622
0,030410387377811
0,010714415486056
0,0290392707308157
-0,00143358892887347
-0,00138600985404609
0,0437854186927912
0,0223371999320114
-0,0220417671836283
0,0716071335900922
0,0155530856774139
0,0313177284278616
-0,00233526255458445
-0,0241235879612276
0,025587004766238
0,0568710799698887
0,0169417279127395
0,0242809964892927
0,0159616632626012
0,0211037519551341
0,000702901922054384
0,00462052517151641
0,00323921147063241
0,0207441116322204
0,0257131524686654
0,0715309311841344
-0,0165433199324398
0,0342903011454876
0,0287719044839188
0,0228359563763406
0,0096829292174425
0,0202528825189844
-0,00178962064607262
0,0340762325410493
0,013214739245579
0,0376436336372812
0,0172098100232999
0,0105140149814324
0,0248405455539314
0,0231605585985181
0,00548822669533846
0,0302688914670683
0,0185843449070518
0,0192282293811544
0,0142461242494819
0,0118085634660787
0,0178754988289247
0,0152953598618878
-0,0152019258636084
0,0510855096851316
0,0158600763013733
0,0147465493078038
0,0280058817182762
0,031313070274276
0,00794639761408647
0,0152107930775292
0,0120141408737851
0,0265524476902198
0,00712479443191205
0,00374561500555158
0,0203194804628721
0,0213694932114
0,0104033123023622
0,0193377495979911
0,0112291107772505
0,0157385309778866
0,00663779644298819
0,0231629331077163
0,00799428706205718
0,0177499283055967
-0,00330359628762718
0,0255481851271563
0,0312212422802609
-0,00323506568587174
0,0134145835959089
0,0514110751537349
0,0156244142730634
0,0173853941805321
0,00999945716118363
0,0264982673152922
0,00594315231281384
0,0225847500750349
0,00905674731776367
0,0177172965708991
0,0250722347076933
0,0252119114423265
0,000117508897850231
0,00859216309573611
0,0254477312115407
0,0712546140407277
0,0207542260048977
0,0354486430932956
-0,0147646143165712
0,0368453572187327
0,022373732100152
0,0298295005120232
0,0271510058727982
0,0250173896602353
0,0216561877065525
0,0163401619611119
0,0166654271545478
0,0228904989243213
0,0214050435040119
0,0244751957453482
0,0228012410776998
0,0242054323029491
0,0171791457110116
0,0154106269011417
0,00677405787663868
0,0483687986945264
0,0291083971120179
0,026444471268243
0,0263003759014203
0,0132914476138282
0,0215679151896393
0,0227645945445455
0,0349385779631466
0,0429164374263004
0,0180703035664329
0,066252548632761
0,0223925236231927
0,0387865966916213
0,0106484385829825
0,0392454161017158
0,0188852252804502
0,0386264380736234
0,021546355738356
0,0268375475530624
0,0169825649714966
0,0420835974098093
0,0177995458714378
0,0359385772134318
0,00334442763432627
0,0483122602593493
0,0305953856444926
0,0403638979088774
0,0159384269362573
0,0384460532993891
0,02159746841267
0,070621977434523
0,0306815195656753
0,0496871863384181
0,0235347628517046
0,0426192503727231
0,0455189486355333
0,0384513920476137
0,0347115109064331
0,0340459806799587
0,032820250223707
0,0607797842770874
0,0394110884318034
0,0614278504306561
0,0297255165205715
0,0660407985923535
0,0367612174267588
0,0524720538802772
0,0413456009452686
0,0652061606708843
0,025876532445756
0,0559665091300876
0,0531192191150158
0,0538466668310968
0,0532128712282708
0,0528614703000222
0,0429861159998397
0,0557128940820383
0,0549028479405376
0,0535346725002843
0,0463211229529291
0,0672392386674329
0,0491387120495099
0,0632601401049348
0,0479333796885281
0,06005604772135
0,052500762212771
0,0683266356633223
0,0545119858632337
0,0775971715680709
0,050654281693246
0,0805130944863582
0,0420307406338077
0,0900013354548844
0,0549853495242521
0,0727512360491882
0,0725652351863758
0,0778257949408076
0,0661668361379093
0,0820552310886644
0,0606895470637785
0,0789261930173367
0,0607336287152104
0,0733552330110577
0,0709630731529444
0,0865023910170442
0,0660418029729478
0,0846938593353394
0,0690418363770818
0,0929748263645288
0,0757802674748435
0,0903717272479076
0,0693612126984635
0,0928672799792716
0,0708319620872291
0,0977720841060094
0,0847807570543498
0,105760894397647
0,094196969088738
0,100162045305144
0,0887206244470908
0,106847857669796
0,100844432880654
0,102096007259359
0,0964399389386141
0,109767580731544
0,0952097922180006
0,11482024207932
0,0955236599024706
0,110057590418675
0,0955937720735983
0,112567864823491
0,108102614712508
0,128435906559458
0,102827206624888
0,119396688647809
0,111655187935999
0,122772036491449
0,109477014552183
0,123933900314878
0,120903969661034
0,135238389950841
0,111982019567411
0,123631191857723
0,120658750912289
0,139889191522264
0,121623503064933
0,133684324710224
0,127817983985788
0,13078883805828
0,130902892228672
0,14094522880491
0,120985638117908
0,153738297264574
0,13444406860507
0,157599936354705
0,129460529494801
0,152295372315801
0,141037363056694
0,157854319460238
0,148831999939772
0,166994297326394
0,14621859386853
0,160315016987823
0,145871376062321
0,164112138421953
0,151569125145885
0,168320913568466
0,155223330885796
0,17534046327622
0,153046457556353
0,172348274772297
0,156594253186119
0,177826784441236
0,17050310656986
0,180728146430088
0,174440092863233
0,193555400434297
0,159136656673173
0,195820170806906
0,173141000460044
0,196280831180238
0,174545099876847
0,200550799304614
0,179923416997537
0,203637161206177
0,176658041656959
0,201495219194297
0,188986506959972
0,188770738026146
0,182559409446667
0,216773216851306
0,192655169979801
0,212591377220212
0,20255291049639
0,208720972245454
0,190091459046197
0,223563131663103
0,192747796401563
0,230064299166482
0,203864548014928
0,232047179845385
0,217705781136903
0,230311940993731
0,206100721299983
0,238212783319043
0,212994673231729
0,222079870265257
0,224535900694223
0,233463570361015
0,22671809098686
0,244635269953454
0,229783896560408
0,243716067200867
0,220819253898194
0,243889712557769
0,223652790140221
0,248060278108657
0,24272296543458
0,258762096678023
0,218279207464384
0,248022198819292
0,232771020407098
0,260702354530639
0,236563964732127
0,281707012757705
0,241577933721147
0,274535229673966
0,242578378977385
0,256048874893236
0,252966469802899
0,270925991942092
0,244607769600037
0,2664837451141
0,245280961300871
0,272814644434561
0,257698635747585
0,28226818365508
0,268735114614748
0,294109134675288
0,271631919946355
0,276539525306967
0,264362859455295
0,276374494649426
0,265425170708384
0,287497027322177
0,282002764849799
0,296887984616837
0,276464227524305
0,292929023446379
0,273240007394213
0,309330125125043
0,267867756027637
0,298130712004955
0,283481761018704
0,291754988588491
0,282004158956983
0,304561149299876
0,275260876288686
0,303889522407956
0,286898136754724
0,315197238318571
0,293203771024734
0,312307795704778
0,294724365881943
0,314305676019124
0,303883700652529
0,330461399470929
0,305002857888688
0,326648002959576
0,314065169923144
0,332520136700458
0,30910003566792
0,324631932490704
0,300112788917652
0,342546350466306
0,310301838569143
0,327719287839526
0,301167932668819
0,327301247739168
0,304429908322204
0,328904472890012
0,303424145574605
0,342018021512388
0,325064035607652
0,341789640262313
0,306039278517269
0,341699671866839
0,298189093010511
0,339088758836239
0,322341229748128
0,340402964067005
0,315698559402061
0,330520933371978
0,306888946499159
0,341217832575348
0,314156617965767
0,346980671318183
0,333263956361495
0,349996611287174
0,326582943390253
0,341892926637145
0,318577888332834
0,34343637319117
0,319909067349422
0,350258604128873
0,329636745448196
0,350609128433446
0,336525774312064
0,361260218397768
0,332759389413443
0,368408950274374
0,324050208245875
0,357283863509283
0,340221467317907
0,364997989712258
0,328958357305953
0,349970051989842
0,336752597119772
0,360809472557541
0,334394864366739
0,362213176055433
0,3315051711698
0,353950053206779
0,329108921797353
0,352410994086536
0,345595760198082
0,361050723681719
0,331766309260698
0,361939790170882
0,340003781691973
0,359589415945495
0,337042424320102
0,359512822271057
0,347144587692021
0,363273530302758
0,344217415919155
0,363870901164097
0,34112942366532
0,373491579785508
0,34117932112313
0,366362606017238
0,345900333235214
0,364414058673225
0,336046270811321
0,352893101786155
0,351280077181779
0,366546889961088
0,342409234032727
0,35707442432572
0,349824392684659
0,36928131450657
0,346302870066876
0,369562982142847
0,338835402611577
0,370131372642637
0,348196093859355
0,356083971803079
0,339099662898834
0,365893198714493
0,339053041073284
0,361112007679974
0,340695225261316
0,355770011896763
0,343801397875642
0,359793377696397
0,347585376871527
0,361569091046889
0,346106585342046
0,36639043847834
0,341438702358304
0,352511633859741
0,336547505432403
0,363247985431842
0,340490219967319
0,347959655912338
0,342423544519831
0,360485213984874
0,338949668669619
0,339407369512429
0,337925730928577
0,350999928723393
0,319927439746221
0,356409381368284
0,339186478328895
0,361302462007229
0,340396556864478
0,355579251192835
0,333079858257554
0,350320946113902
0,341881037012539
0,344502396453093
0,332305255549727
0,352847811192698
0,338713508458663
0,351172346056564
0,330748034107279
0,344623358148121
0,331617692826004
0,339731263996399
0,325210860461597
0,337687785076782
0,332326178982678
0,344813362186366
0,328504804493695
0,341442345487738
0,329089663475917
0,342631858180034
0,326058221202486
0,354454735370129
0,324892750359932
0,349462048108249
0,317572084079615
0,336828620840113
0,325917069489791
0,337343914529846
0,322454736738639
0,333099274331585
0,329312909868892
0,32768119743339
0,321324717213257
0,325338738417772
0,328450662789112
0,332338032731788
0,317365882108009
0,335989421088202
0,315896477938247
0,328770343586666
0,311065252670269
0,331342431546394
0,311555090637765
0,337877992762692
0,311157732560382
0,322364307814531
0,305441260333757
0,322426658967544
0,315803887322556
0,325370229822809
0,313317438190849
0,323791911245544
0,307607899826236
0,312626287499425
0,307857843876959
0,321410539296751
0,30423130783579
0,313329262601893
0,295519978035523
0,322659819983541
0,300775495301511
0,311628041962319
0,294602076588632
0,310188856704108
0,294927766547926
0,308146308587158
0,294335480959847
0,305528539032911
0,292579624395955
0,305378508266243
0,28658286683513
0,290833049495237
0,293454280506023
0,30441622173369
0,285285996127203
0,290287074239328
0,289698108782046
0,293377622305503
0,282144319059247
0,303607295844621
0,28326325148294
0,295938816952022
0,272815496604888
0,285338695481166
0,274606983177945
0,288784006047141
0,276776029666429
0,286339643804933
0,275099501698727
0,288967741485583
0,267717197113239
0,277459723999147
0,268139152621261
0,280254705280206
0,258799164255439
0,275114638166676
0,268200341363356
0,275487117895863
0,258655799346923
0,27040242698604
0,255581593889818
0,271449561914397
0,252659094106595
0,270573018005443
0,250395443866013
0,260071193146253
0,25677430900871
0,265533319022338
0,249071081415668
0,259813779790968
0,244868301805918
0,257371869079697
0,249544522554675
0,256353141831941
0,245341366030712
0,250420557572652
0,242425589389362
0,252270871091279
0,2392551683779
0,24996791948916
0,234829079481448
0,246756094859401
0,230644755449413
0,243679323862965
0,229667496125493
0,242286578184466
0,23329456267279
0,239206522927978
0,230837278136704
0,243037929711545
0,22408569545409
0,230485209385948
0,222800126122636
0,236868715003992
0,226528469186494
0,229080086920372
0,220725431442221
0,225287312878542
0,214669814747565
0,232186081608566
0,211736339519718
0,223850838776564
0,205350802240242
0,216828982222405
0,205930461991883
0,226114551730006
0,204831576805099
0,218587740836101
0,208600314316586
0,213671102185415
0,206316090738396
0,208597910581716
0,199920043701673
0,205317220108704
0,189391110868045
0,214138087426939
0,197622911353538
0,207243252603948
0,19063037802937
0,200968281858429
0,196573832928319
0,205393972922083
0,19177383152469
0,200436148255913
0,188632029737905
0,188906048814367
0,18478037351076
0,191892313472906
0,177425630594441
0,19496809266588
0,181662151021309
0,185353462621674
0,176233323488317
0,185442522566228
0,180527852138778
0,180123379169552
0,180726840105028
0,187637581314566
0,173805595387884
0,189430500465267
0,171419236458285
0,175963740049782
0,168573625450828
0,17479624699474
0,166561773450578
0,174909375303324
0,166751506623512
0,16850825841581
0,158476036011182
0,166584040591041
0,162657617444977
0,171793902008649
0,164348228106295
0,165078355040547
0,160781417203981
0,16851511610752
0,148235055832001
0,161370335869948
0,158104269608823
0,158133891509079
0,145875444694338
0,154566180383198
0,148070143045073
0,152778631409072
0,145000730626149
0,156411293211295
0,15036516440546
0,152935194110089
0,143920707030664
0,150238728743794
0,140649846313541
0,14839709176881
0,136326091675963
0,145674193635309
0,137314739682367
0,149146373287892
0,137098544016811
0,145094370966203
0,138070920554187
0,141507125703751
0,130828330108837
0,149960346947954
0,133960147140529
0,143329386890064
0,130468112051206
0,136724710144956
0,130739458539059
0,136936227511059
0,127151938382971
0,137872897346634
0,127650012673182
0,133470629766147
0,124967752324443
0,135550880422033
0,122343821114455
0,134676094541957
0,121046382064941
0,128861588232101
0,118398740222786
0,126957517991806
0,122469347536842
0,126638961587735
0,120683331307914
0,127559204936607
0,115361767872723
0,116864874652269
0,115506900296708
0,121636840527468
0,115867006246978
0,117409216183577
0,114008566767477
0,122289337417105
0,111685481540099
0,1185534725219
0,108227661200754
0,120729484538421
0,110177562577173
0,114540896862762
0,107687304684933
0,113576478936779
0,106547213887322
0,10895732359639
0,105354317543928
0,105786360094395
0,10321871077906
0,110017506299628
0,10029753623847
0,103369572078167
0,102427058133745
0,106919931434382
0,0987911557320228
0,107382336478354
0,100515985333127
0,108025094638668
0,0975786962881997
0,103952928773038
0,0976795978578173
0,108342313247961
0,0930854280719886
0,099864414777645
0,091012597553002
0,100919868483343
0,0897874243927871
0,103610999089983
0,0918812839586215
0,095489428045088
0,0927379150561923
0,0965642870826356
0,0913223472967288
0,101688541635965
0,0883499444886981
0,0953110800012349
0,0847806022640643
0,091304751365902
0,0869202580552809
0,0915368752884743
0,0852321679559511
0,0863896730395867
0,0861993800220505
0,0928395812050511
0,082602151018498
0,0881624583662115
0,0805876965961077
0,0845837136929989
0,076167957554463
0,0882249193936378
0,0832708014161368
0,0902756059159032
0,0804581152765441
0,0829881003462041
0,0765616822323487
0,0809118117937238
0,0798404935692684
0,0833965669273611
0,0781110026958396
0,0840717650743459
0,074118548505188
0,0815670269055139
0,0720708129333776
0,0797303746443799
0,0751155847903621
0,0831800981669514
0,07502962236951
0,0772889657396853
0,0753179641853997
0,0798244787325993
0,0733364025819388
0,0800115038326586
0,0711831864555001
0,0739830398452643
0,0688001296640331
0,0784499509108922
0,0754229360239773
0,0731712157039674
0,0684719865975467
0,080183014261172
0,0742632505028739
0,0732087127341368
0,0728911745853413
0,0747364433081912
0,0690119256084746
0,0726897492626664
0,0735592428522926
0,0729321585341374
0,066540787046294
0,0776809384147596
0,0721256332773117
0,0709746129958665
0,068501528547856
0,0769061947162078
0,0688389311416126
0,0742105059052707
0,0732183874829089
0,0781053994295347
0,0690645012768066
0,0805703487379222
0,075225181673454
0,0796960043103098
0,0700888171760527
0,0784918545152509
0,076846696984956
0,0788677362324213
0,0766928487756275
0,0788092119822827
0,0762211542464605
0,0821598793454603
0,0785046417985191
0,08519752255819
0,0753434326026535
0,0872493937644973
0,0767822991593261
0,0826345167620401
0,080778959705171
0,0866046917436302
0,0816749877510045
0,0880204936077367
0,0860424467498678
0,0860379738743277
0,0830855508181708
0,0926794357613799
0,0867383586057959
0,0923399263798142
0,0888827626345619
0,0933342013256379
0,0847990323400051
0,0943309397744569
0,086328343799897
0,0911264931988531
0,0883105293581646
0,0936171859955145
0,0865256001047922
0,0949747814638707
0,0883853828276827
0,0985446286172682
0,0918665584795866
0,0977392979528455
0,0952865603627085
0,102997049332473
0,0957992162903582
0,103100283319387
0,0980125741809134
0,105384122760189
0,0967893814052072
0,104016897749252
0,100004765634864
0,108725604185668
0,100958912275246
0,110777275420558
0,101803836350109
0,109344910697193
0,103025135686007
0,109960272567318
0,105465620717155
0,107735204436906
0,102920562457066
0,108603509464728
0,104563996107895
0,104987446288975
0,106096489414488
0,112095842699711
0,106391007317627
0,115211084289448
0,102577365286877
0,107098244866547
0,0978766951034062
0,113280870532591
0,102624491653676
0,108430152040016
0,103520791895633
0,108515493549376
0,106176026971367
0,108965394310175
0,102620200839919
0,10784466277491
0,103250449998723
0,109147986860902
0,0983389843615927
0,106758047896766
0,106541652284348
0,102959003808497
0,104319658284295
0,10367215730717
0,101433279772783
0,108150338913501
0,098795855914169
0,110410839710301
0,0995534491243791
0,103772617540476
0,104166399719916
0,10537978229974
0,0960510513008304
0,10937689627201
0,105339805566792
0,108181359776238
0,102035955572285
0,10691749216992
0,102002552440529
0,107043041860833
0,0992792510238985
0,109956799923372
0,102420012816551
0,106342235145505
0,102582836194807
0,106767512041174
0,0991936599382843
0,104894454061281
0,101191791184528
0,105879979128755
0,0985347212981873
0,100890623338679
0,0956508732152273
0,102999060172324
0,0999320650931795
0,103870586718997
0,0931617750637269
0,0985291781083105
0,0933806426480257
0,0974829115294497
0,0986995506834631
0,0963457685879932
0,0910621778307237
0,0926404540292457
0,0893287357540175
0,0918736695876426
0,0898422875345638
0,0927388473642752
0,0899075951496428
0,0937704699921702
0,0867608213424995
0,0933981621168045
0,0837811918358418
0,0867260342076479
0,0792340368887052
0,0823753534179381
0,0760195785677489
0,0855676982455648
0,0788075351822446
0,0865361451106499
0,077200927915309
0,0794876444146446
0,0735156242439289
0,0838861969261567
0,0775643429266422
0,0741705908731271
0,0690521471164251
0,0778045616356704
0,0732663892939901
0,0762696588772948
0,0725558790724959
0,0757507415784968
0,0665930797199081
0,0713960175550297
0,0643372854451965
0,0724335643119111
0,0663668396094984
0,0710627357628627
0,0642081134042959
0,0679033587956121
0,0623243394176375
0,0670699531167196
0,0638320997691692
0,065970494489693
0,0635987597593772
0,0669590015855998
0,0614955745275278
0,0679932932563301
0,0601949173984178
0,0657265483587302
0,0619400157592389
0,0667919104048703
0,059965738340444
0,0651641194491922
0,0589317575442685
0,064809427423285
0,0623429513965806
0,0642682661047643
0,0559892415837242
0,0617526533506989
0,0581511470595091
0,0603959528562838
0,0605365908193684
0,06210856750142
0,0578369957596539
0,0601656656055544
0,050728505145534
0,0568935556707528
0,048647665606872
0,058581672406092
0,0537284991306441
0,0587716188225759
0,0553849041980993
0,0591598203109852
0,0561319301394602
0,0583261353157301
0,0528773404910738
0,054740877812274
0,0507958532110964
0,0547654018696672
0,0536268187442409
0,0573936108700625
0,0521234476053869
0,0576534977050308
0,0511961335100876
0,0553164485275633
0,0512305748776659
0,0504959331968877
0,0470311766293924
0,0538036427090239
0,0447007102318821
0,055548705237539
0,0496150010052094
0,0543241725784852
0,0467760993606608
0,052899523367465
0,0467587595553685
0,0531196928704251
0,0475211178050887
0,0532792664730265
0,0484929556840907
0,0509166780988245
0,045263921451476
0,0539489168118246
0,0480639243186026
0,0501948978123683
0,0477596979108097
0,0546718279601061
0,0481382817111897
0,0522222004255017
0,0486170234830066
0,0499860832917841
0,0481698719561518
0,0505177490355231
0,0460928549931425
0,0529148636706827
0,048159400273978
0,0516509564070379
0,0424221505882855
0,0463730859130584
0,0488979783274214
0,0512922478586474
0,0466642110915628
0,0498027288613364
0,0433292186942799
0,0485170301889516
0,0437801222754665
0,0504506895226369
0,0422523027117671
0,0461614543278201
0,0433352266052159
0,0508385353697474
0,0418500930770883
0,0432936687216345
0,0465174706427853
0,0477276514062839
0,0408272089254774
0,0466251149367695
0,0386205343914074
0,0474691192632691
0,0428416138037308
0,0448857391454176
0,0446004820739737
0,0478249364916546
0,0415373103621189
0,0453787317274786
0,0450259227518571
0,0454209024282066
0,0409943759958257
0,0459773330013491
0,0380897329985775
0,0488100757246669
0,0442061088651762
0,0459634730044309
0,0407237615004045
0,0462466126020941
0,040341175919875
0,0470288287572383
0,0416285477327552
0,0437665021427854
0,0407764766379166
0,043227823487475
0,0383502745611019
0,0450529137542448
0,0433228683287233
0,0452034407929291
0,03890683541179
0,0430962462037247
0,0418871640718998
0,0468360333648273
0,043555904588637
0,0426579912440948
0,035801401277957
0,0411974912147515
0,0403694901064268
0,0455367453281234
0,0418225881137987
0,0439634315177023
0,0364874850955276
0,0415286424378784
0,0383460131547031
0,0433795619180983
0,0384968305835462
0,0408679257330055
0,0384363551364993
0,0396368454293867
0,039626778154905
0,0435684035128718
0,0345073846922553
0,0419626982070955
0,0371889840679461
0,0400453633977404
0,0353322346000521
0,0386197341812417
0,0390241048629336
0,0375207144637572
0,0385064582116319
0,0422664712149427
0,0341467652608246
0,0367290940837183
0,0367339072771043
0,0383700648342228
0,0332199134774271
0,0385532940122144
0,0376794581673556
0,0401092533680382
0,0326379760512769
0,0385222975260033
0,0352324853056072
0,0367803782574463
0,0323494657718451
0,035721159051833
0,034009472110749
0,0373854924986204
0,0324323668405384
0,0391665040748821
0,0341079609706518
0,0350289187504851
0,0338065513237318
0,0395372281211087
0,0306988609881281
0,0374495244852911
0,0321717059492602
0,0358768408624376
0,033502909614747
0,0339572191862532
0,0336558812585249
0,037327979860753
0,0331378718805309
0,0345121214666476
0,0350794513235396
0,0373671489661836
0,031603718123444
0,032331361320978
0,0284374785244593
0,0316929170123734
0,0329253616826136
0,0331688277816253
0,0312602356275149
0,0324641147230298
0,03057357502678
0,0323271904815908
0,0311290043788014
0,0328476943580312
0,0286777611944147
0,0347682088399124
0,0293732999902699
0,0322109622533947
0,0250830662356931
0,0323538534988791
0,0267365391069371
0,0310648348568374
0,0291758041042797
0,0289965590848657
0,0283168118918302
0,0326982997241824
0,026488453283764
0,0299808729744343
0,0279999250650915
0,0301322940346228
0,0257892948862977
0,0302405594956406
0,0292704616493186
0,0299278599863947
0,0280147876296801
0,0276811495737324
0,0262361381999764
0,02957017369254
0,0260016717293903
0,0258730923037514
0,0246005864574003
0,0270569809503062
0,0226267610185132
0,0270092733646742
0,0250888604899442
0,0277269030992213
0,0241997248525798
0,0274669443429991
0,0266049662932691
0,0280783357898695
0,0237170015903231
0,0256347587336793
0,0248946223752002
0,0282768511432834
0,0224677851217344
0,0256977303841746
0,0236548362177918
0,0282035463333859
0,0272015360644961
0,0283493531270545
0,0221594603575584
0,0267426261755547
0,0260225170244909
0,0260569778185521
0,022593551728513
0,0268100472714802
0,0226834784475961
0,0263505132696661
0,022577555747112
0,0247413679036465
0,0245392735666317
0,0246456475325409
0,0237708500829681
0,02616272306199
0,0227342039898385
0,0261523720502458
0,0230534855191621
0,0285926389863066
0,0243888322186574
0,0235540352508621
0,02507115474131
0,0233724990575276
0,0248652367561109
0,0243799079377632
0,0213623386593134
0,0206993978350871
0,0186933500830674
0,0241316198197873
0,0212353927181617
0,0217671947964971
0,0223348117297997
0,0252959728791676
0,0213792897490045
0,0244063789894853
0,0224921811143487
0,0204383431038157
0,0201672865994017
0,0236576622963882
0,0205530002478514
0,0230864475617208
0,0207951669972035
0,0208602255796386
0,0209777470768203
0,0249437693599612
0,0213209878966107
0,0208422056966905
0,0207043630260062
0,0233247715604756
0,0179437343460168
0,0247567595955097
0,0207910136395591
0,0221680854507065
0,0213028700236626
0,0232886119852174
0,0214330745809943
0,0246183662115515
0,0210275193935075
0,0234215750699222
0,0218755154432102
0,0218248938697615
0,0229853401400356
0,0226241597787858
0,020203616096193
0,0236518006769023
0,019639282121452
0,0229549890727126
0,0209365129319806
0,0230468695456775
0,0192577331140979
0,0205353660389071
0,021489810203352
0,0229917964269875
0,0204790054390369
0,0219317773007146
0,0172339716939023
0,0182881270565743
0,0182529771612192
0,0215879487070117
0,016786666316268
0,0203389392235753
0,0171148620020936
0,02216840876196
0,0178638001832939
0,0228621301092439
0,0207085010332604
0,0212625333516517
0,0197005796286889
0,0229521157561592
0,0179351540892348
0,0202860387818356
0,0179296320278298
0,0196320858184936
0,019080359282915
0,0175845009111554
0,0179017223299217
0,0196838890163738
0,0174344809549277
0,0189930569961353
0,0154841030331319
0,0183259729816214
0,016756305835027
0,0206439781157509
0,017993371347593
0,0214777418658278
0,0178086227434917
0,0168587389243156
0,0164208367737865
0,0188643353053615
0,0147975065244739
0,0212291741105864
0,0192423397632111
0,0199782236479125
0,014948896357783
0,0192675518715371
0,0163849785812443
0,0185072563539026
0,017727755250584
0,0213708967392142
0,0190051684552065
0,0181747678216056
0,01658137491072
0,0199088305801015
0,0198712359921275
0,0171498730197928
0,0155249225490831
0,0199933376245859
0,0162816267779259
0,0194782308729034
0,0167175871340019
0,0168885166273077
0,017743874556019
0,0155874092403784
0,0176061821163142
0,0185747928158461
0,0167898164190956
0,0186538468674496
0,0169425591544146
0,0166223489660097
0,0158555015631254
0,0182967032938612
0,0165707205602788
0,0171799192577836
0,0145039123093157
0,0206258001789974
0,0173414357775138
0,0153397200950351
0,0140118127576715
0,0179933125729096
0,0139512188285324
0,0149259246550173
0,0145643325234184
0,0159453397374418
0,0131265501601767
0,0129643520733975
0,0130899503423668
0,0159509294618618
0,0163257275482454
0,015665930758615
0,0158288930064672
0,0142841288777373
0,0133919422287229
0,0164081146665994
0,0130704191777585
0,015748614172088
0,0152395530280581
0,0140722394287625
0,0145759456958947
0,0170449802397735
0,0132444221887287
0,0132822490227465
0,011130220145704
0,0154942669753545
0,0148219539947754
0,0168777431623063
0,0154042734456327
0,0149325112802442
0,0135250093569202
0,0146260036539506
0,0134002178574729
0,0161381998397897
0,0140213581293524
0,013086881526674
0,0130000581247902
0,0153622024787539
0,0134906289619494
0,0140047506794012
0,0127011724075134
0,0126610442851492
0,016149507802988
0,0143148183582722
0,0127087052471108
0,0152933023844486
0,015004489952772
0,0159191122135182
0,0148588107271379
0,0154917769323521
0,0120235362852492
0,0139594776731687
0,0122938510689972
0,0137439432618051
0,0108993085671951
0,0102748496052416
0,0109584448759138
0,0139792731313287
0,0117770040699215
0,0142985566030517
0,0137208483620834
0,0119576737659677
0,00925799898062909
0,0125515453853117
0,0129145452175917
0,0111254276179322
0,0119247211027842
0,0132652774255845
0,0123887161878878
0,0116793011067065
0,0107942088107313
0,0127745009244092
0,0104523167698429
0,0124904197165835
0,0107409522290246
0,011871001417537
0,012461825680167
0,0103233521462279
0,0128529399806505
0,0134781291742412
0,0103251287726629
0,0124563828692475
0,0129565523344176
0,0121976469152068
0,00965644313381424
0,0127769459866715
0,0105792308278357
0,0118907510363206
0,0116007598592238
0,0127170610180539
0,0108530640198226
0,0100656534450216
0,0122362862753712
0,00987571776983751
0,00847759467822091
0,00836639245054041
0,0113074468926682
0,00940536382551336
0,0102952873065848
0,00850648771526351
0,0103576209495583
0,0116919896461121
0,0148592958707077
0,0152548734255242
0,0111299191854431
0,00257645760978272
0,00989161393733651
0,0165916827599008
0,018502690926924
0,0102994304643876
0,0132156447646216
0,00924661885835829
0,0113979031836586
0,00840294614253186
0,0123432934348491
0,00584959755861431
0,0108269026581696
0,0122745465080801
0,00987752142311389
0,012128088228445
0,0164250874226428
0,0106017639327335
0,0119170964928459
0,00856598360376148
0,0112418700628867
0,00477620299400114
0,0148772500390056
0,00435618562540933
0,0156704276541306
0,00378138950308918
0,017211450774711
0,00379476172254235
0,0210110512619538
0,00403747718933696
0,0213043022619041
-0,0041539482572063
0,0185269053068028
-0,00482598914763435
0,0203164559271362
-0,00726199948195203
0,0342426460411339
-0,00657309020838999
0,0307685673060801
-0,0158245022433784
0,0328050326786313
-0,00937747657124957
0,042044116678674
-0,0162640753903863
0,0337580011556492
-0,0136831210020445
0,0456077279630189
-0,0119150377967553
0,0302425096294368
-0,00734435004885846
0,0329005524793275
0,00532364099206457
0,0136819023814579
0,0109590870773701
0,010526060723724
0,017852601124927
-0,000351557413370273
0,0291974664777996
-0,00580139328983208
0,02817225322089
-0,00329235667570461
0,0252051841569256
0,00128257468701015
0,018934913693587
0,00782482443749405
0,0124776845363232
0,00820713436630689
0,0126324112947263
0,00828075188427802
0,0111836276961059
0,00846723881584371
0,0114907758228929
0,00591492718284665
0,0138847574417361
0,00406865465710324
0,0126763385452195
0,00669270745621731
0,0108824451509012
0,0052510061790118
0,0105604830195694
0,0064845587529661
0,0109382973664572
0,00862472779889505
0,0122054738129986
0,00703654710794061
0,0123749462793661
0,00624684346672058
0,0113430088520514
0,0064120150309889
0,00825319188182254
0,0059404576331354
0,010022366672158
0,00882747150214292
0,0127006059872488
0,00839233296168125
0,0122290045696127
0,00727004397951058
0,0103065895018561
0,00768682445702436
0,0121137951296143
0,00748259780444747
0,0127179023587617
0,00972218655109973
0,0108816023769213
0,00645339673389902
0,0122102997910572
0,00720284816857401
0,0118284696397164
0,00873446704159989
0,00984858303287721
0,00599278330647476
0,0101415512242999
0,00779684615642333
0,010975333397631
0,00548826834345652
0,0122235773509995
0,00691405136874102
0,0126079436174866
0,00753329317015381
0,0136574894382993
0,00719945190957175
0,00908997335784637
0,00697353822195707
0,0124590634614732
0,00752983528718279
0,0117425846902239
0,00842516351974631
0,0130691022398271
0,00615399305423603
0,0114424081163204
0,0105761616258947
0,00995399968683026
0,00605915183111689
0,0123987098237184
0,00865590495128869
0,0086142976138707
0,00648890708252639
0,00980242486595057
0,0065835546029795
0,0101160711507972
0,0061531480046371
0,00978624189225355
0,00868840656671623
0,0109628552315542
0,00669273838458352
0,00965147317730864
0,00634143919811575
0,0111762198429386
0,00761329558356997
0,00934582460318959
0,00741361774781834
0,0115545062681783
0,00815750809385529
0,00935946145878132
0,00874923737504736
0,0108747054749892
0,00721241654799187
0,0121745812040572
0,00787009949970912
0,00952212542182506
0,00733029643472215
0,00999628147391428
0,00791112019757604
0,0102482832766258
0,0058986387512714
0,0105433253951496
0,0075422107558933
0,0116546606820734
0,00744757706902799
0,01102347956587
0,00944484715039917
0,0114323304371026
0,00883674203358308
0,011857299746533
0,00839396600197567
0,0115418750896309
0,00851250167688072
0,0102064984777085
0,0093329269700572
0,0120919378997692
0,0076035723440101
0,010764127707709
0,00733369113752916
0,0122664509356828
0,00607374450043746
0,0109083529368009
0,0093049595272975
0,012372636986601
0,00864846458951744
0,00929168735858985
0,00755259413111411
0,0122584824826334
0,00867488615700703
0,0107196429210426
0,00866295397488162
0,0117469510672453
0,0071714160897428
0,00902968027094438
0,00710520476321751
0,0104336337551045
0,0074661695753242
0,00929119605234991
0,00953193476131079
0,00875579655592403
0,00892632715679049
0,0116485297537753
0,00905338633288438
0,0117925450391847
0,00913653568121033
0,00830701732614761
0,00641019500505403
0,0101143648156681
0,0079203554292781
0,011693057471835
0,00927669657714347
0,0129575560185114
0,00919927131945821
0,0116122131138803
0,00666849166091523
0,00965110826360896
0,00689323588470587
0,00948638027393636
0,00759043283658225
0,0111787128083731
0,00975217529633164
0,012654783127271
0,00818509335016402
0,0136280900142327
0,0102933541503076
0,0127194453294378
0,00902041953733909
0,0113271819658004
0,00967962389690096
0,00983240898776906
0,00699277672015881
0,013343219319971
0,00923334683255974
0,00832659510659804
0,00866355637430556
0,0106633309408882
0,00743357818371197
0,00991918475989673
0,010103999904841
0,0110947584640355
0,00850299526422539
0,0113389065085201
0,00927841609464564
0,0114303571252227
0,00686880347637584
0,0108916666208061
0,00772902426917252
0,00977198834454193
0,008605323878277
0,0114508513205783
0,00587078723310274
0,0109217333922458
0,00616130638169646
0,0101518664756474
0,0107430811156905
0,0107451293906773
0,00800000090838675
0,00869342095504073
0,0100097874922159
0,00943622716597071
0,00687747439885347
0,00872650488703738
0,00907337314937867
0,00873005316713635
0,00561967101624473
0,0104605166262861
0,00772845929936319
0,0109952460072874
0,00915883741735667
0,0120543108887984
0,00870173592530862
0,0108561709397971
0,00975037158282343
0,0122470438092563
0,00790089338579289
0,0131572782677695
0,00835117102549788
0,00982797301588956
0,00939982792860176
0,00943525617074749
0,00801935515989965
0,0122345718680479
0,00666136159254498
0,0107970556106945
0,00665320952002659
0,00873283107862997
0,00971376492598812
0,010037165337269
0,0074795354313761
0,00953897424978261
0,00879490584331473
0,00957142768004055
0,00976147515224702
0,00974544596725197
0,00707902073061396
0,0112700366029315
0,00940406069488491
0,00961952631978762
0,00981028843188113
0,00910776981102997
0,00594063836182679
0,00899832409630501
0,00773915507900798
0,00897137832865705
0,00703641930491684
0,0117907416942713
0,00700780105393193
0,00900809265227819
0,00673380611453535
0,00711716505405877
0,00547433425258605
0,00999110374562048
0,00662443535466764
0,00944161987741543
0,00815500067448956
0,0100541142355851
0,00769677209012219
0,0097291133261814
0,00508836580462662
0,0109343047128348
0,00979294081466058
0,00915770688949742
0,00622698149177395
0,00850942185597288
0,00827775824357067
0,0108307571866678
0,00870701602688157
0,00977980456250136
0,00966444637644886
0,00963553055564601
0,00632266960962492
0,00955934785014262
0,00461336053635419
0,00790832048624373
0,00634993709642658
0,00800450994918041
0,00829246856237002
0,00925005954460268
0,00646454819538616
0,0107543424614957
0,00745203956449287
0,00674852791402735
0,00769670024926398
0,0122096405070204
0,00732613080656033
0,0128236846797089
0,00990942481553562
0,00826469559318738
0,00501913882127083
0,0108714356361263
0,00787186337858065
0,0111728189798102
0,00820531748972594
0,00964057203241699
0,0062023761283816
0,00796848295164861
0,0069808097408464
0,00988895609292643
0,00876523520116441
0,00744820951759982
0,00775442436210446
0,011099485925973
0,00706215271991133
0,00926464726741152
0,00821074722260068
0,00934136063474779
0,00463397437269783
0,00692350775417036
0,00618076361268901
0,0138255188453286
0,00504938053619535
0,0123445663639008
0,00592456933229624
0,0113918327675912
0,00299821542453044
0,0100355246226979
0,00633116330009533
0,00724468403623249
0,00766246380554557
0,0108808334518328
0,00604152735866027
0,00960905823310129
0,00602078763142925
0,00730776827763532
0,00429754930069481
0,00814909698037412
0,00645732493002563
0,00607036559017393
0,00491736600642954
0,00824957136512336
0,00434351256067411
0,0107342319802068
0,00486100567666023
0,00965961563873514
0,00414023202175065
0,0090185401053901
0,00298450781536212
0,0116300790598805
0,00979141123716307
0,00791427462553882
0,007098428672876
0,00834493757565666
0,00825763403827372
0,00688190910300109
0,00542514962120467
0,00621007563805988
0,00692018756488
0,00634112032859279
0,0060647748435902
0,00777913861023405
0,0064186845374596
0,00913408563485705
0,00790366024485042
0,00761515740223454
0,00590099788982364
0,00863252638262758
0,00550133473945369
0,00847403042051922
0,00762848203434371
0,00684948477790167
0,00253262856016443
0,00885570315974774
0,00573787593814375
0,00598864687275801
0,00907282356293396
0,00914554885965773
0,00786441133852733
0,0107299829172197
0,00604487999065435
0,00582546536570467
0,0090890156008589
0,0062398897785652
0,00629020586456437
0,00449898773112676
0,00598068845908557
0,00778627533565402
0,00533878624873506
0,00887960684024939
0,0065427638991581
0,00591807674800516
0,00622434186299758
0,00865272738623736
0,00570267497605633
0,00225692693309849
0,00459416204180689
0,00492807421043415
0,00775534332698114
0,00446808385647063
0,00941322962195765
0,00357034590812373
0,00362747520827947
0,0129750471185841
0,0025089216930619
0,00844234672246933
0,00242631633290615
0,00906350116510709
0,00665060171278402
0,0079830155396499
0,00569603442678028
0,00760833979418191
0,0033272070139201
0,00979373504260889
0,00438794906942
0,00774872305418817
0,00450152420515053
0,0114831252308722
0,00281703066585945
0,00849042631740833
0,00470343228455643
0,00834586957877647
0,0037146638135528
0,00580761322505727
0,00974679913348612
0,0103936963376619
0,00733141913794102
0,0104931726377745
-0,00254686578243441
0,0198608866105312
0,00229523736374165
0,014854687297423
0,00411857631797039
0,0125955630064151
0,00298012192594752
0,0100050692488866
0,00187778773848413
0,00866168225998475
0,00812126617311501
0,00662409951384178
0,00668843780448229
0,0057377141708742
0,0062731780901253
0,00603028100742392
0,00350637681663166
0,00657267470101092
0,00652980768233902
0,00820385132606162
0,00555472813897046
0,0102961478144297
0,00170335514964697
0,00853202023392632
0,00141570428240212
0,0109674947012058
0,00515457324891345
0,00675385904459147
0,00335700729718073
0,0112000200164127
0,00110006397310026
0,00663281118836387
0,00945264116706237
0,00723386553014851
0,00758175388345759
0,00393414011702248
0,0099236701622054
0,00795303406979421
0,00664205442360469
0,00456478787229774
0,00625487559274452
0,00546168188014215
0,00583471484274721
0,00718658634898089
0,00681860644722568
0,00544147863293616
0,00575909100136149
0,0079809866225541
0,00781033060069285
0,0075694207510791
0,00453457988469238
0,0101496165359405
-0,00156452481196086
0,0161808807376016
0,00641883129162034
0,0144865702232528
0,00629047732644856
0,00877290761619703
0,0035292931914646
0,00946433581142317
0,00509964111632926
0,00828406130358212
0,00656942555659777
0,00548163505807416
0,0052620865621245
0,00937689468336921
0,00602770489197434
0,00599852756616481
0,00615689633345939
0,00730914829774876
0,00513291821398307
0,0032175829786476
0,00540997372824706
0,00377807127294658
0,00895154059324671
-0,0010065010420322
0,0110198111695588
0,00510081832220555
0,0138619797156684
-0,0105062482066184
0,025855551936394
0,00592141988753694
0,0109128922577631
0,00780530388489272
0,00749290602281416
0,00887465277021069
0,00502762067982886
0,00483132078890463
0,00690100237581159
0,00545869089975436
0,0052210039267135
0,00699396133703091
0,00605490658469053
0,0100182982000192
-0,000694905777369038
0,00698853205019211
0,0158286383652045
0,00751379679838753
0,0131847178517715
-0,00145461785709079
0,0102619229232856
0,0185222313436097
0,00306713676733303
0,0112834861305285
0,00296564489937965
0,0123123319677762
0,00513940739847784
0,00813152634158665
0,00570459866404516
0,0116819925800217
0,00514779761094865
0,0100383290234495
0,0065253695770272
0,0063162721980523
0,00836417762243995
0,00496480670717264
0,00637228295386066
0,0135968963398652
0,00522824744582855
0,0121801232457404
0,00334894867510344
0,00862426468997575
0,00474011020621065
0,0110024829799172
9,14976481414655E-06
0,00910299988245473
0,0108416782323056
0,00459691421917156
0,0117534220193484
0,0137701566535022
0,00450591088075055
0,0132815303328008
0,00356046549804201
0,0219290011868109
-0,00642714559030414
0,0184799787716707
0,00523809485916935
0,0142346278103994
0,015911142258937
0,0047391274595078
0,0114355628596229
0,0057448736819821
0,0147661543631279
-0,00188021782177815
0,0232222200109439
-0,0012810377258862
0,0189329784454734
-0,00325059170082339
0,0180187139947065
0,00156611806806558
0,0154293626971483
0,00718534512786626
0,0113848757660754
-0,000449159651579264
0,0220478720084813
0,00344582624994499
0,0036377006587328
0,0174263129306908
0,00662211764853973
0,0265007979627126
0,00725768410528577
0,00591537677095372
0,0181581835535996
0,00391197425435875
0,0187525262343096
0,00307590252078728
0,0192169849737161
0,000793622292581173
0,00841635635371554
0,0277932167718702
0,00868775740941549
0,0132350827018886
0,00910228810926507
0,00415964440730328
0,0267052707053043
0,00802521537022355
0,0143683165332323
0,00561977418645328
0,016378437696056
-0,0122929044345052
0,0429902571426634
-0,00346112756858664
0,0261755782445063
0,010689921415411
0,0193314852115538
0,0114065252234121
0,0163664622110019
0,0082131773595816
0,0158268138596352
0,0186208015769448
0,0182190183593717
-0,00229835458726587
0,0204108030596866
0,0204653090697543
0,00937422272204142
0,0213302301272199
0,0105334628020045
0,00255516758131506
0,011489863398035
0,0288066203184288
0,026608523086096
0,0148211115655725
0,0116853303600278
0,0234214551311426
0,0121064454353832
0,0193994225623056
0,0103693885904522
0,0153619854459159
0,0112492435450107
0,00945649997255044
0,0188960175189191
0,0126333717251666
0,0226619953619448
0,0102268547717536
0,0163962799964736
0,00886868289512319
0,0298842076968495
0,0280325016974269
0,00965848311619411
0,0361200069611817
0,0170993455780308
0,031757185293075
0,0156460342518379
0,0190659690586536
0,0189533107368191
0,0222883766116415
0,0220116597483707
0,0106120782877351
0,0328033968908675
0,013556591915981
0,0345445679032839
0,0288944470387316
0,0265117092528267
0,0231776074796296
-0,00708926269886747
0,129477992333426
0,0153195033778937
0,0574954711643373
0,00589996789623447
0,0481023553954329
0,0352764618026471
0,0432282582511845
0,0312475815818122
0,0365808216912035
0,0289370863160611
0,0439615893737319
0,0354853117843556
0,0453937714959433
0,0418446173259997
0,0486598694700356
0,02724201394733
0,0599528615521911
0,0338118253743254
0,0824788268129716
0,0520240725190394
0,0562499784807804
0,0508095176689828
0,0626782710522581
0,0490663866403059
0,0724190913015587
0,03967994088442
0,0754010518162908
0,0713165276565447
0,069864072011185
0,0651486294200823
0,0616296125529973
0,079399312916053
0,0479924661197645
0,109326057506405
0,062575090297841
0,0949434338155527
0,0628862266264557
0,0856500800805688
0,0740184970081204
0,0738599365735365
0,0878829213298168
0,0833399837873338
0,0911008906499979
0,0800414795858142
0,0879428596058986
0,0816995687357388
0,0941043265757822
0,0882924255783466
0,0833102589112699
0,0906117089490787
0,0623504430487542
0,193986809803528
0,0875611107498033
0,106169071305459
0,0829052176089372
0,0928549712592472
0,105654022849865
0,0832025101241908
0,133976424318333
0,0926964045274597
0,101436343975796
0,088248298512702
0,0890096332233598
0,0877685213225087
0,089651718359773
0,0958895280728395
0,0745113756429767
0,11533945518726
0,0623543432473575
0,128524165117438
0,090061222735419
0,0987635249182429
0,0849684130336868
0,0883708570459733
0,0832428879558208
0,0925679081072993
0,075070611238971
0,092813927384823
0,0869237407086646
0,0805082133500991
0,09062896636573
0,0655074234642709
0,0929694764197572
0,0829354674090168
0,0823893423902127
0,0804030554104044
0,0680962331255066
0,0832888831613404
0,0557370442246145
0,0794935788100935
0,0881735754362165
0,0746115460968053
0,0751446140722225
0,066061861438525
0,0706758459041938
0,0623663289219415
0,0722673167911124
0,0734566584180226
0,0714609376072641
0,067316011363137
0,071562069347781
0,0639467699540172
0,0687441863246837
0,0607655781335675
0,0721574796226819
0,0619914545863839
0,0695345063868612
0,0609345928403689
0,0720395085196374
0,0606771617961763
0,0644124145375161
0,0621298881742673
0,0653710989936399
0,06326555800908
0,0645180879692713
0,0597503447447459
0,0664347779233756
0,0599862803438666
0,0663743106557351
0,0624549761718398
0,0679087218649275
0,0602482039048805
0,0666040680906408
0,0611721791983306
0,0670443965326031
0,0614498448180708
0,0685865795470376
0,0601570817589177
0,067023562297999
0,0595649709406074
0,0668188768305289
0,0624738381171281
0,0417053261101334
0,0942859873364984
0,0550758690849656
0,0709730816749194
0,059088170293945
0,0680101827900481
0,0588937065116477
0,0514936076040639
0,0833318559625354
0,058991985681778
0,0654109295261783
0,0637997630471037
0,0524091107912632
0,0681770909305939
0,0613323083209582
0,0582421256632489
0,0652186250321888
0,0353562344064037
0,105075964580559
0,023134011965646
0,121603497330262
0,070614434050526
0,0818457150860955
0,0419075813846742
0,0737220876893438
0,0613284990222631
0,0592420201622725
0,0609481529836356
0,0482567974106803
0,0726564369215418
0,0551949832694775
0,0646334037667393
0,058545927040175
0,049413599731442
0,0711813491314767
0,0690058125355294
0,0519018571806202
0,0741897207047907
0,0626712630143465
0,0513400920486533
0,0632325846042468
0,0751791124390186
0,0704174760582156
0,0515259042659446
0,0643294584062111
0,0424227973420031
0,0532606811712727
0,0651612098716938
0,0530710816879907
0,0679090173765314
0,0452665194083662
0,0527523839408205
0,0419611660167804
0,0637041987731912
0,0425859531559932
0,0545531234289158
0,0640478790389404
0,0387452989109552
0,0610574598036882
0,0296005710171481
0,0758450224833211
0,0477313733986226
0,0626335001259223
0,0317863330467991
0,0727623525327047
0,0484908754862492
0,0494691929176666
0,0514564130290085
0,0374440175808784
0,0430360751320406
0,0517235878953685
0,0395894429672875
0,0544549214529329
0,0347868156709518
0,0582574608363161
0,0408379488794845
0,0535258520211907
0,0589214787508898
0,0479334051250689
0,0412891160592619
0,0414855640819831
0,0387048480918656
0,0472417848134047
0,0208506146722625
0,0745331156859557
0,0271794776943994
0,0489192714252206
0,0471146907814135
0,0445611573313906
0,0393185033019481
0,0406549101475101
0,0378496918025415
0,0454156156613422
0,0375950895565162
0,0671087180997666
0,0344524605488898
0,056707496249416
0,0400480075071359
0,0504390744026405
0,0429090177613543
0,0498351398727887
0,0431023331495225
0,0511479264594932
0,0498893730997507
0,0535510485677744
0,047415779682669
0,0582324475514377
0,0389166242546758
0,0764247483190239
0,0546074686695526
0,0528532510760638
0,0703352117107271
0,0500776295664738
0,0865849815003263
0,061950448232531
0,0728290756919483
0,0627444385904352
0,0661034486891827
0,0751809652523303
0,055562375686765
0,0757409606436293
0,074955214619269
0,0735712858272176
0,0703852342582641
0,0695387608137965
0,0754431641222098
0,0616458052818569
0,0922797350561252
0,0565337966021638
0,120228554781676
0,0689707108586678
0,0981748273085304
0,0767229999019097
0,0766323755232391
0,082735943323879
0,0788946413222598
0,0832318318433929
0,0726707713981
0,080784419444259
0,0926498271833484
0,0798630586442426
0,0893324617598501
0,0779292832512893
0,0828927445233129
0,0814441107776975
0,0821190769127193
0,0888305555864587
0,0817402917962089
0,0937990365376928
0,0754145974702641
0,0827898222462882
0,121023044499732
0,086882693963221
0,0977723682126366
0,0815663267445261
0,098958402447381
0,0839726948194071
0,0904116388257576
0,097774242614022
0,0913641884709742
0,0950948004625403
0,0927001969554911
0,0961318308790734
0,0928456329461974
0,0984475900030741
0,101445434240777
0,0908543606488181
0,111880326378082
0,0710394420866456
0,132129771930556
0,0912720441113171
0,115705201554383
0,100486121279011
0,105280823666675
0,103794996877838
0,101747447562508
0,0983441056149106
0,0992130466263031
0,104045610615378
0,100302167667284
0,103559375105009
0,0944525636108937
0,103328226400093
0,096834561996086
0,103071637839919
0,109802609641624
0,0976133993642862
0,099481436449164
0,0997628948300365
0,104780382255622
0,0907023387004079
0,10957034969812
0,0957672132465932
0,104802293156255
0,0957359450728022
0,103803074273206
0,108381880601843
0,105370281392841
0,0964911342954588
0,102023669858789
0,0906661260280995
0,106018957042091
0,088496909407897
0,104794970144835
0,102756379712245
0,104991234891573
0,100090196310927
0,103932858880017
0,0978863967387798
0,101128340427152
0,100222370976859
0,0988301548854885
0,101500397628588
0,104511229042274
0,107710657328884
0,0982311955393362
0,105149459991152
0,0997336101375858
0,108047799470109
0,10777041275619
0,100232596127239
0,107389133031181
0,0983535652858433
0,101709092890841
0,102541256373808
0,102688939619261
0,091398739723112
0,102117461816348
0,0899481473270617
0,0980436901126001
0,106273068548957
0,0915318845945607
0,105903921442645
0,0845735965789667
0,0952663640151057
0,0855317677841312
0,094126617080089
0,0858028287832526
0,0888037129925797
0,0873090031590833
0,0879641734561122
0,0866169669849332
0,0864707426414225
0,0845100417236528
0,0835140161653599
0,0882208898114137
0,0857620048464035
0,0872901830920443
0,0870401886481881
0,0839280618589173
0,0829370920419796
0,0842046662595444
0,0864397949845009
0,0824122800053042
0,0894736591610185
0,0842035695957143
0,0919913766568242
0,082342257854289
0,0900616680826949
0,0807271208793166
0,0854760454049803
0,0809645235420397
0,0832092055320782
0,0825055147777468
0,0860353076653641
0,0811396868151134
0,0814926977400545
0,0812554929720252
0,0833878205971733
0,0824483721894432
0,0821789793155846
0,0854693426844099
0,0802133444984935
0,0811897070754809
0,0828487458178967
0,0828683074185503
0,0794102402825098
0,0864644669969093
0,0801282619740564
0,0842770624130844
0,084194638568623
0,0839040965433819
0,0803685959477755
0,080623429175583
0,0817952250453912
0,0824994334484956
0,0845288724718091
0,0844119828155633
0,0826405361200352
0,0815669126169252
0,0816368682349554
0,079431856028846
0,0809497233591812
0,0798575332440984
0,0801574263430243
0,079308720154021
0,0783764643506356
0,0773383542153387
0,0757442972639712
0,078037591559446
0,0719507209676381
0,0745678792485795
0,0737781399835938
0,0748728387640002
0,0721445718223385
0,0709653485850383
0,0702613063826635
0,0694514577420072
0,0719169507273231
0,0687058832371278
0,0729709752159536
0,0710083665807354
0,0689006853592413
0,0697781941856094
0,0703079127592074
0,0679373308815337
0,0674180427284533
0,0706726715287312
0,0722359200520519
0,067217887940694
0,0704942558476179
0,0703868889409681
0,0695160777919228
0,0715746760942631
0,0710935006476612
0,0716241873345919
0,0707609539790614
0,0708773342282377
0,0712676198680768
0,0728228016706455
0,0722001023252975
0,0697368733741233
0,0720640456141077
0,0730802846067838
0,0725600428163797
0,0737697315745493
0,0718236053405047
0,0728372654065757
0,0720658536857065
0,0722823747507761
0,0745553960996738
0,074875989951209
0,0732799425061701
0,0726545692411717
0,0758341520832342
0,0740845805069818
0,0756283081347708
0,0751737530662768
0,0754164673331672
0,0741933588697576
0,0748453446110734
0,0738841620067823
0,0740904585967005
0,0727122329983195
0,0715106564939976
0,0752005338341868
0,0720476275491586
0,0737437651210904
0,0727711788780562
0,0730604908831837
0,0706548645619067
0,0708315302573374
0,0711252284300896
0,0688865382872017
0,0692733892850591
0,0711631444338383
0,0704048022407249
0,0694633465895612
0,0700632953502615
0,0692177655320282
0,0679317009572461
0,0680562910836571
0,0701240260212889
0,0683739939164679
0,0679847101364595
0,0666546493732672
0,0649732263142804
0,0669730615519018
0,0651453462343566
0,0663256531155133
0,066008859071046
0,0654803911561957
0,0650571862354603
0,0663891850790905
0,0640402552886484
0,0640438090604635
0,0655989437015622
0,0650571789002045
0,0651409338686171
0,063267976740817
0,0620324462040025
0,0617993324333748
0,0609123380561151
0,0591323888393474
0,0614209945748741
0,0603918193595439
0,0584330689741409
0,0574580599338936
0,0597790268804194
0,0594172384947053
0,061106721199521
0,0607553425121134
0,0588971515193542
0,059899557666862
0,0612015315889642
0,0604013092607414
0,0591119054357361
0,0575931549165497
0,0580013664875316
0,057050657531711
0,0579334267032494
0,0559574335099549
0,0555124101546535
0,0558344065189092
0,0566781080563577
0,0539261376724528
0,0533405941630225
0,054522116010029
0,0524470695158927
0,0511019967427557
0,0536979371966873
0,0548448973354366
0,0551052496992921
0,0576148062126134
0,0575469252837788
0,05723240516069
0,0609036646029503
0,0620764562904911
0,0670631969925625
0,0693387221348841
0,0728918299730228
0,0771338232180428
0,0792965944789282
0,0830539779857919
0,0869441563272667
0,0902459498156524
0,0950214653697504
0,0979701042881273
0,101953743708247
0,106262485300904
0,109382711363415
0,112487997364012
0,116113459838784
0,119693729539828
0,123079312392634
0,123474332165829
0,12826861475612
0,131157163045647
0,132457828935978
0,136105218059058
0,138097430786887
0,141043830396503
0,140949532619245
0,143078097917048
0,146260586306835
0,146755982276334
0,145837257990076
0,147977690288316
0,146325359548219
0,145680023641941
0,149457279422515
0,147802816490439
0,147580010191521
0,149175999895213
0,146941094348229
0,148618039923835
0,149903144624595
0,149286627444421
0,145989731187801
0,148697626253253
0,150497217669838
0,152578259969999
0,151339600713204
0,153620317337457
0,154185505704367
0,153528170435828
0,155979735958243
0,157508355292189
0,159268224966363
0,159571851753373
0,164705135572754
0,164895338744233
0,166362222720169
0,167010845723782
0,171601504295449
0,173758059613778
0,176009000844657
0,180230972067316
0,18079140036892
0,185922214982279
0,187068186459279
0,189819648489845
0,187048122534307
0,190453323775962
0,192781936180347
0,191572858211878
0,193256785061589
0,190460287070044
0,188385031844679
0,191204961830179
0,192627379693583
0,189380035002948
0,18696060609123
0,18928612215133
0,187762909361577
0,190326725228242
0,189680995212488
0,192083751977823
0,195956376623864
0,199718817947606
0,202105777561654
0,204173954344645
0,208146677334223
0,211101075471314
0,214993798339764
0,217681864138326
0,224824111340288
0,228771633126551
0,229134688989426
0,234217161980636
0,23722436562395
0,241517239652945
0,244081636677618
0,247667039711961
0,254912298803093
0,256614450211092
0,261789481912852
0,265627027114034
0,269653798726612
0,271200548755018
0,277903151875331
0,286897239940729
0,290326884463932
0,293831263044752
0,293019685457931
0,298929546180177
0,304423299967576
0,306054561518824
0,308220128025528
0,311626539498467
0,314449931562619
0,311255412631698
0,315452660602417
0,312931564943822
0,315004944790665
0,310901174894387
0,312839735713736
0,311107481259226
0,307654840403316
0,303289682668147
0,301234315714042
0,301144714708677
0,300140987987375
0,293544369168521
0,294500738018909
0,292733101341383
0,290041791569686
0,292213978279395
0,293159500823852
0,293587603765787
0,29269203724692
0,293977755764047
0,296846502237717
0,29808105603542
0,302739240322754
0,304588577322324
0,30459505177039
0,307396383089404
0,307897450572681
0,309531991035754
0,312061150798904
0,314976550293506
0,313945150452433
0,317325287023362
0,314550358848408
0,315483842024908
0,318934595876978
0,318544701975779
0,315919035635571
0,313180230065315
0,315500564351408
0,31068866255751
0,312793923098604
0,314038915424758
0,306946591389375
0,305845479221814
0,309692529530578
0,306845744919879
0,303378679172572
0,299346881601953
0,299452225525777
0,293364696493491
0,294604903895783
0,291326100759888
0,287271110723286
0,281497782801469
0,280352359906291
0,280488658836186
0,279646348801994
0,26890326124788
0,264863790825722
0,261029000790605
0,251825079848147
0,247011251651322
0,236239916426287
0,230442998278085
0,222019551188651
0,213669651245758
0,203270998857629
0,196325541219802
0,190103255189479
0,178543635997393
0,170337594136654
0,168152855415752
0,161017373748281
0,155322176289064
0,152063490723793
0,151726391519859
0,147179221524723
0,144497259300053
0,149364980619083
0,144194114956554
0,14032486668538
0,140757580361612
0,138219415337805
0,136546326523879
0,137137571277963
0,133151733264803
0,131634742095353
0,126790843771097
0,127448392841882
0,128092443229334
0,12146042919556
0,120110826537913
0,114878185401042
0,110534308122173
0,10679906126308
0,10552820191482
0,0980898555907817
0,0984419797361963
0,0911666456430604
0,0892678877288071
0,0831811880041183
0,0818046110126716
0,0754437375953281
0,0759529059393712
0,0678206710151755
0,0683840709114642
0,0615351479879649
0,0595760350986437
0,0532165188382374
0,0541060942593364
0,0515648392235818
0,0502619386138286
0,0497974846468704
0,0467691842353836
0,0442119439675867
0,0430677508835844
0,0418714677878891
0,0393086009758332
0,0412445107693442
0,0396052378740615
0,0380468177970132
0,0433588965593754
0,0387952931841077
0,0396454736510536
0,0388724882456009
0,0380618294438449
0,0398849674180612
0,0406057985385105
0,0383835345733317
0,0416512226267953
0,0400781006770494
0,0404800501777238
0,040679526859913
0,0406890989403842
0,0402990204174995
0,0421243733377562
0,0411405369539554
0,0382924061967133
0,0424895645571845
0,0416999162847226
0,0396473904787855
0,0404149076877999
0,0405264982208866
0,0417354712749388
0,0382906106226481
0,0445684708362759
0,0389852427589531
0,0382505583811815
0,0400028788983524
0,0381662208297096
0,0390413856076264
0,0416651494029649
0,0404002384160929
0,0405137921092912
0,0410546715750378
0,0429876271290867
0,0404892782489919
0,039102921953003
0,0422353196140258
0,0438889326832986
0,0461773051714935
0,046539655589373
0,0437575512202373
0,0459652596557527
0,042735046096244
0,0463776240556054
0,0455524907868191
0,0442063945872539
0,0479521550513736
0,0463027280328485
0,0488925826336307
0,048398132579197
0,0490757329521223
0,0444277440637537
0,0456081369740517
0,0491692783215463
0,0464069035321548
0,0513014387003448
0,0554284879300891
0,0483720375213471
0,0428854752190629
0,0496349557675227
0,0565130716579389
0,0571857606407967
0,0553967771458138
0,0590578675688882
0,0612117327565338
0,0585345850911527
0,0640183931945826
0,0641042741443995
0,0656991460684344
0,0687575465109364
0,0655044982794547
0,0674962408138253
0,0641153420958909
0,0687066648833883
0,0630423533473347
0,063683226391592
0,0569019591037151
0,0565167038827318
0,0564185499540064
0,0643503813696063
0,0598574947534617
0,0508852912802787
0,0545469433842223
0,0533382149906225
0,0558896504905391
0,056064465517803
0,0576326449381617
0,0595315337042964
0,0517054169967542
0,0609271337267258
0,0577276672387211
0,0550338595543651
0,0547306629650889
0,0526128692387958
0,0589222793949413
0,0533460845434804
0,052170085000657
0,0473079994906292
0,0475684492833103
0,0518658578737838
0,0488690604417524
0,0446988072082016
0,0514960996388139
0,0492165696473311
0,0503064470487977
0,0507993345388719
0,0483683603426857
0,0504036296443448
0,0468109318251007
0,0524801599062897
0,048577107759076
0,0558352180883481
0,0451271914242449
0,0378835822834611
0,0482820623927616
0,0421536899903465
0,0486757703952708
0,0488454735224154
0,0498651695615359
0,0506045050621474
0,0463248933756481
0,0487219729117279
0,0357138089951806
0,0426487316454113
0,0407586552534973
0,0417001816919367
0,0434641022409292
0,0448772127415063
0,036959458562532
0,0431351721199533
0,0489637199236218
0,0300728990853514
0,0413089268467309
0,0449837406650873
0,0406932322594337
0,0427149455095984
0,0489022465483814
0,0436399445047075
0,0394951036057213
0,046523969005896
0,0404424950914169
0,0418275100663994
0,0532215413078648
0,0365431972394239
0,0448739034107922
0,0443800946987359
0,0462106592305735
0,0371451513846065
0,0435123755754236
0,0490156612362003
0,0409362294523107
0,0421946845460349
0,0422877389808947
0,049850462484541
0,0440334748402757
0,0368644939342204
0,0456848246215791
0,0438842610540526
0,0467205574455816
0,0477890788312704
0,0599016884236334
0,0407638199996401
0,0531037194795179
0,0539703319128137
0,0481857695845463
0,0576948263972589
0,0550088832161101
0,0607206972073586
0,0560697973821768
0,0652502615900074
0,0597545243723702
0,0602906601851889
0,0594143777995601
0,064467955883887
0,0650013816438161
0,0675002135304277
0,0756143034160302
0,0719788173361327
0,0784849995150477
0,0732236947604241
0,0748822477463519
0,0881579492260805
0,0885684270904634
0,0874310421876516
0,08279915740793
0,0822744714582975
0,0955853330534691
0,0806147493778684
0,0968914401298005
0,0848796498164185
0,0811379573712146
0,0759992280333176
0,0734755152340441
0,0938003404779303
0,0682240803984618
0,0805479768131256
0,0833094285827617
0,0734013030640028
0,0675339967096831
0,0778726594962332
0,0777497410457094
0,0805879830502153
0,0776349531770116
0,0893446224560952
0,0625454275492904
0,0797706525133135
0,0830818325589495
0,083791759890486
0,070632080999939
0,0787073548518144
0,0717124192679822
0,0717101041913241
0,0713422217578516
0,0768945639608574
0,0821659984743903
0,0670376256754559
0,0767965504642806
0,0628938731641709
0,0644928744439677
0,0856158137284778
0,0633058301296898
0,0788672242749355
0,0551377225271261
0,0691007875451155
0,0675504493156044
0,0714515197529682
0,0665893452382539
0,055445938098856
0,063752119364004
0,0619679235022387
0,0919092869561501
0,0916066272081935
0,0808427978851748
0,0637429712538786
0,0806160797942811
0,0746455596366069
0,0898927633574172
0,0757352129764843
0,0807076466964827
0,0726426899205802
0,0803432411166748
0,069623236639318
0,0800014625721509
0,0734942596717436
0,0910726502796754
0,0773861837049913
0,0848257457098155
0,0887391840087805
0,0598527150012656
0,0827322433275575
0,0379679844954567
0,0592912429672779
0,101786374213053
0,110281187063547
0,101909500124604
0,0913968746365408
0,112533523493429
0,085771901689353
0,0554611853699282
0,111013123568651
0,0744413765702564
0,113560186024764
0,102401259989519
0,11900365033426
0,0787727705031782
0,091643430274121
0,101258931216468
0,102835663212393
0,0817759152903302
0,103735840594604
0,122471231161518
0,124367549632281
0,104354726636564
0,11071795499495
0,104774267067903
0,0969457786835682
0,0908920515450191
0,138555428939342
0,0791304134063102
0,127001549955549
0,107626605673579
0,119534270566465
0,0696191629842807
0,0810406536259887
0,0991102451332021
0,0777495364064168
0,11464459920059
0,142782637841481
0,119780070494307
0,114160017323158
0,0910254529041171
0,118561425144706
0,118004829031419
0,144383373603439
0,0891318028922194
0,111572095204715
0,119966632368544
0,0829305649167483
0,0894602068420202
0,087832849232797
0,124152077536095
0,0996078082742941
0,0785997144673623
0,148771599269127
0,0937279450942934
0,074607818880627
0,0903022650784039
-0,00580440976883389
0,0721731226853747
0,176802428068049
0,0589857759035253
0,0624510908074018
0,127679311504541
0,0418549897439848
0,0691918045875795
0,0524241744685391
0,173369315018646
0,155600495496185
0,0249308034962579
0,152636873464616
0,179854929556142
-0,0745431720369442
0,0144383253716655
0,153278881244011
-0,0186777791216632
0,129637584545631
0,152525775555914
0,144589273521306
0,0210027981037256
0,212492910465937
-0,155932851435608
0,0476166350455705
