3596
4000,36533379555
650,420452594757
1
2
2
0,0255854055306325
0,0234165090766961
0,0395615042283555
0,026087571156449
0,0259290656689593
0,0195275288765633
0,0349356118633905
0,0225896329347227
0,0176794509125593
0,026172990834216
0,0282116354278524
0,0249924825055575
0,0244652762707745
0,0234297586127472
0,0269010806786685
0,024750403274064
0,0228439080954496
0,0264579652026937
0,0302381039445798
0,0197069003167559
0,0272542956089068
0,0218452081633395
0,019979676133417
0,0242901319975033
0,0176206005585319
0,01929024135338
0,0264057156671999
0,0255420269875647
0,027412973996019
0,0190136774392289
0,0308366375099411
0,0178128536039562
0,030590121151828
0,0201492661664845
0,0137396457004092
0,0211138286311993
0,0264905463650609
0,029089025886164
0,0259193089915811
0,020136565739461
0,0307806145394154
0,0245736527096017
0,0255111980878303
0,0280843304953289
0,0273570475345789
0,0276357390274243
0,0234701582985539
0,0275578886741442
0,0324164162456635
0,0255477871707454
0,0302168154307444
0,0161692901077934
0,0284037470575948
0,0327051661914295
0,0223441821799105
0,0319093233012661
0,0344750544702482
0,0234717294104536
0,0261616577719737
0,0168921886235211
0,0245809772577148
0,0454079618750839
0,0267446617669181
0,0290024422018585
0,0202100741910209
0,0286851905866376
0,0224750157333359
0,0206039667127645
0,0181603456232136
0,0252283400625261
0,0215831181374127
0,0311276711782595
0,0397399719181966
0,0228289114429907
0,0325252087197073
0,0271640570495103
0,0247146380428153
0,0271152824224007
0,0122171024122332
0,0212730194141256
0,0354695361972889
0,0247057524081467
0,0219287226819607
0,0201115804495978
0,0134468997716045
0,0410200974692647
0,0265743690455667
0,0172308760430394
0,0381364739982898
0,0244890879978271
0,0266172444904195
0,0210047151993187
0,0257350297582264
0,0206860906948958
0,0296420383202773
0,0226702681584789
0,0294668939005534
0,0213299135871972
0,0228660487897582
0,00522703750440713
0,0392605853708352
-0,00602572489496152
0,0604720764491829
0,00463257239097905
0,0515393742402941
0,0535151188506861
-0,00356964030513931
0,0633604041712452
0,0310104130658619
0,0334802708396423
0,0237512129236891
0,0251390279929937
0,0211279452176259
0,0280709123394434
0,00612733880900535
0,0185622275923225
0,059330092016854
0,0291651099588198
0,0256908113076058
0,0181703776416999
0,00108917145951941
0,00768459890729838
0,0775658906405254
0,0213747313914654
0,0317887370878329
0,0161458280231548
0,0151121787604407
0,023041336168187
0,0606597875130898
0,0267555720131077
0,0319487292649121
0,0147720827876719
0,0263409930072519
-0,00891053566779415
0,0628181610573015
0,0246008324037649
0,0215718268135963
0,00325496881124189
0,00292699320564184
0,0710653058384877
0,0440208100119593
0,0270738144200932
0,0227707115525662
0,00114936719756764
0,0531234535924155
0,0407575465311853
0,0163290428562891
0,0230356346647623
0,040800599148286
0,0205974507236786
0,0268411622304037
0,00300899455658721
0,0331079144015001
0,0266100320066305
-0,0137293443296534
-0,0121288684794577
0,111929281469836
-0,0112134440657618
0,100866011809601
0,0231472425592568
0,0365727184121193
0,0219010868213792
0,0260360222605525
0,0177957031564503
0,0224126380198263
0,0107051042941479
0,0111862788436951
0,0502088651762153
0,0210266314229073
0,00917117264137613
0,0316176326642284
0,0371429624861173
-0,00352983168922722
0,0731727822655432
0,0612420860486639
9,5875758657885E-05
0,0621056690377302
0,041251050553964
0,0123010836015091
0,00983708402909925
0,0603557264492556
0,0234548683290693
0,0352630136293868
0,0188519459622399
0,0199329107409222
0,033080478053283
0,0393231703622676
0,0123169119228183
0,0290199905290913
-0,000973323388001165
0,025348813563422
0,0487092608573106
0,0685140694135829
0,0215387160129449
0,0342248491814713
-0,0179842306027008
0,0255924930635951
0,0663478478516864
0,0275757549099239
0,0220469449238439
0,0167361795726238
0,0228346804141792
0,0171066821993331
0,0164091836875175
0,0241880380340902
-0,0203018583624175
0,0584779124871302
0,0476809633389043
0,0350352973184009
0,0185195853627332
0,0109339511913671
-0,00379741368979811
0,0466091785717062
0,0660021550340183
0,0217518780334648
0,0309771086663802
0,00580694674894221
0,0230182295115511
0,0494373050932005
0,0223490267400751
0,0208164598652879
0,0212923505062785
0,0222450550780556
0,0152915770731291
0,0186613927940298
0,0181236631635083
0,0237777191425939
0,0218998963870229
0,0232121971088798
0,0155783653283466
0,0211713766384059
0,028511921139096
0,0292195323901287
0,0240099281130316
0,0192797099994768
0,011695814138946
0,0538018737045323
0,0207031244029128
0,0290723396460127
0,0178936713207343
0,0275589737759254
0,0157785055203476
0,0245415391853184
0,0157872013840311
0,0245121067274343
-0,00745542743035397
0,0520294571980477
0,0302877271170704
0,0262429052755182
0,0096995677114481
0,0328472509908778
0,0450443759461261
0,0208341081148369
0,0287308671202867
0,0223175143240571
0,015863086366038
0,0029355291264441
0,0429210794701587
0,0256214431400309
0,0154612062020657
0,0245294210945265
0,0382570053603844
0,0224448668575449
0,0221012037365521
-0,0278565656690134
0,0785127213768277
0,0398514929623688
-0,0315401148585426
0,0855502868045053
0,0485570429780073
0,024543842500908
0,027319564235136
-0,0501931377458606
0,0849844135349036
0,0861844402195886
0,0323368374389044
0,0239866683403268
0,0417463233252069
0,0304777811751794
0,0194251825405395
0,0271331422567822
0,00734575128511231
0,0332731084182405
0,0140804538798458
0,0920089530945749
-0,000150706034740164
0,0274839834461419
0,0605824424108132
0,0210580477512662
0,0286335803009441
0,022289361100436
0,0115783227069008
0,0245881087935455
0,0401277202235938
0,0327828302378704
0,0395486210367785
-0,00094102383478967
0,0495971298743559
0,0360683692867902
0,0194128853549066
0,0202588241494426
0,0382175150184952
0,020043648773616
0,0311694436015842
0,0125804876175566
0,0329667014194326
0,0220999948506944
-0,012436372960367
0,0625018355555889
0,0516645485372666
0,00708672727575113
0,0571438289546524
0,0338836757396524
0,0244017169244592
0,0190853214122491
0,0202370536817218
0,019053038748415
0,0204856869987844
-0,00320711096677237
0,0363400225769699
0,0376415909991865
0,0242441041352744
0,0278824340761557
0,0190732108411135
0,017963045027385
0,017077955327355
0,0250671232231814
0,0205340471665077
0,0239551381836054
0,00811973245736746
0,0129437356380276
0,0647767955115413
-0,00487544188251948
0,0205570440074777
0,0794945843990917
0,0256098852295689
0,0294910665133337
0,0179840871371422
0,0301064896030169
0,0179737251903383
0,0296095140869457
0,0274482357928948
0,0190664241715241
0,037033926952064
0,0326661630630585
0,00998013059082922
0,00479274887150153
0,0316929811754813
0,103179136999107
0,0440033009296637
0,0411078145459705
0,00457125666480538
0,0227371332989848
0,0654365237909251
0,0255793978319828
0,0672359531281792
0,024119778411807
0,0338612849698354
0,0180047720425792
0,0309496097464946
0,0259499348648123
0,0340478797146015
0,0314758336780136
0,0378739249927945
0,0276379695447941
0,0336773092267271
0,0304856051324731
0,00807459284401266
0,0691642978929279
0,0551124100885552
0,0335875103497512
0,0420908436817045
0,0143987325375734
0,0285463717994631
0,0449585150421149
0,0445150595458842
0,0795255599801737
0,0274914884698128
0,0964481565161644
0,0413429089293677
0,0490330250320995
0,0307692372108526
0,0445656390328521
0,0352696187914743
0,04042774863455
0,0387714467073696
0,0387529312772491
0,0252697378484475
0,0550835578801186
0,0359453527114392
0,0493977744922272
0,0193121113109265
0,0589500604370947
0,0513544309994939
0,0472567040048264
0,0317238984329819
0,032760862235646
0,0728887342268616
0,0835910852102122
0,0701623009938847
0,0565638094187147
0,0581299560268651
0,0396113501130209
0,0643700251367487
0,043067616851056
0,0589984948889626
0,0368690907397913
0,0689219571637996
0,0790511126800721
0,0637112715452429
0,0901544400845355
0,0461414848424009
0,0699219452235942
0,0717156528356462
0,0556241325660664
0,0864534748992257
0,0816843342331307
0,057633334462997
0,0640919003978877
0,0993300731013328
0,0561810754263032
0,100166584555711
0,0691355170954228
0,0698212923647154
0,0661499352719808
0,0786038257681807
0,0646764362127522
0,078929898164979
0,0877762718091393
0,0658399722086149
0,075483077235394
0,081281742878155
0,0751449758266818
0,0860010604631394
0,0954176099533723
0,0694380711433908
0,103713704753825
0,080310717506246
0,0980648595201305
0,0767680174231599
0,0925680958581108
0,108232376127898
0,0742297576012242
0,120850653550013
0,100353950630161
0,105836202812492
0,0976569112676748
0,102061820775768
0,102059785128117
0,0969786140691193
0,100044422530376
0,111651679672053
0,106653562067279
0,108388529711919
0,110212064394748
0,10971267155038
0,123940206245025
0,115296765850985
0,119436578712509
0,1067260038364
0,123220675789077
0,11999014701934
0,125123379572679
0,148774252570686
0,128409099022183
0,162935903386673
0,134349341753116
0,13357671346532
0,134167685570422
0,145358930535968
0,13451195156971
0,146449442402527
0,147615451213176
0,147433280350142
0,152663365025996
0,142619516180441
0,144009123453191
0,150205761236855
0,161529061964949
0,167936879391774
0,170036836306011
0,155648584488706
0,156893970527023
0,167829803209917
0,158421962705005
0,176922117772683
0,172946058979604
0,178255733171103
0,181540207022724
0,180749333671968
0,170498954030764
0,179358978084752
0,185630697695473
0,185700478002209
0,18026424189713
0,187780853904679
0,190989862974242
0,195498116566498
0,187854102907545
0,181237638334666
0,198555942531559
0,195994509044948
0,205467578013285
0,206135478807196
0,213683374855923
0,210858933917596
0,211857114665658
0,224839449051661
0,216115924333436
0,224879062784713
0,222682251407554
0,229405517965905
0,222418262902113
0,228859747964143
0,22926972392727
0,229060735692028
0,235953739511891
0,232883369931352
0,227393723814975
0,238130990947255
0,248295455232773
0,243279179767893
0,251834773827553
0,248343429245954
0,260956257796062
0,257412463546282
0,252910385650674
0,262688055936304
0,258999165228913
0,263926512823394
0,263539085221834
0,262538437078034
0,26081773396625
0,269203996133764
0,274086397208118
0,2738212622673
0,269207852617656
0,282012792829506
0,277592684135855
0,284398129010272
0,295392538047233
0,297174373112367
0,284822266095336
0,28313017704652
0,302722001431625
0,311155316814512
0,305502426960491
0,303667280068505
0,303534115084748
0,31562647135444
0,32058345997946
0,315084923027371
0,318905659409362
0,331819610543289
0,313773471133823
0,321567305605311
0,31433583038542
0,315937963728995
0,322434012097814
0,331573039941066
0,330570343866803
0,3265415320342
0,329999704632782
0,344338632381345
0,342882913862368
0,357419912106048
0,3441063574057
0,335848475042882
0,334632803976484
0,346645100548074
0,351096488871784
0,364674356677554
0,371904705054846
0,357047308215616
0,364456575727498
0,367623612189981
0,372508864358423
0,377571277955685
0,367489637846891
0,371380788247344
0,373788042571005
0,381190780288426
0,383021325087506
0,372174016384082
0,382657437281953
0,389484977484696
0,378063779377501
0,390699454476497
0,38144613424124
0,395800149934184
0,385848374890247
0,392298791842166
0,406350083562823
0,406119487946559
0,413828649475334
0,410871263119607
0,406284819703892
0,407765650323504
0,409083384369622
0,416107929064314
0,392430604854262
0,407723333130182
0,408825419367406
0,40784399668734
0,407232216676658
0,40287821990493
0,420941178896915
0,430016639464944
0,422387814166969
0,428498387731696
0,425787187404808
0,43738426239608
0,433455858285057
0,441640059362284
0,451588575019169
0,448034729805954
0,440312086725549
0,443362229337758
0,438454739580925
0,436565601694198
0,448413574486662
0,442187958855814
0,439690362244577
0,448238365589042
0,448485076188748
0,457283717397296
0,46030173865366
0,45292728215531
0,440281522581304
0,4492655978464
0,462266492252739
0,468110395662363
0,453751609928593
0,449379184556897
0,45486083390933
0,449304163403619
0,462661140189369
0,465039248396395
0,480728890765998
0,466968951625325
0,447785000621735
0,460788892022548
0,468137400439678
0,471833945887736
0,477692981286372
0,478247531629326
0,474250944559521
0,485212735438244
0,479510919783145
0,488908444504823
0,486377451715958
0,487942712726913
0,478820260776857
0,477299965296127
0,483833029927821
0,497241390726195
0,483024864462222
0,486865824157648
0,481672784703521
0,493208036204508
0,475844914099669
0,484009523666678
0,498497303198678
0,477874490731407
0,480386169421369
0,504435912560762
0,496769628182884
0,491079191216792
0,503499507569416
0,498715443973091
0,489669722009158
0,496626226745712
0,479540305083505
0,487424391828006
0,484378532077984
0,491744404934432
0,500662456733486
0,510603790634603
0,505595389845128
0,503661202902156
0,503231974985704
0,507940966602751
0,512660616774432
0,503394169010716
0,502252378683915
0,49647419048805
0,503120535649889
0,504342830579752
0,498178491165026
0,505144354711949
0,506074802887653
0,508262331393559
0,497712508410657
0,499046996306798
0,503225087636223
0,496119372036138
0,497686699099546
0,504892587920902
0,504426833690123
0,506619508481442
0,50470374170385
0,505802706989915
0,499746643576489
0,514466455293469
0,494313622520332
0,495324376397487
0,496271143911634
0,496025763963078
0,500973979992839
0,502480089825801
0,498305276054269
0,496843139710256
0,506485378427424
0,502881574222101
0,495542723510186
0,500885232342218
0,503994914014427
0,499038519484441
0,492471596260932
0,506945820613513
0,499080908964721
0,504229853408711
0,501140818534559
0,498447542952533
0,498129537114532
0,492468810112483
0,486709272329033
0,494895888871593
0,492995341650585
0,492716197111034
0,49749716187968
0,496995864183852
0,490718125536626
0,485103248886696
0,479151248839476
0,486828674388921
0,491739624709185
0,489807248093347
0,487672705750897
0,493814460633306
0,484542600554101
0,483806413072658
0,480232373414398
0,486277080807368
0,478531671648794
0,48587766938878
0,481635031067763
0,477800737202321
0,478015842051749
0,472901486441287
0,466220797018901
0,475454914114866
0,475400806713955
0,476223275716435
0,46493380928073
0,469445136708288
0,471553936160764
0,474591517485118
0,484550109762515
0,472245707052032
0,478740125063895
0,47192548292311
0,468846164567662
0,469804478491783
0,458591907149319
0,465838600125465
0,46954584943524
0,459308123175889
0,454366795084472
0,46466029635024
0,45751606783218
0,455427844414733
0,452957251869565
0,456359102644127
0,449876217040169
0,450227672830294
0,453160472366884
0,443266999714852
0,44800162312118
0,45179502021768
0,445480177718212
0,434580048307708
0,433608327110671
0,436533507219268
0,447384255674973
0,442269783609185
0,44126955011904
0,44818757352638
0,440284782301148
0,443359655435998
0,435976506040072
0,428842272073342
0,430040532520874
0,424130785604191
0,428508202102652
0,430208840123698
0,420170671812547
0,422727087069374
0,421033805495868
0,417540252815904
0,425822718308338
0,423804911491053
0,418006013822897
0,415202792493738
0,410017888656383
0,404666456954024
0,407380369499515
0,408746055738333
0,397096906084364
0,401125568098416
0,407873924655706
0,403473155423971
0,397800057812572
0,400012921294276
0,402731012714129
0,406125225138962
0,39563209530022
0,393019972606573
0,395096465337523
0,390576796828131
0,385688866021299
0,379021028509495
0,388249349900693
0,402479173571538
0,389990982716665
0,373545835620434
0,374631919259871
0,379472457315305
0,376060711386521
0,372633851401753
0,378110113290855
0,365025818119823
0,372142518294731
0,367350823652362
0,369540205782901
0,360875582934936
0,359570947072124
0,366064244141201
0,36450183801899
0,356800348584929
0,351622898588578
0,355389228163087
0,350688133312347
0,343028200844752
0,347683076253284
0,347817058378443
0,350114198044371
0,34975727013392
0,348153007772186
0,338341947655758
0,343183300358774
0,342621938769734
0,333919084524152
0,342606692176675
0,342615113490204
0,328026759666972
0,326452042759163
0,320501069143969
0,327923501387278
0,321392991150265
0,316734588724858
0,318289013597568
0,318265014363987
0,315755137282385
0,317229313205133
0,309443854305065
0,299393815492919
0,308110171753473
0,309757369138078
0,313953187906267
0,311747378066172
0,302805916787208
0,299594987062538
0,301599129381288
0,298170939663705
0,293475152298025
0,293954591434601
0,292851509472876
0,28562811494003
0,287649576298685
0,290549056953939
0,281268978621285
0,281287008940921
0,287028561823891
0,282989559196661
0,273195292811586
0,272871927075636
0,274367873745083
0,272707153905391
0,268748215521352
0,275992510314267
0,270091830709365
0,27403696074402
0,262533040514836
0,27002456429348
0,26608868092481
0,262857037631585
0,262947900141056
0,257006942202868
0,258123066063547
0,256483109699165
0,249802661209872
0,254309349342301
0,250959667384632
0,24803881484922
0,249539084496593
0,241738215021385
0,246018591040312
0,247400452863272
0,249285527012474
0,238845754168709
0,238232896954155
0,238512576202713
0,235786209801271
0,237858214825122
0,231714744174068
0,232242255729705
0,230668660437049
0,227724738575084
0,226945942878063
0,220131434183805
0,221466923279497
0,222056618942843
0,21561558894488
0,216110610857904
0,216788855657581
0,221079854127201
0,217831948441153
0,214094518361769
0,21564181347911
0,215385916403967
0,203862417372607
0,206350848586144
0,202163623918673
0,202257666033867
0,205053721373769
0,205830474606998
0,199251540177708
0,194656832076938
0,198136094551453
0,196454683928877
0,194678805724962
0,197891525743779
0,197398085902863
0,190336446522115
0,188927938107238
0,190901924533777
0,183111266362796
0,182255705943027
0,182316145305207
0,184531824595845
0,180781432737125
0,183024901319594
0,177652958186824
0,179076106592105
0,17310080972349
0,176740295257831
0,174437935826331
0,178771933993254
0,17376395074384
0,176869061088612
0,170470086527485
0,172327871451301
0,173538838354549
0,170773892595315
0,166050679096225
0,167280536684957
0,163202979523779
0,166663390901498
0,166771802392084
0,163798673477272
0,161478426231346
0,166074823942444
0,156191572661568
0,157887833002421
0,159903008114089
0,158347153749997
0,154893208102323
0,156139275711099
0,154115846708045
0,151846989697085
0,151288386525823
0,151066231890771
0,150458525003678
0,147082504799384
0,149076053420088
0,146143042389197
0,143427610287529
0,144435859347627
0,142518208223563
0,145796936483965
0,140889562115538
0,139538700735226
0,137706019368211
0,138318423854006
0,139284548794992
0,134728091375713
0,139555731778387
0,141780809466671
0,131418036222055
0,133779395315902
0,131687834486811
0,131547405353077
0,130510968865081
0,129716679454851
0,125614920646487
0,129138324979744
0,127968407768183
0,132159590034063
0,125362090070311
0,126625811850615
0,124702043060985
0,126287973412404
0,12255075494237
0,126652043214356
0,124171823100708
0,126887354856151
0,122730455084208
0,1261477227533
0,118666495548635
0,115681149873843
0,114761550215459
0,118243047020062
0,115706506401475
0,120090283409935
0,114391559794901
0,110172165458955
0,110553401152193
0,113955851297521
0,114952629783384
0,11113467420938
0,111457598033869
0,108352428479579
0,107500190409359
0,108737951835805
0,106236781594091
0,108490918448671
0,108726997430456
0,106300438043118
0,104643728572261
0,107212702099759
0,108047764966101
0,104086157062473
0,103433155817883
0,0993849271970924
0,0952436720482621
0,099637890786344
0,101998200806198
0,0996517921742232
0,10028588480806
0,0989061260684368
0,0969158891650341
0,102596911464256
0,099939392195208
0,0969614634753684
0,0967300163991393
0,0974483159196594
0,0939361707779227
0,0919199727497606
0,0958440643807239
0,0949739808954961
0,0941976102379296
0,0974495383893937
0,0909235487039678
0,0913882564027782
0,0910948028279198
0,0930657740899605
0,0924166929773345
0,0962845010470547
0,0909722404312669
0,0925179936767581
0,0912830008732401
0,0905462781994039
0,0963899907789083
0,0944549209109445
0,0898516217906062
0,0909820249599999
0,094226554391911
0,0923213659138392
0,0900665830202431
0,0912132581024463
0,0905639582471068
0,0931036801023083
0,0950672254730809
0,0931736462883981
0,0904596644248781
0,0966961662903467
0,0957319234821071
0,0960840823848641
0,0941988742636646
0,0984199874200732
0,0974707778481997
0,0977689627356344
0,0949635525734347
0,0957837476406154
0,0996383792992984
0,0988601076679294
0,0981198647587488
0,0983882802747241
0,0991943330688326
0,10034932516943
0,101180818923682
0,103734698292569
0,101778230015074
0,103648015693558
0,099576036305895
0,103767833911876
0,108176669391964
0,108294259868644
0,108311230414701
0,110116341530472
0,108531563117894
0,110726314815587
0,110024747886047
0,116099827482325
0,113748978400237
0,112227766338412
0,115590889207815
0,116373129425914
0,117500135052597
0,117814980985878
0,120136953674189
0,119929361507216
0,118565472370599
0,124900518453021
0,122772801682265
0,12586783281898
0,124087662922491
0,127623843787631
0,127471903634822
0,128700420587727
0,133955196068202
0,130954113223276
0,131580727193941
0,134767660862699
0,134816376031617
0,142690230396131
0,141786655840391
0,141929265195535
0,139180476877822
0,144273512268077
0,147519408377352
0,149055422588857
0,145990210548724
0,147498535833771
0,143179537423099
0,148222335475378
0,150135287874895
0,146594520293689
0,148954260845556
0,147149245778415
0,146452489458724
0,14944690282553
0,148073935652775
0,15149918960604
0,152377174435497
0,150028268911637
0,144051562328641
0,144386676775374
0,145349028387324
0,143781498260098
0,140764797535912
0,14472040927059
0,144576292366445
0,142189816317031
0,140650622650287
0,141818422243982
0,141008676656882
0,144410541202392
0,141131381373494
0,1382922202213
0,136438519276754
0,142496098053495
0,141337337802547
0,137606696153673
0,139972626517853
0,140057113575264
0,138729703927703
0,138825298886239
0,135670168908648
0,138181853341385
0,135904405805211
0,137803936579694
0,140719236279981
0,136945434189144
0,136030601323062
0,142888673334285
0,139750905577476
0,14027830226549
0,138257591571568
0,137596862526495
0,135316007380068
0,135453858639714
0,136306589899833
0,139012060635766
0,137026274467932
0,134148972232383
0,132805613349971
0,137715500275701
0,136699830095372
0,131380005264099
0,132810782937265
0,134883895014921
0,134431082358585
0,13009805014614
0,127537686989414
0,127158801733479
0,126778625261837
0,124582124399046
0,120682615661893
0,125914567482107
0,125186107612091
0,123455031080489
0,123259762074459
0,122585293084125
0,118859605897292
0,121208643024432
0,114225407201496
0,116293153214485
0,116368319828209
0,11321269516046
0,110921182249474
0,112229874179862
0,111028861493797
0,111330589518583
0,107823384638269
0,105368548878945
0,102189513859434
0,103540817170597
0,0995179958591733
0,102510919297712
0,0997964593601722
0,101453474843317
0,0980879658129032
0,0971471056007484
0,0951815455124207
0,100463439717327
0,0980307996118336
0,0896262261316456
0,0898437070646185
0,0948925899103511
0,0911476897819004
0,0927105235213024
0,0930546460097392
0,0924723482957077
0,0925368095694347
0,0892753825588621
0,0874614850020029
0,0914169621071857
0,0861615146938441
0,0871602784803521
0,0830684434882518
0,0857478817790586
0,0840507151298412
0,0810273762837712
0,0832390536050024
0,0822059948390323
0,079054372062034
0,0831801545877128
0,0806282143011283
0,0828636275132609
0,079287196315967
0,081785533244983
0,0816442051438417
0,0804002374909331
0,078859239120689
0,0788406022718168
0,078226840497868
0,0798625473045192
0,0794013578002324
0,0757527853300366
0,0743603210659677
0,0732839642386188
0,0718423143472372
0,0749037550395075
0,0761593790296132
0,0750527406964267
0,0720865774716607
0,0728235288077316
0,0711471099829763
0,0692642136231377
0,0653704492057938
0,0707794302701135
0,0695901050462174
0,0696371367020714
0,0703790913025376
0,0718214897844779
0,0704075046353942
0,0694941024710865
0,0660172939234397
0,0680959389525483
0,0678627725285226
0,0678241542913995
0,0658589855487169
0,0686004212782098
0,0682105972994689
0,0669322101160505
0,0637525547761858
0,0664253625227151
0,0655664600557451
0,0633480888098895
0,0621220662206974
0,0663025013463779
0,0649623360596714
0,0655959639837992
0,0629746057368781
0,0632528592354725
0,0629801620873195
0,0659262774269206
0,0638092665724581
0,0637958703498722
0,0619929394632986
0,0623717002336439
0,0602932459582068
0,0616146381259049
0,0593853343547467
0,0633317128392133
0,0615801230933265
0,0613997314026689
0,0601526423029368
0,0635946572054503
0,06137760535642
0,0618714188275328
0,0594371522427387
0,061108842416554
0,062698583913644
0,0598785338735719
0,0604489148022169
0,0629970675439996
0,0588154107575328
0,062213106880361
0,0572170317279321
0,0561002997044468
0,0599085297470322
0,0614028605826079
0,056233719700889
0,0587567258177041
0,0554208720703947
0,0570575476347348
0,0576370633778149
0,0585016861806666
0,0556084175356564
0,0556030640551356
0,0535297372257511
0,0595164101968161
0,0560828716822453
0,0562805332511836
0,0597788202931775
0,0549744537697982
0,0526386991170317
0,0541608002036813
0,0534397197943583
0,0567617663075238
0,0571797133424224
0,0545203364843874
0,0548986273108636
0,0553969977638895
0,0535881236651258
0,0559006355138814
0,0557020551478124
0,053683908128882
0,053405796264207
0,0537936665194131
0,0495053826718896
0,0575787926624164
0,0574002556994358
0,0544390224162981
0,0505072689689814
0,0521675283605304
0,0526808187797764
0,0545654604273374
0,0538616454458278
0,0528535143729325
0,0506174682203129
0,0515581646886497
0,0513796275856616
0,0557893586650007
0,0540258678634537
0,0501837040484633
0,0498893649570029
0,0567989587309803
0,055212439976944
0,0564148301522697
0,054635378691511
0,0508294404715508
0,0495293749247208
0,0521148393404141
0,0525981901013076
0,052761444736004
0,0532432911655479
0,0545095850335196
0,0512489206767398
0,0510721916398584
0,0481118904799693
0,0504148755332864
0,0503181848529818
0,0514073122993825
0,0491196967181741
0,0488397207177519
0,0500504589718779
0,050780844730471
0,0488511056396743
0,0495254348256457
0,0492857473913795
0,0488545913637728
0,0459295694412152
0,048816368900553
0,0493123351835302
0,0477054669997823
0,0484274980553466
0,0486984623162936
0,0455094768742595
0,0451897119631448
0,0443191264522652
0,0477784657148941
0,0450904694753377
0,0445113363012508
0,0455252547735293
0,0473745401588236
0,0442328285101701
0,046155940470333
0,0464597218179704
0,0440313187643373
0,042565118333338
0,0422437055597545
0,043503435790754
0,0452740165443065
0,0450294108723882
0,0464373412631637
0,0447307014642469
0,0445433236699575
0,0429832275527244
0,0486440975287879
0,0429993673500988
0,0435658841222193
0,041724793395059
0,0446653510954968
0,0450565154648593
0,0405532875760034
0,0412076480921352
0,0460097012798641
0,0417409084126367
0,0429106322850072
0,0428977240795071
0,0426323237248936
0,0384338036586985
0,0392026125916341
0,0379032404393412
0,0398623099181863
0,0412792251545452
0,0425721513734464
0,0402449243642105
0,0377103227071905
0,0392961951308455
0,041754520171022
0,0409718019333923
0,037722114473002
0,036190617378869
0,0422068561766683
0,0387386720804616
0,0376119157960706
0,0360728707943581
0,0370322586677627
0,0372562945983585
0,0380628971932429
0,0334562193202681
0,0366614829973287
0,0381939801853136
0,0364194155463788
0,0353104498559755
0,0377436557144579
0,0350335877180394
0,0328064513030317
0,0325826145383748
0,0357832230987234
0,0363549337845143
0,0345063866796978
0,0343148140166495
0,0336425120293281
0,0346675266604969
0,0383946471347273
0,0359615521136403
0,03345429311686
0,0298143628141058
0,0303423959409492
0,0292386006153403
0,0326298304349728
0,0320841729857399
0,0332823418617178
0,0314496153891958
0,0318218266160706
0,031788174845533
0,0334131882933406
0,0319896449226964
0,0327542103564074
0,0327630408778077
0,0338801391860562
0,0307385459737644
0,0313206836241281
0,0312082755475901
0,0329292093463783
0,0338145646733507
0,0338534930597674
0,0297572584936524
0,0319383398222812
0,0323922320707541
0,0293806850546029
0,0305522143664418
0,0313548649096933
0,0293591314816651
0,0315958398191228
0,031548059659445
0,0325512628211764
0,0295307153052562
0,0316034123482823
0,0305003965143235
0,0297468797016679
0,0280891229738734
0,0308059406396988
0,0293287317129468
0,0312742658989589
0,0297146599038417
0,0283660209818612
0,0262844916517685
0,0272390133509696
0,0289377718840518
0,0302886107338672
0,0295450324832389
0,0278572354844671
0,0245095722073455
0,0291337937324657
0,0243976827221586
0,0265228109488726
0,0285757423812168
0,0301740103751711
0,0292418430801203
0,0280959288962805
0,0278297210885102
0,0277665070394978
0,0264777216550085
0,0260101939386307
0,0273540534455655
0,0280270924356223
0,0283152501743116
0,0271196749981498
0,0262351933808485
0,0265255565286968
0,0258669335465711
0,0262873907821649
0,0249552318285466
0,0292182407791745
0,0258971219007793
0,0282255049699371
0,0276717770053836
0,0267208929851802
0,025592737214236
0,0267168859068878
0,0270690272324473
0,0286169294641602
0,0271847479956461
0,0279356287463238
0,0276817440513938
0,0291539019517821
0,0266719400759866
0,0252443565955256
0,0249479412409973
0,0294358195173172
0,0258097404891863
0,0272958656566695
0,026451418458551
0,0262945660942456
0,02432691067155
0,0280997396947359
0,0268280163572174
0,0259728797368295
0,024314500039078
0,024816354083608
0,0264340017620097
0,0242880588773069
0,0233831032055435
0,024471360139605
0,0256075312127771
0,0244344846375247
0,0242225445628912
0,0255212065901103
0,0245164578495255
0,0245824832837387
0,0246672796150189
0,0261494521256348
0,0223564319327869
0,0249813625412454
0,0254149751105856
0,0237602575257487
0,020862723129671
0,023581800963118
0,0222399734059652
0,0200865857044892
0,0211367198722421
0,0226418845343227
0,0216795235097274
0,0234221682487163
0,0222449306850286
0,0228588076882334
0,0244651283294632
0,0246845528961151
0,0229099862135612
0,0246241712168136
0,0234569384088398
0,0201840476481572
0,0215323521305597
0,0234875575664262
0,0206922312180406
0,0237741645785685
0,0226079321479305
0,0249913517681363
0,0228149197347535
0,024434983562678
0,0226602138602708
0,0234870251216191
0,0222616154092296
0,0235164616794749
0,0246613300280255
0,0221235948944722
0,021324107912796
0,0237558411071586
0,0225809737057465
0,0225734283306297
0,0215831986898626
0,0237370133895708
0,0198048646456123
0,0194203541653392
0,0219922319340049
0,0222220103981515
0,0210434858557993
0,0199042916267723
0,0210961976214007
0,0235053883642691
0,0211287406027896
0,02176795864546
0,0200718155328409
0,0215301393821943
0,0220155669918972
0,0218771343559065
0,0216543136089891
0,0193050121103132
0,0176176495170134
0,0218116048256284
0,0213485626039515
0,0198398118321145
0,0190702521638859
0,0203985006420327
0,018871522270859
0,0183610418658001
0,0158711778013712
0,0178653277716905
0,0172510856640456
0,0192826158823477
0,0184564001939257
0,0167960065536577
0,0181513343546648
0,0173350019720732
0,0184658950577713
0,0198219947827267
0,0196958126396186
0,0225432824782519
0,0181229596781143
0,0182053273466557
0,0186050223901532
0,0171538284122594
0,0176518232722336
0,0178956473532021
0,0187477394189583
0,0176241002875764
0,0166393470477044
0,0176959727630422
0,0161390889422871
0,019740355972587
0,0181401818020281
0,0176281296767742
0,0180983161534301
0,0180345163361213
0,0168737651572549
0,017084046569618
0,0153210255682669
0,0163334883134178
0,0163977528267173
0,0169744313699588
0,0167947567162625
0,0177226830955103
0,0165633292129015
0,0169210849243966
0,0173997947804663
0,0153923634957212
0,0163132505470184
0,0186539717212386
0,0180039666993925
0,0186136651891453
0,0168574191452375
0,0183931535289171
0,0148936998117816
0,0155320309741617
0,0152453836503649
0,0144947793606507
0,0139007944908686
0,0141000025068076
0,0154234952191638
0,0157610003675272
0,0145176133589436
0,0167886817739942
0,0167951115416357
0,0157485893927742
0,0122228083448287
0,015457802776286
0,0146990829770502
0,0141826511398395
0,0128529852319394
0,0144279243595049
0,0153120814248094
0,013472438462794
0,0143532692322515
0,0136749082505558
0,0118665054085386
0,0146707581070552
0,0149680034018726
0,0143898879383309
0,0131433567960978
0,0131627921546355
0,0139928799395662
0,0133010057818114
0,011699989236366
0,0150281944829389
0,0142381241059002
0,0122161878247745
0,0129224423224195
0,0152013436938325
0,0124873880121197
0,0132943475787295
0,0135915173352769
0,0150388904745804
0,0132915328455287
0,0134516014634408
0,0139466816108392
0,01424618180629
0,0104945101555841
0,0120541926042171
0,0146630803814406
0,0152622253456576
0,00940298600316007
0,0081464397217051
0,00422347750226391
0,00944702657819695
0,0148233264182908
0,0201568599324939
0,0127161988226051
0,000355536104907397
0,00400389175455332
0,0166489160689906
0,0152538474634626
0,0103965867710397
0,0133599197283628
0,012570592679498
0,0105735287310364
0,0152394886101373
0,0106180817515337
0,010002550138415
0,00800565640222906
0,0137891375695406
0,0111881532243934
0,015634263901457
0,0177432928463907
0,0169059085769346
0,0115725503847513
0,0122795216714913
0,0110373142720017
0,00777316540336549
0,0113342887177253
0,0107614915414833
0,0115982555253783
0,0153080031573377
0,0107988370043642
0,012136846664833
0,0134581938727353
0,0123328443454004
0,0167525441781596
0,0101548474616333
0,00819628007252647
0,00544955906151593
0,00381863463137198
0,00578900517421791
0,015080867375548
0,0121909951285919
0,0174648053350179
0,00515940628758457
0,00774022530726057
0,0102013035049803
0,0222293308020013
0,00995078267163645
0,0111870438959728
0,00292132179258783
0,022272146625633
0,0132050281373856
0,01487120625253
0,00729174647334343
0,0191674577615644
0,0173811354384224
0,0101330771111087
0,0100767883729856
0,0172599474505964
0,013409342320436
0,0118575796421684
0,0176467858416223
0,0112804250021817
0,0139731829129406
0,0147010927580431
0,0129640201456562
0,0122311967104537
0,0137682056056502
0,014623306878785
0,0112059206299586
0,0110713520399435
0,0138648931890701
0,0135336265341967
0,0102594812687668
0,0122638847044539
0,0127983911791571
0,0116806411456026
0,0108199465040557
0,0087096730604437
0,00972455052094341
0,0109330205120676
0,010338403194117
0,00976053988256052
0,0116329146141325
0,00937928869542006
0,0109224349590704
0,0121698819980922
0,0118334456223557
0,0125035915744758
0,0115657044926565
0,0109499458220552
0,00988591435540284
0,00946648584732306
0,00981383810684172
0,00890014402655429
0,0116767424033432
0,0136224328127891
0,0111141541565535
0,0108677331869114
0,0120365991883019
0,0097874064764718
0,00888230506135259
0,00951308393756468
0,0115471770373205
0,0102614776795181
0,0118838698580289
0,0121296738929734
0,0106938530303482
0,00934559435198835
0,0112049252134543
0,0114711857690588
0,0118349157758274
0,0124514784158526
0,0102927817857231
0,00977464590302552
0,0131169556456094
0,0117257444399093
0,0100700147122736
0,00746252935471202
0,0106080944993034
0,0096642429940021
0,0112648032472794
0,0125223894214433
0,0133770318664621
0,00981261485429583
0,010768110208737
0,0106360584439315
0,00987452429235751
0,0109208714831148
0,0110003106309676
0,0107928324625706
0,011804377953055
0,00861640028580131
0,0118844295316829
0,0124209595755694
0,0110289641290341
0,00880815588352276
0,0114056739594399
0,0109815241370517
0,00855911266114948
0,0108177715941693
0,0100751173462688
0,00940770718571302
0,0101547752414574
0,0109908127847935
0,0097370043808437
0,0106337608137527
0,0132280040927082
0,00961633573196083
0,00989440949756657
0,00918703542030399
0,0102345272300143
0,0106051698194606
0,0101482679728906
0,00829539952231255
0,0114791377900772
0,0120960859560142
0,00954209208555708
0,010658534371406
0,0100539593666678
0,00899079420586322
0,0114626185565812
0,00943800413230396
0,0115420562591367
0,0106375603414865
0,0110789419534215
0,0120262874802766
0,0106809027357096
0,008463263612608
0,0112643294787681
0,0104526262420632
0,0109064694975906
0,00951390273314771
0,01143491128525
0,0124140338606352
0,0110127438724127
0,0115644682194954
0,0130432429836709
0,0101475901980532
0,0123301022953895
0,011930892281276
0,0107076067975315
0,0114852998995166
0,0122819519830584
0,0119795494067375
0,010289366729156
0,00870337198734218
0,0116851152116433
0,0129124958721259
0,0111312204821844
0,0090899849206072
0,0107736311383901
0,0120037340975198
0,0117193697098309
0,00973898906868343
0,0114267002146792
0,0105946177695289
0,0126003397503507
0,0113983056299192
0,0124729177507045
0,0114814364759785
0,00997035582252183
0,0101565834699577
0,0101659480035419
0,00899128376415387
0,0116772636402612
0,0120040678735027
0,009494105767922
0,0107966835768429
0,0130334899841134
0,0116647727338086
0,012035598988158
0,0110394180573245
0,010542151532385
0,0104816506548818
0,0131472408007688
0,0106690903901366
0,0104539224463713
0,0112756682735009
0,0114168287268288
0,0112080247997185
0,0124259027486601
0,0110325196604495
0,0107344982568259
0,00990592902751073
0,0100952766152624
0,0119878494626673
0,0125689924316076
0,0115299286401884
0,0129499212364769
0,00859428683012164
0,0126958947561772
0,0152894160745784
0,0138480505084351
0,0106735990687528
0,0111720400081425
0,0119003040950491
0,0117112844677976
0,0123886305601627
0,0127635671961393
0,0112806160222625
0,0119285851140628
0,00992949327144481
0,00974305993371332
0,0126379696450254
0,0123863155820042
0,0107511290122001
0,0131678294264861
0,0103746284605759
0,0108387029106516
0,0127596215394458
0,0124312017635274
0,00940899536895556
0,0105990443712959
0,00967011484795283
0,010878833277102
0,0131144975610362
0,0121406057154329
0,00817724350257092
0,0113867707237282
0,0122208857488274
0,0129334983785054
0,0112374802377944
0,0114700801067438
0,0113540552418554
0,0106999572382978
0,0105038765916449
0,0105522975134152
0,0102495355340827
0,00988171664864026
0,00954514535510838
0,0084595452708331
0,00794790167761755
0,0112655936110097
0,0103476176824026
0,0119356489380438
0,011648560572744
0,0121286296490545
0,010998787406433
0,0124229849902495
0,0119480176307732
0,012777014143169
0,011831759309863
0,013885350062558
0,0119706961106101
0,0113001376570258
0,013464084476204
0,0105083638122045
0,00893780766658849
0,0119734863735962
0,00975457439786469
0,0111869211186203
0,00970519177597019
0,0106493361700013
0,0117479675760446
0,0117046640021381
0,0102885690256085
0,0115137209091767
0,0115647741740944
0,0111869788625899
0,00991924758071355
0,0114971045462203
0,00890272132056432
0,0112573582456185
0,012809733479171
0,0095841299043371
0,0118826658793526
0,0105303461384872
0,00891979628216089
0,0103149637621141
0,00986196855665215
0,0122042108310486
0,0117111465587358
0,0121023742022965
0,00947481888333966
0,0098497181308506
0,010529594361174
0,00998979695100937
0,0094436714799229
0,0110544637401776
0,0103411361495404
0,00873475328985111
0,00964172294282263
0,0112439092028699
0,00933762948783813
0,00992467423553153
0,00947743082976753
0,0107131512711689
0,0124207064807537
0,0116296961924571
0,00739010610858468
0,0104363133133021
0,0102043902893954
0,0113163999386361
0,0105622353886966
0,00977322949020528
0,0116981952790534
0,0103390406016154
0,00874796457953158
0,0113199569424729
0,00675165742560243
0,00622878976514873
0,00958250511955376
0,010500143880837
0,0108477504053917
0,0107258697807614
0,00780380935935346
0,00902853496969641
0,00835729432568191
0,00880056626177191
0,00975994486517907
0,0122081643133578
0,0109943597165107
0,0131918869457355
0,0131709697013895
0,00886372867465899
0,010180047719667
0,0111368289707058
0,0102743429899076
0,0121039902252366
0,0108523422184133
0,00982937176586171
0,00792962059538291
0,00945355439685189
0,0090897432462514
0,00802290499428892
0,00858126918554528
0,00944636659022898
0,00998060455150219
0,0099539479826695
0,00855455671948744
0,00901165556514321
0,00991441589961994
0,00902944452923211
0,00773291064585447
0,00854325922981557
0,00847724292258772
0,00947489515433917
0,00812565832220584
0,0101653626125531
0,00894980041572499
0,010995301811127
0,00749452316168781
0,00936494126384283
0,00778694479853052
0,00829986008507071
0,0101555405791271
0,0106215481803186
0,0102161596498708
0,0101256064597362
0,00592474152574711
0,00847881531539053
0,00768615934301348
0,00959243402572475
0,00857145295150056
0,00679655166974724
0,00697496754715584
0,00884753699861518
0,00851892300655029
0,00990875920100846
0,00786027303240708
0,0108633469113415
0,00633148391943874
0,00883664994684675
0,00589655513512252
0,0134737949459344
0,0133290516066228
0,0104176622885244
0,0071488526053666
0,0102425604489898
0,00862411551947334
0,00916997898585979
0,00703158124938267
0,00795236157498319
0,00804548547331831
0,00732114454212509
0,00733552434304046
0,00864344994065554
0,00958516359839887
0,0107195174717268
0,00870546362233704
0,00838299453203164
0,00845273422517631
0,00899979486609841
0,00670155921985488
0,00844640929673782
0,00900568793823252
0,00739039614320157
0,00433949760500165
0,00915695754398171
0,00615858559546497
0,00624453460749342
0,0102670520060212
0,0120243010028646
0,0105864613181501
0,0116921269854272
0,00725877751494036
0,00492032883234553
0,011201534714006
0,00869738399572181
0,0071637395362216
0,00687340513096557
0,0072680991008491
0,00664086463269598
0,00572613772404814
0,00889062935508245
0,00810664337458596
0,0060725661673225
0,00703893307840284
0,00756831821903391
0,00589616425810295
0,00441148547809755
0,00522041909681714
0,00711124357116635
0,00808702481298255
0,00528687384606555
0,0119052382438487
0,00583706437529985
0,00940979749133615
0,0135662693986512
0,0094182998387981
0,00697327197180224
0,00594492338801976
0,00837720804037539
0,00747441728803014
0,00596020910302507
0,00821845517781835
0,00751772859180573
0,00457905345035532
0,00736125034157474
0,00672654290594905
0,00746453677451938
0,00863372388549866
0,00976067159175785
0,00635658264896394
0,00819809044361941
0,00913278066453759
0,00876615360034872
0,00627168036995637
0,00637514984059298
0,0142186307659218
0,0113701899919477
0,00931437696890787
0,00754315622774882
0,00326821868144217
0,0174727186477202
0,0117803295653912
0,0113699474170211
0,00610229882813546
0,0106909528589457
0,00365374398570296
0,0106643232055262
0,00457562160830734
0,0094785624393565
0,00955487858626933
0,0119094382199536
0,00713895828828756
0,00805617891964809
0,00525249881550874
0,00718875880364165
0,00682400300862568
0,00763493290198225
0,00663522004119347
0,00933258306997628
0,00659479943483681
0,00850065397027115
0,0049690783871662
0,00937661311980791
0,00251830831620806
0,0089856464347626
0,00854975596478453
0,00695342692702361
0,0043901286906977
0,011912355963212
5,43385987923652E-06
0,009315783269324
0,010819036624561
0,0118757424318208
0,00479540764335889
0,00692359039377404
0,00912308147059347
0,00869061060824193
0,00735248414780193
0,00517974137463436
0,0067231101328186
0,00653557898593838
0,0046979105137432
0,00844050885903205
0,00669005659920317
0,00373418863314054
0,00768430380004205
0,00815418129778971
0,00720639155931826
0,00521270324250141
0,00789087928338333
0,0082031117986575
0,00306192287009671
0,0193076755952913
0,0145823061715456
0,0199554229840085
0,0121602407635921
0,0122802865192721
0,00581573524546246
0,00870388994164341
0,00599577518818313
0,0101302044522575
0,00583139725283601
0,00732431399037688
0,0030899652580714
0,0111381791540377
0,00730010579946969
0,00719350288114864
0,00328750562535335
0,00952304242833233
0,00509911775933469
0,00772394119069254
0,00508626244649315
0,00775625503532653
0,00466966348103122
0,00438970605842921
0,00945749042035547
0,0123529328073989
0,00837189185760096
-0,0034226050655268
0,0205432142495203
0,0173389728468922
0,0175881835783447
0,00743258029212606
0,0110983141482711
0,00749200649570804
0,0083853580962236
0,0065921091958857
0,00989197189158438
0,00697643985533196
0,00637812578043297
0,00570527785366289
0,00990025582722446
0,0109187040189793
0,0018885623724712
0,00877234016321904
0,0219334194279747
0,0168255544738023
0,0147305824371707
-0,000342436432233129
0,0130825192979763
0,0218627739946491
0,012537667372404
0,00736696547193814
0,00803917410368429
0,010249034321632
0,00834194955315967
0,00947561066912707
0,00761665206273171
0,0130585049966454
0,00676574702024733
0,0102224824579052
0,00469002891802295
0,00960538995146153
0,00844598151358089
0,0062060328105106
0,00771229171738446
0,015796671114838
0,0102570008926125
0,0102849393463863
0,00863021436826323
0,00882124415292201
0,00755608004392546
0,0114938863964933
0,00233924758962531
0,0104254252648376
0,0113778891764406
0,0103950853693513
0,0126626949477009
0,0166534542273729
0,0107746359533758
0,00996243299326834
0,00907383404355407
0,0201202842180953
-0,00230425119515827
0,0151448792563722
0,00936448258421531
0,0303787463466592
0,0126875494201769
0,0160902807323417
0,00616116535197101
0,0148164644043073
0,00690042991726656
0,00598591197507565
0,0159324468168121
0,0130446696540626
0,0138390784975346
0,00281402250762618
0,0138804604593469
0,00956979753679636
0,0172078649259518
0,00784615287810378
0,00953629153835596
0,00237793820652694
0,0244211658711428
0,0069805370871373
0,00669066376668153
0,016925268259111
0,0182694108445317
0,0321657918080349
0,010947217240461
0,0119343413960757
0,0156633941964236
0,0149866714888107
0,0147653040241279
0,00744262005525734
0,0185581940566502
0,00313898075930299
0,00986728176499269
0,0336205602649494
0,0187178631053148
0,014673588015806
0,00812134035989258
0,0112712841502029
0,0249510448738829
0,0186685795798621
0,0114997239043443
0,0114295949772152
0,0111567656565041
-0,00109044319003432
0,0368713868884475
0,0167852877039276
0,0278393562112422
0,0129260787613596
0,0293499152192945
0,0104140238078888
0,0237516584637226
0,0065180711121499
0,0230006557684481
0,0237715150906063
0,0243322075709886
-0,00127667614865298
0,0240174289310574
0,0221689316724226
0,0222295161932809
0,0149514701444539
0,0155275332395251
0,000971979389478856
0,0164683751733504
0,0443606909630268
0,0402288878896115
0,013935141031162
0,0185080372562325
0,0237421944865285
0,0222853460881561
0,0173139185595704
0,0136976097942618
0,014150270515365
0,0122525193372505
0,013954672946129
0,0206252075160819
0,0143750875605783
0,0228560319015429
0,0131874272133321
0,0175907081631076
0,0109220638184929
0,051798093375913
0,0310797910578718
0,0299375305424741
0,0241968443068192
0,0318467900117166
0,0308125545002715
0,0200885481430908
0,0207002029040112
0,0209718122265962
0,0262868209762137
0,021556333408881
0,0168318106886789
0,0320240743680986
0,0184020621474627
0,0451446049821223
0,0300206295791218
0,0401191195470151
0,010125713269178
0,0196560393275991
0,0876459341219172
0,0546111455748039
0,0489064050598736
0,0163567727756325
0,0447718218558603
0,0501739975404189
0,0569983807988734
0,034010870981077
0,0406705629156007
0,0354721621890422
0,0470881868866748
0,0447692958038463
0,0472919545813337
0,0507004386569107
0,0497333302181285
0,0338919799941325
0,0485607258016666
0,0635696707048048
0,10364408153507
0,0645042326570092
0,0602273958317042
0,0559990309267446
0,0696090146682716
0,0563432845564739
0,0695172848092036
0,0426726081866207
0,0824562516584328
0,0693589179511262
0,0901763735928957
0,0590738919528905
0,0769367821011969
0,0678530994842534
0,0745944074111882
0,0928908692683049
0,0874650612405433
0,0966344753115629
0,0708902371408965
0,0898504079085801
0,0742514959868642
0,0837665283201617
0,0862548724636059
0,0969307049518599
0,0961666533776436
0,08413701429266
0,0938431171064112
0,0872513093038238
0,0997473256987591
0,0889232381703656
0,0926476345275772
0,0852308762894333
0,0835264064297792
0,190236966833803
0,114257758773739
0,114914119672845
0,0878833552170808
0,0995138094966938
0,102044338024663
0,103712611517798
0,125810394540171
0,115204105600628
0,112304032974169
0,0889073003550661
0,0972418985090636
0,0912378025400193
0,101734735785973
0,0943173652536344
0,0925766645637185
0,106311804389539
0,0758652349641849
0,119876879852276
0,110348473505029
0,113892379335439
0,0840814323576748
0,097440252234387
0,0851829934549376
0,0966044975408082
0,0782916139966324
0,0989169225223548
0,084806941485374
0,0958769434187886
0,0811212805378762
0,0800841751152594
0,0883602572170861
0,0924354328985962
0,0909049592599749
0,0797410136028718
0,0768835811645276
0,0812846526345067
0,0605309594928838
0,0826188156338863
0,0937128099951733
0,0882689009815956
0,0684352253394551
0,0750650288110534
0,0698265036949277
0,071481348535196
0,0686061573449979
0,0802269014191161
0,0697265180062479
0,0706260662455703
0,0674205204823196
0,069191959290489
0,0639636629728387
0,0666408127083263
0,0709157218989922
0,0651693569815102
0,0686856874960195
0,0638796061280224
0,0696379523697236
0,0622081939804678
0,0624963845774647
0,0666607568385864
0,0666558580513125
0,065900372826082
0,0667186107188983
0,0634400330359994
0,0633824839377749
0,0623895140143662
0,0681308673705931
0,0651993724173515
0,0665304589685767
0,0614646258088528
0,0660327909158635
0,0626857197021821
0,0685183193161264
0,062964049464305
0,0668372848767879
0,0614849828223022
0,0676444936129933
0,0581774899713815
0,0711134897963209
0,0582832751645843
0,0511953013662235
0,0866876312517765
0,0726445055085602
0,0741987260796224
0,0525019598500952
0,0710072879509444
0,0536662789435219
0,0574498952493119
0,0707216808839637
0,0768034550917797
0,0684781193300267
0,0610651902303302
0,0549508068666403
0,071025261543192
0,0596657158410019
0,0681168192190573
0,0556295496292678
0,0448884592211713
0,0731017247345381
0,0601428464762114
0,122302586347212
0,096120041546078
0,0962575649058851
0,0438821668466889
0,0831222311566983
0,0655664861718246
0,0751483735461937
0,0509112304981918
0,0559499664760152
0,0678395002689722
0,0624925589690606
0,0651898944573113
0,055679216910188
0,0511069368580423
0,0622898207510031
0,0746891355565975
0,0591140981015596
0,0759777859867486
0,065347827374276
0,0637724738269281
0,0612866607580605
0,113746319087417
0,0819109073006945
0,0601135542877436
0,059640153835738
0,041781711288549
0,0660766969166573
0,064060502217052
0,0657336139514904
0,0673087496144086
0,0487771626094641
0,0551373127657302
0,0445281831187878
0,0773240659497628
0,0416160013063171
0,0667683418798542
0,0588884743612495
0,056985149193623
0,0470845368451772
0,049852246671845
0,0802136798085541
0,0734177302057888
0,0672957952791787
0,0366188171799517
0,0729620332220722
0,0623089707511988
0,0684737085278159
0,0552363243473636
0,0428958217154822
0,0509905227140646
0,0574525329963078
0,0506214288541926
0,0541885573811808
0,048880709792784
0,0652161291934847
0,0477006925458668
0,0837804323563612
0,0815233864575443
0,0597288275607898
0,0493620706401208
0,0402346332478741
0,0495558411258252
0,0457408759927963
0,0337970159054501
0,0673452920576472
0,0383094752713805
0,0612969905189759
0,0500157572831936
0,0581865542054724
0,0444684064698724
0,0462566458696803
0,0437172955007598
0,0493688665842777
0,0515063476064544
0,0838462410834685
0,0478895099655465
0,0622069789382659
0,049401539774853
0,0636975526116125
0,046745865233901
0,0601864019631647
0,0477769924415062
0,0598006316547665
0,0554189087089045
0,0661249637825589
0,0572656653964768
0,0683926628165606
0,049034323296176
0,0919190778247463
0,0648907574308432
0,0785025409757692
0,0623646130683168
0,0856912022341174
0,0931995143103583
0,0855562383338056
0,0867883117643278
0,0774347994164817
0,0814985123530344
0,0885373334103473
0,0727538154892277
0,0962775816110173
0,0915131466905903
0,100832571430685
0,0813693713158926
0,0923139475528858
0,0858827345913686
0,0928841487132501
0,101032983156846
0,0943416134427785
0,135849261321299
0,105531342273395
0,125951646905395
0,0925745205014745
0,102180681678834
0,100382333870551
0,102463370659917
0,10259716848823
0,0923258510672029
0,104887551281668
0,110783509708483
0,107549608313888
0,105282046781401
0,10262996322366
0,10429502901338
0,104774356309054
0,104576220807208
0,107464018937547
0,104390728470547
0,114596787810486
0,0947299638816397
0,113718288212801
0,136851487176778
0,125727976081823
0,115455553124664
0,107704916334347
0,12252871583317
0,109176076041505
0,114495220874415
0,116558269220024
0,120667272616028
0,122556189011256
0,114925449245569
0,120586303526486
0,111607235268908
0,131145515848
0,12605622043201
0,125913750340218
0,125243280945365
0,103788162510986
0,145762546356621
0,12327798853242
0,146519639562766
0,121975292333095
0,138297325332946
0,119867609644191
0,129580589341977
0,122898134288473
0,128455139463426
0,125115338225029
0,129867905517975
0,125225060488694
0,122602926863263
0,128528822968478
0,120176009192129
0,128042730653556
0,134465306869237
0,128908982519072
0,12117517479225
0,123692728200059
0,12250626439273
0,116744267110064
0,132683544465336
0,123722827953237
0,133320205034605
0,114190279748177
0,128755711502395
0,136034546059713
0,130475093559999
0,119154203612635
0,123193261538665
0,115848247416158
0,124719112457993
0,10978388588084
0,128603237323397
0,119673367445497
0,132661646323539
0,120279423155201
0,129150522996158
0,116247637727606
0,127143044207031
0,121071178292129
0,12503459378818
0,124711246729158
0,130306314633004
0,132082003494928
0,127482109055531
0,127496563670481
0,12799380240162
0,134108484686442
0,138793000617466
0,128808107365097
0,13203725501568
0,123969235137207
0,133673878631211
0,131344965304507
0,131173374984705
0,119619723229513
0,135364660515399
0,113773460606965
0,132534989615463
0,129102480601322
0,128365845721298
0,128006819640262
0,119148382067902
0,122252969449941
0,116721440933692
0,119726835966689
0,112830085617054
0,1150504117623
0,11757434483178
0,114137392738589
0,112363671263981
0,112904346010976
0,110278249649691
0,113053920516307
0,113331971190492
0,110920690644798
0,113645425407256
0,110014259040262
0,111520883904667
0,106077329485227
0,110906251140788
0,111433740197287
0,110784324667694
0,113434897638492
0,116041136914987
0,118702255803716
0,109429323326012
0,117556408923479
0,107541269761182
0,112174354196363
0,103796323800429
0,108469424393347
0,104734239065517
0,110453831687333
0,105316445420252
0,107389338462372
0,104631259455148
0,106534586321483
0,103625607480533
0,106151305381498
0,101981472953356
0,103259110996891
0,0998771127232325
0,103604507417851
0,10311605418983
0,102397636080475
0,107906751205442
0,100955637110277
0,104613896421297
0,104574430363193
0,104174789777341
0,0992151101315501
0,10029078038988
0,100499039277371
0,100520875974014
0,100055466548271
0,100366827614252
0,0994435221706637
0,0980445812350922
0,0986299912440563
0,0973071819778704
0,0983084750975589
0,0986092511371657
0,0976234108768768
0,0974541679092003
0,0970899564189788
0,0941626737461695
0,0937428530533098
0,0943307556861487
0,0905363594936562
0,0932580488885006
0,0910098225326888
0,0910491845728757
0,0887809713628814
0,0872447382277286
0,0857513018413868
0,0855969342567981
0,0853422470767736
0,0837025965250144
0,0869345315508541
0,0856138228124878
0,0845319093955626
0,0846853993590755
0,0837695446028317
0,0838793969141705
0,0834618846460611
0,083801077030035
0,0840886691077902
0,0839285590871351
0,083572229855127
0,0841450152894881
0,0829527843191901
0,0846761509111866
0,083112457879445
0,0848090782473406
0,0843598137576656
0,0840619745934645
0,084668925294862
0,0879771869260439
0,0836340772274462
0,0861370980028645
0,0866750265726356
0,0874294513125209
0,0849390323300934
0,0884902925439878
0,0851098176042932
0,0861628511289359
0,086404520138458
0,0875211310808265
0,0899094107571307
0,0919237765155515
0,0890058887166888
0,088145195659175
0,0921303054738967
0,0883747724815219
0,0896097537443548
0,0897374251317957
0,0902934374781893
0,0882434282971261
0,089327224299114
0,0895141318075246
0,0883165560055813
0,0875979822627782
0,086938573140639
0,0902801650013362
0,0884563053627422
0,0886670465533421
0,0879880370261319
0,0882767404134413
0,0861037780333121
0,0860325060122377
0,0871914475624782
0,0838089358346412
0,0831957562228829
0,0866673948075355
0,0852292521410673
0,0847986677298516
0,0832003909675908
0,0846302707311661
0,0826611947167419
0,082579076647925
0,0831245807262486
0,0826066110106504
0,081815313634973
0,0801343682792677
0,0796506952961518
0,0803585982782849
0,0781094827282482
0,0797431091216946
0,0789899945641735
0,0778906530625626
0,0781535475329899
0,0771252712108444
0,0758858377717632
0,075428589285711
0,0758250094483921
0,0736190776680739
0,0744536592374801
0,0746990315238242
0,0725621055481189
0,0743275104355343
0,0737382498105394
0,0734072833401291
0,0727269354171339
0,0723604410071266
0,0726014429472515
0,0719239473959833
0,0719779803165737
0,0732023719038023
0,0726724505856855
0,0723335559197215
0,0721162463108358
0,0745417478645157
0,0738386080092482
0,073005693765069
0,0715308818351745
0,0707164116575045
0,0695876485368968
0,0687160684631649
0,0697394250588519
0,0677155252427047
0,0678775716403398
0,0663226879360566
0,0652049327159002
0,0648252015241373
0,0625651252635568
0,0647199002619953
0,0646630922219389
0,0609628718996538
0,0633451321132466
0,06326894660765
0,0640451226489424
0,0667674931782169
0,0656640567892894
0,0674457227808357
0,0712233638187783
0,0724730915097042
0,0765359798214633
0,0802382082628579
0,0834675919993724
0,0879121145077634
0,0929995300724983
0,0959383775669602
0,101142046828072
0,107239813350779
0,111174580215158
0,11656202976868
0,122304428724464
0,126934261445094
0,134547464819501
0,139837579190426
0,147844059609546
0,153516213745997
0,16169181886869
0,167555672513703
0,173720176297036
0,180883861034776
0,187427021736972
0,195009309157927
0,20001437115992
0,204596934018124
0,207822741743681
0,213428210910268
0,218369740877586
0,219372556706551
0,222552547336726
0,225239342773106
0,221670578506388
0,224774508967157
0,224014971204894
0,221060246096243
0,222316989288973
0,218335421630913
0,21619825567703
0,216034522525579
0,214702228943755
0,213392049256973
0,212216040520535
0,207726092350715
0,207883331185278
0,207092474487847
0,204925310788049
0,205607878396507
0,204322839923413
0,20298813506354
0,204746624873834
0,20425675941394
0,20629186602166
0,208362390842607
0,210034158734504
0,212684141540606
0,214912894596461
0,217682214396172
0,22099134673191
0,225765693841477
0,227501832348379
0,232014817500887
0,233946949912089
0,235918238329486
0,239440078442662
0,242973083055278
0,238748504540684
0,245099730351018
0,247809216072572
0,246494112434882
0,249290515337316
0,24940981486834
0,249768690498863
0,250604472058143
0,250620502574852
0,2520637006648
0,250650372216904
0,251010594694771
0,252643809095675
0,254325918259802
0,256429277290565
0,256973004488481
0,257441515945095
0,262975274378654
0,266688254450576
0,271825401359923
0,273408377662514
0,273849847553424
0,279301798874251
0,280833481921323
0,285619621804766
0,291187501094938
0,292974615255248
0,297155066663179
0,299945007861207
0,309013274204774
0,310955074666786
0,317274090468951
0,325349246909487
0,331428773528103
0,341534770969951
0,348669008476473
0,356117916574758
0,364502648598178
0,373307863671371
0,382602195477779
0,391642972977258
0,399440997357607
0,401611299497694
0,408915205345595
0,413040265999424
0,411840414867583
0,413489225840169
0,414479235811326
0,414284522057874
0,408709721924896
0,407748131627447
0,405793638009567
0,402877423810461
0,399620959236468
0,399724593086022
0,395975892080613
0,390673614468575
0,389492159344693
0,388474627356727
0,388075798096264
0,384980604140217
0,386783948299673
0,389333236082355
0,394120993000753
0,39567315602993
0,400805366711908
0,404872123807092
0,407501441223563
0,40928029112853
0,414493565680299
0,416774847291926
0,422728371276934
0,430177748044594
0,435279366310328
0,437711696149607
0,441705558569218
0,444601578192711
0,452876247214608
0,457837406494436
0,4587898630247
0,46085439310939
0,469280836472453
0,469245190726395
0,479050894396427
0,480951290739774
0,481396570303962
0,479320752197252
0,48511322301708
0,484243992628528
0,484596389058211
0,489459099954072
0,490823540017083
0,48776424377593
0,493925180472781
0,494355251193541
0,49569687832238
0,492802987537539
0,493285609733638
0,489621975270628
0,486588756042742
0,489240804988484
0,489863636602853
0,479221897914467
0,477679467871727
0,464372079856859
0,465830736955242
0,45401764621905
0,449408144200544
0,438718398309654
0,429629992498485
0,412327632796445
0,402418639828198
0,386333789566089
0,377127791966929
0,362698547299038
0,350176842905408
0,337427052133925
0,324653627209754
0,314229989306313
0,303064056044096
0,295648078119677
0,287590818004572
0,2788116401725
0,270857103746293
0,262658726302372
0,258226677980961
0,254331044702149
0,250555028585936
0,249036976544344
0,243901641244492
0,236504916415935
0,237231076302733
0,227813619281801
0,223777949999013
0,217735511489672
0,211484921880828
0,205676334060052
0,197797141259435
0,193893291894563
0,18779926621483
0,178047346683615
0,171750413589161
0,162183895937739
0,1543409783785
0,146402087757717
0,140058211950544
0,130965284500562
0,124792915076903
0,115669638923737
0,113973248672108
0,105566111944018
0,098501210996603
0,092195705349111
0,0878775427380421
0,081309075410636
0,0792149460029722
0,0710273483421981
0,0692801832775775
0,0616924597199695
0,0634066033783084
0,0591806932596222
0,0573728984569623
0,054308262272476
0,0518966901790376
0,0506932716395335
0,0485155820876595
0,0480495517087267
0,0451382282299419
0,0451469008992315
0,0453329026328373
0,0439949608119094
0,0435848153233659
0,0434891873024819
0,0437705687754362
0,0411305467452732
0,0415132932299414
0,042847018828109
0,0440960070505521
0,0424898028664522
0,0436693121177657
0,0438900788275085
0,046185335657692
0,0459145261502901
0,0466138665381379
0,0467889540048988
0,0490564938546065
0,0496544890043131
0,0492514930189085
0,0493932865149249
0,0537347435098213
0,0530278013821617
0,0516147255713632
0,0535871493243906
0,0575661835879429
0,0540457768886651
0,0573193981180745
0,0538014657592723
0,0546095820522589
0,0541480334455605
0,0529807219630239
0,0540706343579277
0,0575263799980743
0,055656408260627
0,0558062772679923
0,0585688092064776
0,0571047464931679
0,0531380392203786
0,0548207702158494
0,0551822008103976
0,0563751557318608
0,061222148516145
0,061890477692475
0,0564014896277984
0,0593447913897566
0,0567588195129099
0,0567034666712835
0,0573470637739673
0,0558202898484135
0,0620448095312612
0,0568549918810225
0,0602736270081151
0,0583602670276138
0,0561505877455473
0,0550913777111852
0,0543432726797646
0,0585604336776999
0,0532838547406067
0,0606478555467694
0,0608706188160437
0,0535639813671009
0,0543030805170041
0,0616089052018667
0,0643538342884107
0,0628573942225071
0,0591578457854247
0,0643426719426859
0,0676273493958712
0,0676264260456007
0,0692162361879984
0,0699862483041525
0,0707071943380504
0,075931417371357
0,0716441786049613
0,0716070001320565
0,0673717140206128
0,0716232061079122
0,0615914364726293
0,0654018090527951
0,0599359692602502
0,0633546757613731
0,0619846556787399
0,0629892287561474
0,063008235211299
0,0577678128644993
0,0567338139965275
0,0549278280957036
0,0593833597297195
0,0612444632476958
0,0623436891731501
0,0641146700415002
0,0614982025610243
0,0624507126943973
0,0572416865310691
0,0621428472242623
0,0562234846462535
0,0577156250774657
0,0649868374675755
0,0628792223847436
0,0618842723260919
0,0610836865285903
0,0562007438366417
0,0555656867213042
0,0621036082435824
0,0579818646332701
0,0643417631126908
0,0592753724854313
0,0578711732530746
0,0651595389488475
0,0614150835369764
0,0568774405205212
0,05683882379528
0,0613346829890839
0,060831357179905
0,0724684366075052
0,0571667723778947
0,0519142362237151
0,0592786647346246
0,0583910089317843
0,0581531294968856
0,0577965986677596
0,0578292492544078
0,059378959771709
0,060067854871064
0,0591798564944359
0,056313497430483
0,0603314464599972
0,0534547853663654
0,0585006274673447
0,0554943111978204
0,0560815438652532
0,0509945721328897
0,0525060467003675
0,0557032374738809
0,0459581465431355
0,05508609976723
0,0520589987365764
0,0452692249672916
0,0487283252044597
0,0550451533678846
0,0519023946775535
0,0516726701545357
0,0529341088074375
0,0475855622373094
0,0569779296467842
0,051540052252034
0,0395699368777845
0,0504688432707526
0,0537935775839586
0,0537708835741711
0,0497664528734623
0,0516782265571044
0,0531578614713918
0,0511762159117053
0,0560346307743787
0,0539531081541834
0,0551669703790422
0,0508502130767714
0,0495383333086934
0,0515740395633838
0,0506196960601593
0,0582324209010169
0,0572168541375572
0,0664263716881991
0,0643502192912798
0,0510649014863462
0,0597558915888941
0,0484241963727182
0,0650284721405243
0,0598052953894275
0,069414722182837
0,0612323745662228
0,0692332240739317
0,0679557668486778
0,0740688315360221
0,0646552074782207
0,0749879855289855
0,0870565260787582
0,0787282190792777
0,0845474758518659
0,0904602460657558
0,0849597187266766
0,0891726631997576
0,0818104775106304
0,0926676454586249
0,0998930447060218
0,0951363701600882
0,0918147490082869
0,0968977875067965
0,0986676902621
0,086513956166084
0,107006920990303
0,0992142222499452
0,0951535444973939
0,0974619612624126
0,0819969792093527
0,0991709168740667
0,0777176091713314
0,0969983860763945
0,107238441435663
0,0787853432239981
0,0809324253664859
0,087970205666822
0,107187679301521
0,094168851493563
0,0952737535562811
0,111671462806243
0,0766117788540149
0,108243660414686
0,0933073472009538
0,0979977488861569
0,0822307101463848
0,102460651178198
0,078416048205586
0,0933165441389721
0,0893999767743187
0,0866772437111385
0,104185033086067
0,0851812224276416
0,0980083244049854
0,0923944173627717
0,0998425350584595
0,0917561297075805
0,0869987661981589
0,0936689222717013
0,0685101415144612
0,0905003799811374
0,077663332596896
0,0910173994543206
0,0730536207222835
0,0767970813701624
0,0772658899605492
0,0761601703175457
0,103268169620359
0,0992707370246743
0,0927767882064977
0,0792421682716177
0,0845017137685003
0,0853729222209926
0,0908413037808216
0,110178369432145
0,0916120278782156
0,0747119397353534
0,0797371409017647
0,102927752039331
0,077906016524811
0,073849726266406
0,104718642736051
0,0826117429912359
0,110457685989106
0,0964160918063768
0,100841868687449
0,108132814646843
0,065742967809411
0,0978956716009943
0,0905027925582664
0,110856302270483
0,113523185178246
0,117578655243947
0,121439777322045
0,0824947451241062
0,0584580951317905
0,11434584241875
0,0886863163600816
0,123908943120961
0,122910357284495
0,161049346502047
0,110722571003774
0,0995144359013415
0,125386604882873
0,126195084163295
0,120067217852949
0,119506631135924
0,121813014825547
0,158888459124216
0,113753899210017
0,123777871490544
0,106073964170558
0,155863888150232
0,151413325138135
0,146260890094437
0,0891209782828532
0,127322333957947
0,100492127353819
0,135142642693616
0,115974287997381
0,0883164441135106
0,0704860990323283
0,12315102025557
0,140772935328821
0,153598288901016
0,151951767187163
0,132553782121547
0,0732166286105208
0,155828039962183
0,136245971838673
0,1533904845928
0,0776975122540495
0,146114183017919
0,174163127779568
0,103452119076686
0,102743207444878
0,0845668322319098
0,112980012270631
0,148185419393422
0,140662323993469
0,170578133022268
0,0537972027514051
0,0870122710547532
0,0838221156019763
0,0416990365149256
0,122144975186516
0,0872937713603012
0,109599673439422
0,0169300697244145
0,156422566130697
0,0725633468956268
0,0844375949549298
0,095168551036822
0,243060665148374
0,200363318913939
0,0860691450672183
0,226445761502091
0,103205136688246
-0,015588312269484
-0,101206753003771
0,173746640285101
0,0512039581990946
0,195113088056876
0,123338684225231
0,236140909951925
0,166038019580364
-0,00193206546657083
-0,115046415294821
0,142159757636915
