3596
4000,36533379555
650,420452594757
1
2
2
0,0336023876892965
0,0487094072499263
0,0422769196944974
0,0377024205128296
0,0376318478842064
0,0401840475792764
0,0406030034615193
0,0328539211895245
0,0289212702466223
0,0386840035547353
0,0382284762616533
0,0429411064047095
0,0319566793863681
0,0332003056691163
0,0353583832517672
0,0395335937622853
0,0372330861392269
0,0417440538036527
0,037008288159149
0,0321742876658576
0,0366849503738886
0,0351349972529023
0,0311644043556056
0,0346117977428334
0,0330249876281027
0,0371446542683589
0,0351392019688828
0,0361691170198998
0,0379891915031678
0,0365976916734459
0,0381740773298267
0,0338108066403875
0,036330721690058
0,0366598397187673
0,0269644637910738
0,0327099180703769
0,0385925509452067
0,0396480718316307
0,033767783046127
0,0289457173475733
0,0348229194878757
0,0415741453141207
0,0352705941281732
0,0381134343575221
0,0366095714587404
0,0426059295643827
0,039738499215554
0,0404282091892131
0,0425920661817801
0,0344867484616097
0,0457430644253311
0,0304820897182499
0,0371329117916308
0,0373336659904721
0,0331228725493117
0,047506315394443
0,0457992251557936
0,0382325398555331
0,0335764491806583
0,0337789782153486
0,0459642187582064
0,0553709488424467
0,0346010738735079
0,0329039534495251
0,0377273442860094
0,0493612612709969
0,0310193806865917
0,0349818980394217
0,0279587732353418
0,042893475446649
0,0270177446581777
0,0480568370629048
0,0499007997635253
0,0341895434462498
0,0420597574350682
0,0429206648691092
0,0349061501372921
0,0422890392613228
0,0132426154545111
0,041787305619145
0,0414792170980897
0,046183015368951
0,0329187288726572
0,0282930313495835
0,0325858022647516
0,059572688439326
0,0269997713024896
0,0383927938636335
0,0578484909694193
0,0384746197660931
0,0290980127386037
0,0298657204357832
0,0335200381131904
0,0391204478070218
0,0346328347701242
0,0380378437830246
0,033428230534734
0,0377317093250074
0,0263793138962255
0,031460861797062
0,0345416175311001
0,0360845737700042
0,0757088357443856
0,0213722778207856
0,0692609701365311
0,0403248447852133
0,0237682516615664
0,0733464929436906
0,0434886570515038
0,0463643216342389
0,0289825603806251
0,0419813562772409
0,0234486919638716
0,0432653364657419
0,0167102782117835
0,0486817113589023
0,0601184503776373
0,0414085348534245
0,0294755856170569
0,0428562076160363
0,00839647989968855
0,0435940227165359
0,0702603135817827
0,0380136925839175
0,0387914096935793
0,0353298122346861
0,018502665123989
0,0510538604285056
0,0657109573030896
0,0422668913855912
0,0320620545777243
0,0384904283447982
0,0310668325860474
0,0118208189760396
0,0806033004843253
0,0427153066147733
0,0339397387000083
0,0118713683333035
0,0171460335595934
0,0805058020842905
0,0467793526693413
0,0399707037662938
0,0233498867491644
0,0270657891490846
0,0635902865341114
0,0523085209371918
0,0269761074381461
0,0482785582773641
0,0434887913596309
0,029849480052631
0,0310819095966703
0,0209988120754127
0,0471845724389825
0,0421832192517977
-0,0132233102969465
0,0501630675680147
0,0797117851237116
0,0250274289088755
0,0958680382468235
0,0360952962140987
0,0550035728918326
0,0359832709054615
0,0339465597550636
0,0234639792624999
0,0340012108731889
0,0192722376454683
0,0346373967536874
0,062097429291038
0,0289676653317366
0,0343321093817407
0,0488948430115341
0,046226796970128
0,00768431784057901
0,105033538076929
0,0546483877300641
0,0270061825345158
0,0688610786914274
0,0570917421715596
0,0133539073127426
0,0320718436299534
0,0600330859619877
0,0368065199873915
0,0393065666197214
0,0285569672926569
0,0295993964285872
0,0437356007481574
0,0511933363557972
0,0310734437739627
0,0318149573042574
0,011259530820378
0,0293990858126406
0,0745613232620351
0,0695703248217931
0,0406869627462866
0,0378531950258077
-0,00428942747810104
0,0507267758815676
0,0752029098651568
0,0388817914795196
0,0343360156079693
0,0228769224347751
0,033045612393105
0,0206586133956171
0,0304444330364637
0,0265948702290878
-0,00856158144866572
0,0769312698128235
0,0523385767839638
0,0455699229198613
0,0284838889015761
0,0322324850858187
0,00727751581414831
0,0677784098899082
0,0709308464556447
0,0407107568335376
0,042334446773118
0,0147579793125805
0,0434401054897191
0,0528435851414896
0,0360340830055091
0,034652869059766
0,0334356771160206
0,0332576616998413
0,0287839246120213
0,0292614330112532
0,0294261609882674
0,0332265452562834
0,0294916585588775
0,0330443091908584
0,0269938095306711
0,0333658668271224
0,0400351564756026
0,0368299665069238
0,0342535253165204
0,0203904937447471
0,0364490639635007
0,0588473231960307
0,0414134387789209
0,0369973175844296
0,0301196585361025
0,0322380613063007
0,0290172314020737
0,0312439197763807
0,0337152101911631
0,0304834201595231
0,00986232498504025
0,0686060038548963
0,0350072182215217
0,0434979645216583
0,0210541680580921
0,0553060959182035
0,047520858318991
0,0406619037065282
0,0332090035234195
0,0391853824802782
0,0215221917400377
0,0175002277113076
0,0581891422355828
0,0414937558504939
0,0303097084689954
0,0437868886375916
0,0468083701140755
0,0321573698580881
0,0304672735509834
-0,00368643247580819
0,103828208197375
0,037436684394627
0,00126071932696628
0,101192740421223
0,0511116377945802
0,0441685610459864
0,0295400632137389
-0,0303561707186088
0,114006947974258
0,0892123541952498
0,051619297237567
0,0323512368189882
0,0524038806004076
0,029693118039055
0,0373667273628807
0,0295871649687075
0,037097524044932
0,0483713893080451
0,0634048055725832
0,0979012021078228
0,00675996956613365
0,0635988714051116
0,0656626716649508
0,0450335553758057
0,0370534421801595
0,031656343783331
0,0185743296493125
0,047384709864053
0,0457717520150572
0,049987863285259
0,0471735194905143
0,0217131557658646
0,0653329376717286
0,0434364308777634
0,0305448236973063
0,0386720034037773
0,0491092983803691
0,0346081102828078
0,0427493041553038
0,0240705579921093
0,0521153756466157
0,0292619663061593
0,0177449778957917
0,0838915354123454
0,0551714984028086
0,0240850908758192
0,0708348208028629
0,0432210273700485
0,0352511703269324
0,0318628508626874
0,0340594029762073
0,0352527693221407
0,0304697201130914
0,0113036212754629
0,066483120843245
0,0403131172749677
0,0401369962948623
0,0352216334672
0,037735354043298
0,0318610049976248
0,0367315307464895
0,0325185943974334
0,0308628514810815
0,0381188599610245
0,020479507895758
0,0422407637064596
0,075806069709826
0,0091083044590544
0,0586916669707225
0,0790561190541874
0,0482586549961118
0,0396547051167057
0,0348519337193015
0,0451614010602988
0,0359455385791997
0,0439124263504756
0,040393621031342
0,0344707638241252
0,0598157881405836
0,0441978821504095
0,0311538814324829
0,0198423966014689
0,0673397097825925
0,113178726366308
0,0611140573583369
0,061290675477246
0,0105789839351445
0,0654191650514601
0,0725297629305065
0,0525691721330965
0,0868648660550212
0,0417415477341049
0,0549269593674704
0,0349393360164024
0,0539451042683865
0,0413228436687793
0,0598954623427627
0,0466561615402237
0,0613813768153965
0,0454797934112274
0,0620764886773251
0,0452110098201398
0,045470131432225
0,088587637992844
0,0780337432419392
0,0561159085097539
0,0663817400509805
0,0309335243725358
0,0764363471032804
0,0577445670194484
0,0964463486355836
0,0876694686660011
0,0760245736546772
0,125760526638434
0,0725621958139391
0,0709617148826404
0,058537570892655
0,0718738708584879
0,0682980262923274
0,0708294268147526
0,0649082459284388
0,0629481685773681
0,067813491582997
0,0855528627178728
0,0697122628089553
0,0772551806149757
0,0601171224237032
0,105290315528152
0,0818682917295279
0,0834286683870984
0,0677246733027639
0,0799474691213364
0,116665152364628
0,135164616905133
0,0979722427979804
0,105954526573864
0,0955142214523888
0,0875664082170616
0,101952708887651
0,0833939186397504
0,103739724950265
0,0799289004769068
0,118124631338036
0,1111183075832
0,120207991644099
0,125988943465979
0,0940535123595333
0,118619793678139
0,115779340963371
0,113719311335736
0,143849948200683
0,13701906469345
0,101359675877474
0,125343604046807
0,151193778315641
0,113496916949739
0,159214621462397
0,116496677595287
0,127670815681012
0,115632363256065
0,137072928867965
0,115977885308088
0,144396340819916
0,145461678263509
0,140735078752023
0,139494727081676
0,155844030059302
0,129075718801327
0,1610048117954
0,147630057653145
0,150456578059038
0,16626578496429
0,145690758028816
0,162515941422053
0,145906696408347
0,175253079240671
0,199473520197053
0,159572618780699
0,201036221906908
0,164414145079513
0,189982968721155
0,177492754392266
0,185436984804975
0,174859921801185
0,190228011869157
0,179470182139416
0,198339365577057
0,195200720815167
0,196038937510062
0,186533962048506
0,20185768371626
0,208211511215964
0,208361991751521
0,196111967429155
0,215311958328342
0,217573246821793
0,210521167200882
0,228075100444241
0,250312770134523
0,228027452793318
0,260984093320989
0,222078944565382
0,246570464578301
0,225629356346913
0,247323925346695
0,23010653333663
0,262993516485905
0,250144420656915
0,253891442081397
0,259336590438838
0,269725635659182
0,250088546000365
0,273541249593974
0,251148648864214
0,289859608850547
0,278039090892377
0,285536184364297
0,253825276567032
0,286942404481286
0,281191325063775
0,302370556094039
0,283202912897177
0,319410455930454
0,300672912453341
0,304869331377886
0,282048200969964
0,322222651270554
0,311840936481958
0,328609905665244
0,304019795028869
0,333476186341053
0,318893804347674
0,348381576435516
0,328205880021943
0,33647691824209
0,330158414855052
0,342888587024615
0,34139816981157
0,342571448804858
0,353182342206622
0,382730021067148
0,37410012251699
0,374192982935786
0,361936119535282
0,376448720329634
0,375853458910991
0,397374270716911
0,365753937747668
0,394672141920863
0,37506879580526
0,392341441293737
0,377318372621311
0,409740440837383
0,377262385053782
0,404139621351964
0,406641868862577
0,424922936270675
0,40996369211858
0,439717099196233
0,398809223026619
0,443807384605512
0,414459533409302
0,450008677111172
0,434515958441421
0,446754235202541
0,424140804394188
0,445928297925926
0,430015858377556
0,467918996884438
0,450291139989767
0,499769831901051
0,43810265192317
0,475718513279137
0,459301721406876
0,489934356260091
0,452694202078614
0,49270382252205
0,491139288478197
0,493969261088891
0,486197813575094
0,490210964668358
0,491431097270819
0,510083814012775
0,485515715551776
0,506837855560007
0,491541923220167
0,548414194296363
0,537300893203161
0,555925431337223
0,507550407405676
0,545142654085201
0,521657915116428
0,575860327492686
0,535352843008476
0,555535486872605
0,516150746839387
0,550149427161197
0,539498656532672
0,558625200838397
0,54711024575616
0,589428198015496
0,535199515493143
0,562455914218934
0,559361376461548
0,571121297422436
0,562490145518156
0,613573714599433
0,574784097394272
0,597569354841498
0,568695981957787
0,645138110980909
0,607717200779988
0,603888762934866
0,589968333038485
0,620028526618912
0,596534514347356
0,635787772811668
0,597991844727131
0,626147963217913
0,611354539669464
0,6382309947354
0,618725526918523
0,647286627235271
0,6214452137521
0,643265337268282
0,623481068054294
0,633037141749348
0,639096029379696
0,648271987970801
0,635117253748703
0,676085485713175
0,643182834588088
0,691279613184529
0,640388559673774
0,681423054376476
0,657303743136434
0,691118667810411
0,637214738704479
0,706593366065525
0,656368642240562
0,68823484527829
0,655445473169782
0,752388420233992
0,700706530118403
0,708731172626238
0,67969965625968
0,734578860071196
0,676755833054007
0,733974724715515
0,703929122057441
0,744368120716605
0,703048702081604
0,723715045003966
0,701857726340265
0,744780327106981
0,707269557877668
0,758843652830064
0,719695867425294
0,756830142096943
0,712541264626322
0,771048576757687
0,720374493083467
0,736853725400581
0,723133930686439
0,751378208369029
0,69884652845212
0,747557524704982
0,71887871312198
0,791469248030978
0,745962769157309
0,787282416562566
0,73268737566425
0,797986075077962
0,741423156480439
0,736494558285175
0,737233397466626
0,734238663003575
0,75270488679124
0,789283826454967
0,764893655480902
0,821726853162615
0,771156947264173
0,829691108971911
0,747571612683373
0,829339032492258
0,745279643008274
0,815148020714606
0,739066791529264
0,82269429206247
0,77679791307509
0,833562142006646
0,803119945668074
0,833828876530377
0,786757146219052
0,825861321548596
0,783872872226664
0,813902423154754
0,819573439046095
0,835178679634313
0,789945761654283
0,839027754183172
0,776236718860604
0,808475423783838
0,76879751986582
0,843566600752533
0,79608792317025
0,826766393758249
0,793994620228421
0,814117593246736
0,777240077546399
0,818048185394122
0,789745932740619
0,835723522801262
0,815701357551622
0,845719644639151
0,792945119646067
0,840189425244103
0,827388859082892
0,830443847957779
0,81396427267675
0,882547585886692
0,813294171910797
0,868459073780792
0,825745567748842
0,847458294962114
0,828818048898693
0,860103633535819
0,785823315324605
0,836130159536263
0,794760573292491
0,844842950144117
0,816051742509261
0,904851950926729
0,817860302088003
0,843483456705727
0,814472671847611
0,878773839467435
0,797616760004271
0,825288936584363
0,831958685320119
0,858030654657211
0,831461075106477
0,831933815632225
0,817001718384418
0,847417108368727
0,792927940781661
0,876884614303236
0,832050398673723
0,856348932570324
0,827880601412472
0,872287286105141
0,83734867883794
0,872442628479845
0,795227390160208
0,837733064347839
0,78234389771272
0,845164916040859
0,786187421549909
0,852118755335455
0,840605081334412
0,85953581589966
0,801513000030794
0,851309857384589
0,809393073316894
0,864428816867772
0,808804394191272
0,846844748789732
0,816379854710209
0,825796129003133
0,787721164114837
0,856065956307136
0,791870997183067
0,827434587036674
0,802952039701739
0,825599034675584
0,790172556070045
0,823867141541186
0,810894847352888
0,846893832889659
0,797784844431744
0,837634632686704
0,798013769650587
0,858109411475536
0,787593226130848
0,840326887298514
0,799063490922818
0,824410326666291
0,792881801681157
0,828022506424952
0,790733830621721
0,807426836631444
0,778322037880445
0,827568204785409
0,801652981454931
0,79620848772007
0,81167143941495
0,832605956134661
0,765108509147478
0,802200653818818
0,807977110212236
0,804339429769793
0,779109172792106
0,815969951135473
0,771639815233711
0,812665131890466
0,767847744130521
0,778827940228805
0,754143857408469
0,795145707267463
0,763279826047007
0,804074218304347
0,776420551040914
0,793023127207363
0,766828566353917
0,803218015128733
0,756339463738424
0,774459119431951
0,7558577846678
0,788581133172291
0,752310197870453
0,774603902859635
0,745721949168856
0,778598620160255
0,754369391867521
0,776130023881252
0,74356798588815
0,761883910995978
0,722883459272341
0,752984898356394
0,72731634744356
0,751077930216371
0,73419163668576
0,749274952879316
0,730811484405162
0,764289733351393
0,722818645430644
0,746196850206032
0,709386786434165
0,752982347822202
0,696723529863899
0,728527408243763
0,69105234839988
0,740279917695304
0,712288871429295
0,741584085353048
0,68734561702524
0,716458449189316
0,683743380359796
0,700528184965167
0,688907888411565
0,733742841045754
0,671546502148362
0,705479164859473
0,700703208328328
0,687086033068805
0,679096550887073
0,698958151024727
0,675462663358225
0,693176361890962
0,670519104139699
0,690541076590153
0,661031706922215
0,669517081444968
0,666154753590159
0,680970099378293
0,644549263078631
0,677981730390947
0,653919397108404
0,662474847251137
0,65132855536783
0,659916108336247
0,627860218402463
0,651834097971584
0,619155544686583
0,64932505013033
0,640119705255943
0,635054502029816
0,636781914971852
0,651224589199713
0,603329499513299
0,635919133135392
0,610907211745789
0,635048671813412
0,612024359629479
0,619374673689099
0,609164427896798
0,622755264602785
0,592791708470111
0,598114385018573
0,58414336817645
0,590436254185942
0,589004405003351
0,595850751271904
0,567153998133685
0,591151973596967
0,576111775168524
0,578256253545479
0,564375591131583
0,581242212672073
0,548476448700714
0,559597067262076
0,552785396668968
0,559183162171355
0,545982477729791
0,575823737350547
0,544155788908422
0,555904030310612
0,535647405165737
0,544931434104699
0,534663833401771
0,546266269032837
0,513927881068498
0,534979533985844
0,522869635724223
0,54020823310301
0,513841959695253
0,527384006539268
0,508590367947004
0,513267768885435
0,496565797790253
0,51794321618346
0,500044739880018
0,499209216824775
0,484280992115692
0,502902330443928
0,488213936838878
0,50671015824852
0,492824067469575
0,495533055463343
0,464729104577527
0,480589398888907
0,472784156788374
0,484187475417427
0,462155389683378
0,464909878163263
0,455469543396563
0,481841407934757
0,452809759753245
0,4574807345504
0,445748866902033
0,450628759812918
0,44147326614336
0,459616675360349
0,44053688455159
0,45098683060193
0,427804703792747
0,437020151085342
0,436340340899313
0,437034846273885
0,416044685674023
0,43152310544075
0,412778593762589
0,420660869808349
0,411747714477567
0,419399484520057
0,402427401734419
0,418944992341841
0,408664792244194
0,400773659802964
0,394586689420483
0,403499928437681
0,393742583429474
0,398923917341975
0,386909098416813
0,393182096603018
0,385809035122673
0,382758755093164
0,374052236470341
0,385852823910688
0,373211686631488
0,374642705043463
0,363020458400823
0,37193262393148
0,362491387490265
0,366092844694585
0,362415695697207
0,365951207329327
0,354930139483472
0,355540564921417
0,344098766146211
0,353218128694948
0,350985429512064
0,344517682799855
0,342152835293975
0,340366044917938
0,339118254717439
0,340334169733687
0,333454900351056
0,33792669794013
0,331293847746983
0,325527841072228
0,320382027940036
0,329800518799849
0,31887729164378
0,312576305842472
0,317979254996587
0,323850062959292
0,31201155422051
0,308103254058569
0,309399328949818
0,310672419855509
0,30574226963771
0,304102145233449
0,304171263014503
0,301265203753993
0,293447473988602
0,300328116932895
0,292978544936428
0,28622500189606
0,281459963133312
0,293386258662343
0,283699339111329
0,288296654621184
0,283573483593686
0,28128741483329
0,27712092027849
0,279354296241842
0,267009709719288
0,27767160727597
0,266088710696765
0,273124720803431
0,263406617269098
0,266814154621708
0,265963979180839
0,268844874019877
0,258990180630025
0,265529674726298
0,254640159301384
0,2542383945642
0,251449779503558
0,252940828216028
0,246056098987523
0,250177762731956
0,242829790275444
0,244194552660442
0,243921065038852
0,244571182851557
0,234492972871927
0,243081240866175
0,236266019569887
0,23813805849214
0,231918251518254
0,228072416429016
0,233573388782826
0,232500312190377
0,230344138380434
0,230218129951683
0,222982026060618
0,226321623027855
0,222377802203802
0,22562453526008
0,219223778718378
0,221443347455126
0,216890355412579
0,214876471923734
0,214560756080423
0,216426040136405
0,211038881718104
0,215681403913665
0,207087835679536
0,208953729492819
0,203260825315109
0,203109040757931
0,204170976117589
0,205454120699214
0,201095600740322
0,202897787087921
0,193946217348248
0,202371969023833
0,196405061895269
0,195350698638059
0,19167866357572
0,199009677562336
0,193566478035631
0,19330515952073
0,192929238319002
0,192080398601472
0,184172177253814
0,18757984567118
0,183921709439394
0,184280928206832
0,175839236975071
0,184070753720778
0,178939288668101
0,185491589043691
0,180518894661037
0,176441446215272
0,174898807377202
0,181125087329872
0,175281077467464
0,172556906198977
0,174832199837685
0,18091196169486
0,168486789213827
0,177118249043016
0,171078587883204
0,174262915765547
0,167392294877045
0,171695220512106
0,16645081137516
0,166262270636126
0,167477798168463
0,172008067616614
0,165427075972705
0,167989382180168
0,167027559518371
0,171364445300752
0,163969008416009
0,171315074568639
0,168139670937388
0,170116365383923
0,166341206770406
0,171173913943983
0,168281660701836
0,167993851855365
0,168441601472485
0,169263707468198
0,168014395226224
0,175719912924508
0,168517450780036
0,175452147350258
0,173404470594288
0,176648598744141
0,175340966500262
0,17524626933657
0,174384228666276
0,178394724241002
0,176304379993123
0,183888971872171
0,178194205582602
0,184645202434157
0,178896263272919
0,184636859893952
0,186313219859189
0,189050305647838
0,186524236804726
0,190756277645484
0,188555328130318
0,19702567026706
0,194517143764195
0,193381903995353
0,195623306602871
0,202283147780985
0,193559595463051
0,204242607983483
0,209093006905439
0,206083870051207
0,209230614117181
0,212429734977324
0,210273227294966
0,220023744985242
0,215054690386153
0,219810428996266
0,220415878343447
0,224461976201947
0,220844072696438
0,226971805801041
0,223532662014948
0,233617460048927
0,22994712963841
0,237840283467402
0,24112945067971
0,245311844480234
0,245665402007597
0,250620014323671
0,247029392300533
0,261634214791506
0,252923822256663
0,262753386196134
0,26264310788186
0,26885865636113
0,265478699740214
0,27623338217068
0,269167458105738
0,276303556472865
0,281728016362523
0,281356041609815
0,286236366492776
0,287501621415029
0,282360898781456
0,294297757543201
0,290142687079485
0,294601002884775
0,285272316659922
0,295978319732904
0,286139892103749
0,290193446132773
0,291014875075476
0,29384425245658
0,289674969927763
0,301757800178993
0,294028297997664
0,293557497753958
0,277162370052965
0,286921796743041
0,28368383083952
0,284521570799669
0,273669609908746
0,286663071338805
0,277490012231811
0,274017925545941
0,274317095189022
0,279000198721526
0,278916565697223
0,282127311939933
0,268692368130765
0,277856742280444
0,267827498173733
0,275968655322724
0,268387555397596
0,273260377156115
0,266379101290874
0,277685156907221
0,269525903960626
0,267861598126571
0,265895271454779
0,267439071443104
0,262096810666801
0,27147426445868
0,259765143943908
0,264055953123233
0,262617711913594
0,266010919327504
0,26222545336505
0,266140442965881
0,260715672495808
0,266905092135996
0,261085565556302
0,258075612445551
0,258101218916567
0,261231573839396
0,257776068658126
0,260222259216061
0,252568146913124
0,257127650908973
0,251730886161532
0,251208498753295
0,247340913980408
0,250349129181469
0,245235964280037
0,241292442774724
0,236720806916019
0,240838435240704
0,229724028300095
0,23393343818157
0,229402580553076
0,229559082242746
0,227128740561211
0,229167350115606
0,220837881076525
0,223661665244076
0,220221367443118
0,217804657305568
0,209402174874344
0,211211138860132
0,206218262366362
0,211199392332701
0,202030772398064
0,206434944466022
0,202569618439933
0,202016351762989
0,195812408218575
0,19531277553853
0,190320783464651
0,194169304753817
0,188746602134698
0,19201324544022
0,183670330457128
0,188787011656917
0,177834830076624
0,179251486356583
0,182593864654186
0,18239825523994
0,172235748823096
0,172372988606355
0,171172012680969
0,179367534948994
0,172613264105832
0,17318128700795
0,170934457745944
0,170045129177899
0,164347377107402
0,166142934712103
0,16501077847321
0,164275791966531
0,157262772787051
0,15912134319789
0,158885429070081
0,162521107464681
0,157346347077163
0,160377737044122
0,152827323661391
0,153217348793456
0,153129491265519
0,155396230657
0,152403155447304
0,15501201632944
0,152068137076978
0,155630119372518
0,149915687330677
0,151385047903374
0,146157846007901
0,148902375588614
0,14726623234782
0,149486015320727
0,142559987242968
0,143536114555178
0,140998730201252
0,145565886317922
0,138577586593366
0,142325424747263
0,136347060622778
0,139644023999509
0,137516561913341
0,137391783131583
0,13403723392305
0,131356298891438
0,134374776540922
0,136009162135983
0,13382905221764
0,132380617100283
0,129847139564261
0,131463104876942
0,131120766530482
0,131972566195745
0,129069077935485
0,130282583210191
0,124099347505275
0,13093279988005
0,124969653533618
0,126055252879911
0,126899374938655
0,126140901622245
0,125691672824235
0,129089850951743
0,121973796583123
0,126329088348745
0,122604425396111
0,120014061863782
0,123385397685419
0,123916752827851
0,116756296324838
0,120842423726957
0,12275369387519
0,120916947187307
0,117862359112078
0,122925535389694
0,117306453276317
0,120578262520717
0,1158591699943
0,119107224893
0,121350711991113
0,121045529267852
0,118056186745088
0,120748879804283
0,11718842853733
0,116981211808191
0,11548587850729
0,117414859002369
0,117503721811071
0,120332111085723
0,114969581479096
0,119403579375701
0,11390062781122
0,115526893389325
0,114791511514671
0,11458872237472
0,111625642020209
0,118239963435752
0,11376800423901
0,114191859955915
0,112831202531744
0,111896529699904
0,106486946523971
0,111946595301338
0,11154103907239
0,108494991060835
0,106514278950584
0,110864881839241
0,110083071292469
0,109376010165622
0,106408006607875
0,114774842527829
0,107943200449427
0,108035294901752
0,104566902946614
0,108276149560423
0,109285916961161
0,108540607763365
0,104441652344396
0,109750454589351
0,105613334971102
0,107460318043585
0,104898927448002
0,110552721606179
0,105030071631545
0,107379952355392
0,10416219724258
0,103814562772501
0,104786573343111
0,108408378008258
0,103702392024162
0,105687285524492
0,102790561470209
0,107196580930418
0,104006563441685
0,106010585507446
0,102043733079519
0,102712076847778
0,102084696633021
0,103333587474242
0,103869732810805
0,103390574552519
0,100471765893931
0,101497411402315
0,100726018620149
0,104150634467829
0,104768377793679
0,103668384128919
0,0966751730014807
0,0996439170562323
0,098559035084818
0,102752649328262
0,101583767612792
0,0989266635390218
0,0985874445971292
0,0977136924655141
0,0957272838303102
0,0968287473937057
0,0954516811289721
0,0977166532871701
0,0977956313606339
0,0947027257876745
0,0940525883004407
0,0986153970513367
0,0953946004240967
0,096421915516505
0,0911297687147674
0,0938949190506512
0,0939609764933974
0,0929515304614977
0,0912682609340203
0,0952879783466554
0,0906647422324467
0,0941018666556814
0,0891172140151269
0,0930552534318724
0,0874280542688749
0,0929151560607797
0,0899125899900773
0,0916100116312534
0,0873957388612782
0,0905868836937419
0,0881384664874194
0,0887530263051108
0,0885779038892622
0,0876748090420594
0,084119601795482
0,0900185308088089
0,0854343240118914
0,0885339809280487
0,0858368355884526
0,0879760557453309
0,087795421953834
0,0890519435558017
0,0844870440749325
0,088602195294526
0,0868259559571537
0,0834417854783734
0,0836359537682849
0,0841290784197692
0,0833555328136096
0,087871362212185
0,0799600927654544
0,0843619558657623
0,0839778831370436
0,0847281616374623
0,083180180435632
0,0830282895083292
0,079620685860996
0,0801480109450487
0,0781475344970387
0,0799557155233542
0,0758624156100858
0,0826075556221584
0,0793399997326655
0,0794374175729977
0,0758916876704219
0,0793047074441727
0,0785909485092354
0,0783164625127426
0,0748929991044684
0,0761606246355071
0,0767690713376319
0,0772296333926342
0,0725414484411873
0,0745986817673643
0,0743583175485675
0,0740497755101288
0,0735562617607292
0,0741546041294246
0,0695651893610638
0,0727831973781143
0,0687231138708662
0,0692853729322718
0,0704143707482044
0,0712687206935857
0,0683911790412535
0,067809419906282
0,0675815191987468
0,0711261215518128
0,0663144115212812
0,0672559937296987
0,0670833297703878
0,0697860680278539
0,0685448034926772
0,0658771749712472
0,064892389045004
0,0636288747740985
0,0623472088030969
0,063816682011435
0,0647173444912558
0,0677296995548148
0,0645945183068941
0,0633066977650798
0,0628920495583683
0,0655466116771751
0,0626488847282015
0,0652500911940692
0,060852457804264
0,0663384061179186
0,0651862127131738
0,0636835723854047
0,0626222154876277
0,064985669929366
0,0599603549797866
0,0634503354821269
0,063321412173868
0,063312488627986
0,0605000909931912
0,0648840514583694
0,0612930396461427
0,0630516959778796
0,0603982601911438
0,0605591699607889
0,0584874291661383
0,0633016908233573
0,0600120941162914
0,0612881848320136
0,0594038418986492
0,0619021263497207
0,0570979247324966
0,0598588685318736
0,0595677693161463
0,0606423069260682
0,0601512296042036
0,0601986932557389
0,0560201804124052
0,0589019526054214
0,0574140410801409
0,0601488007231259
0,0577206465126724
0,0590038136423138
0,0557544722405615
0,053438618902077
0,055425503659924
0,0553801761381301
0,0523513404301605
0,0567224708559573
0,0543430369517276
0,055972571886514
0,0566139795106242
0,0599981684355188
0,054181971819002
0,0549372128037027
0,0520952152160474
0,0564720578793078
0,0545542978090911
0,0552273984336005
0,0528795222565878
0,0571421370517296
0,0546950944725501
0,0552978517384294
0,0514362977716095
0,0533612088867474
0,054374518462009
0,0542043992240544
0,0538216407769167
0,0558355056831437
0,0534889013069686
0,0543520302658759
0,0538844695022355
0,0557706539972117
0,0526971766103564
0,0531153324602425
0,0536379490211243
0,0541917802482592
0,0531356265487856
0,0562478986679322
0,0522319655272566
0,0535872610527664
0,0542672993132135
0,0523712514304467
0,0513522948274244
0,0538004066868113
0,0526573628036248
0,0530920192986394
0,0496950217954256
0,0536949204421575
0,0496339297868379
0,051628257186698
0,0476150986675167
0,051806848962596
0,0495100334596826
0,0525067449013146
0,0482693802500159
0,0509119688191588
0,0476222861562986
0,0506322270084937
0,0504569985027636
0,0504319351954326
0,0483966882631713
0,051283756608554
0,0493925303206779
0,0511432607878736
0,0484499313362947
0,048058801024067
0,0454657840096048
0,0481740157816271
0,044657897939095
0,0457390919686599
0,0432067370838398
0,0461780563337161
0,0450541423112129
0,0476459387036173
0,0449802349526119
0,0501627183808209
0,0442062714846492
0,0489353642199014
0,0465035182489758
0,0478005446674039
0,0452399581681539
0,0473107117984211
0,0444330055128035
0,0470167964742129
0,0462296818345981
0,0468916845327343
0,0467384152582905
0,0496531863374912
0,0461770003845734
0,0453455795883154
0,0460676493895688
0,0462751721864535
0,0451160314900696
0,0459793300136032
0,0458049045103144
0,0490207178046718
0,0458252855107008
0,0463747924456159
0,0456550189115819
0,0477714447358782
0,0429216089382495
0,043683677966389
0,0445723117117144
0,0440896611184419
0,0434251052211587
0,0456031070065219
0,0443001124674915
0,0435030778610855
0,0424735929402684
0,0456323419820025
0,0423855429471234
0,0455369211482693
0,0424020740580584
0,0434894235686435
0,0411247518027025
0,0430189539031738
0,0429969323401019
0,0428255973139391
0,041040323179478
0,0435719871631036
0,0417128244547552
0,0429085279216645
0,0360429573836322
0,0411627470784277
0,0415415264043025
0,0402755013438227
0,0380738198469325
0,0401486021884354
0,0406203811040627
0,0400871517413254
0,0372989103245394
0,0409810568231246
0,038108747156277
0,0417804726928287
0,0358770127322693
0,0400691047978274
0,0377827519907849
0,0379079536347107
0,0379612760669943
0,0366177514064894
0,036274982542084
0,0390690075052803
0,0357583901583942
0,0397415488895435
0,0356249383465497
0,0384805755380808
0,0361451636200231
0,0379500124506001
0,0353518575827346
0,0356985181218583
0,0347619399455728
0,0360576615865661
0,0330722580469481
0,0366650524807059
0,0346592395886066
0,0374800959008187
0,0341236916470079
0,0357083970250984
0,0335673372704295
0,0363458623989208
0,0353532191050012
0,0356778366421209
0,032927950840876
0,0355671635123224
0,0322472189482123
0,0356383481623026
0,033437700599387
0,0352578795515617
0,0343296012124322
0,0344699510034206
0,0325162368210703
0,0351404091899601
0,0322138812836015
0,0332290236356913
0,0304634879681363
0,0315785821261294
0,0293713164520754
0,0337994498736257
0,0286997798656937
0,0321009250814081
0,0303002816090416
0,0315121538208523
0,0312148655259169
0,0350002282735955
0,0291549239313937
0,0280708215533811
0,0287341810034658
0,0329613728763403
0,0271763651679695
0,0300883185392034
0,0281279159503181
0,0308402090306345
0,029678044277474
0,0312425395885269
0,0264112920733707
0,0282656714055469
0,0278225381102069
0,031934238462329
0,0289500738365354
0,0299863252344274
0,0259635452184644
0,0301848197983418
0,0274653490708399
0,0294275885621868
0,0286263289231924
0,031041094298202
0,0255162616163417
0,0294570554863817
0,0280939430393983
0,029296699502035
0,0268937141553793
0,0314677347207561
0,0284968786424785
0,0288327919620715
0,0270954917519785
0,0307263261236235
0,0291722602916958
0,0325599118927785
0,0254500529232324
0,0334420720822202
0,0291756663626525
0,0300755964503033
0,0224849767153243
0,0215940245256965
0,0192668685798182
0,0304500070611542
0,0286070919893458
0,0352639607006166
0,0151253754585176
0,0184330063005214
0,024295210010074
0,0363870056852724
0,0184631098131786
0,0266967643091428
0,0178061658486529
0,0259709488451595
0,02514712701971
0,0249363331192058
0,0171292091557455
0,0282897958292097
0,021921224289436
0,0317869904191494
0,0195860118107512
0,0338492873214014
0,0270062877108716
0,0300770100275978
0,0190890831040705
0,0314793383583812
0,0155013958392314
0,0300442982524259
0,0166355491269707
0,0288272265102077
0,0169291700652682
0,0288073933705557
0,0184564658154782
0,0343323934225767
0,0185867219638822
0,0374125539651189
0,0177312340469471
0,0280966006435105
0,0114695181600058
0,0219283408726879
0,0107343087003932
0,0321569621069649
0,0187188070344134
0,039595213814751
0,015541306705848
0,0238234081475435
0,017825280911855
0,0319973442778287
0,0254582497873137
0,0222239830552206
0,0215643866290932
0,0245458930021712
0,0344919625882879
0,0204098885571548
0,0319829281561179
0,0156643956409459
0,0488518755951766
0,00881092601980727
0,037628020582819
0,0135950205465878
0,0426635194954761
0,00955039602866728
0,0416151134143821
0,016068505693243
0,0326723822513236
0,0221766626797296
0,0280427915710709
0,0245674734294658
0,0265469157356001
0,0284967174460865
0,0238422332369221
0,0242242254890616
0,026268779181722
0,0229246079673395
0,0248448013449495
0,0229918868272626
0,0255150681079346
0,0200252611792113
0,0269803670073814
0,0202395300049064
0,0236322041005303
0,0221813700947289
0,0227356484717992
0,0205289341438473
0,0228517343050791
0,0214871090093692
0,0238013144160296
0,0214126746518711
0,0247071272967003
0,0230566310227532
0,0250657596005597
0,0230163094609359
0,024047559701831
0,0223219064877981
0,0223986793484098
0,0202197826958557
0,0247433426858406
0,0241767276448254
0,0245306060583094
0,0210529890389455
0,0228061246616852
0,023470282473682
0,024393708505474
0,0231902385483984
0,0247550598337314
0,0237796155684944
0,0258419749532985
0,0227835905342503
0,0226797981495111
0,0226271120270014
0,0239738917449871
0,0234949821763311
0,0240513612814962
0,0234666693180482
0,0235144877388042
0,0208919192313106
0,0238508232563795
0,0239427334984039
0,0232290387463232
0,0226841120492449
0,0245632205859508
0,0209930050635377
0,0239810307046934
0,0247864873509614
0,0263004502983121
0,0236092645523325
0,0234241553226615
0,0228852325889264
0,02277285215959
0,0229614521331298
0,0252437637905195
0,0254220339000968
0,0243149405474431
0,0220749328796979
0,0235967675248704
0,0256296597739749
0,023943967986032
0,021128406418947
0,0251497282442317
0,0232936138006402
0,0200508523929677
0,0218248268951468
0,0229523595102629
0,0223585273456616
0,0215932178088288
0,0245150689394303
0,02386962809217
0,0208938885439032
0,0235388690257537
0,0221073987214642
0,0209948698221385
0,0217387354846538
0,02341001179394
0,0227294910135857
0,0230895803110292
0,0223497479756611
0,0248060804906146
0,0244591246928938
0,0232329515335736
0,0255170317648769
0,0249886414378527
0,0228987948807639
0,0254475743634369
0,0236247992152208
0,0242988264823053
0,0233446668785273
0,0244222644660511
0,0249676104014568
0,0232263602175177
0,0223969844137163
0,0246736390006219
0,0242992298563995
0,0228752785886801
0,0231727335148256
0,0234051552287327
0,0259104834234946
0,0263182065825673
0,0250629879067829
0,0256484093358934
0,0241609030559441
0,0248691237075484
0,0253065155848798
0,0246676786822112
0,0253047839125882
0,0246874400703248
0,0251542876941878
0,0253116469205469
0,0249211301176708
0,0253756132594653
0,0262065230646645
0,0267070454999436
0,0256581405829849
0,0251882294417062
0,0273460866521479
0,0264735674333132
0,0244371245696289
0,0244956515871101
0,0259030305505157
0,026525640135588
0,0267018074136136
0,0258896069509236
0,0246197608211108
0,0228385748547717
0,0233769535586264
0,0252175481330503
0,0248952085584749
0,0258261512481441
0,0273359894794617
0,0244529277435052
0,0258149351783843
0,0256694336748667
0,0246590499658675
0,0250084263803366
0,0260143145118042
0,0261091774629987
0,0274263528099969
0,0270561475297347
0,0263148253144129
0,024891047123761
0,026592769541968
0,0275374944809583
0,0260715985691953
0,0262535148008977
0,0265251736215947
0,0262604616472061
0,0260645538772796
0,0257876447066471
0,0284361055816024
0,0276591727005369
0,0281054064390383
0,0278284663991873
0,0263820979192766
0,0280095504430769
0,0293597403742602
0,0279296506081863
0,0273238607864516
0,0275932146210472
0,0292133220511567
0,0273279031296145
0,0273845254143309
0,0290330865164711
0,0272635936728362
0,026377642982279
0,026592496252362
0,0264268040879133
0,026688834333826
0,0275680992872023
0,0266235769933001
0,0266286393048731
0,0254468856174353
0,0265175493786766
0,0293260996987596
0,0272210590630826
0,0262559478550742
0,0268678487910842
0,0269322579415639
0,0256470359418809
0,0271107161000598
0,0273117349560743
0,0240016676804846
0,0255835081441541
0,0252568352226266
0,0257978401329727
0,0265759991835159
0,0258061594332213
0,0269876403467074
0,025335198626765
0,0263952595052206
0,0258441867611782
0,0254445955724168
0,0247387759944296
0,0261996367452302
0,0230416502864476
0,0248756659429857
0,0272108070584622
0,026060699142377
0,0267306674438543
0,0278713967373769
0,0279899595462973
0,026369961308315
0,025549223206023
0,0241975562293014
0,026330727568645
0,0265316445945783
0,0268491879593891
0,0255838846499023
0,0247569955955975
0,0287469942773007
0,0248918906899218
0,0240593005630767
0,0259860542672886
0,0255108460435016
0,0247768728265417
0,0256364079526723
0,0259464882082965
0,0267593612295656
0,0259202267685573
0,0247087546491644
0,0251486612673523
0,0256649904317941
0,0257687843809953
0,0264504571177983
0,026250998754801
0,0246012961074679
0,0259057494239107
0,0284852973208373
0,0258672012731857
0,0267857290489085
0,0254298420387372
0,0243654911155218
0,0235268568464723
0,024973501622627
0,0268999317123366
0,0259290824398852
0,025990525277462
0,0257533556612055
0,024241384197641
0,0255721157601505
0,0233077438103539
0,0238466746833022
0,025192802590716
0,0258684843960035
0,025006152801654
0,0248121622372619
0,0245188786975525
0,0244459637516164
0,023639941566573
0,0242639644064142
0,0267067952528049
0,0275920668434838
0,024788603122534
0,0237654744812516
0,0261225651425398
0,0250669811577938
0,0237516633534506
0,0265251893785244
0,0248250450018393
0,0251761799822707
0,0252813022232384
0,0240365621287605
0,0238309779946356
0,0236814692435357
0,0225706904795534
0,0240048910421279
0,0249999710965132
0,026939551639053
0,0241711759651574
0,0222581131384226
0,0258709892223506
0,0253418558246258
0,0242494905407159
0,0256372804260821
0,0267348061292874
0,0265833577039091
0,0274683608454383
0,0266994732383049
0,0229492980378273
0,0243063114769042
0,0257842254179025
0,0238203386118997
0,0239544723236738
0,0246347175796453
0,0239135990997286
0,0236516747796629
0,0229247236704208
0,0221663512793988
0,0215737038908751
0,0221582252118933
0,0213642893269265
0,0242862082892633
0,0225262590611381
0,0203446007573856
0,0216426242114325
0,0243399343793925
0,0219222830449992
0,0203955717995549
0,0221044935043461
0,0211194795605326
0,0235081884330448
0,0225056508383674
0,0227693512439905
0,0235794393321563
0,0211533702686002
0,0211277845592867
0,020775103146709
0,0202585477592415
0,019171489162746
0,0214217341493414
0,0220581090305055
0,0212843217790045
0,0211807911984329
0,0197326889752729
0,0177542288999301
0,0205332702904795
0,0206364781515544
0,0200477314833071
0,0180093117593962
0,0199997999405143
0,0195504056638457
0,0190798843644184
0,0203336443494707
0,0216689319634211
0,0203521114371438
0,0181999737793536
0,0184038646639883
0,0193881007561377
0,023563766453188
0,0286104739574807
0,022582756383927
0,0199438662243062
0,0219105625898015
0,022044302631766
0,0193603803176336
0,0187995938520746
0,0178446095767021
0,0185154550064507
0,017944621327154
0,0195344157688036
0,0208233684052153
0,0224564301939353
0,0214543437389671
0,019374878492704
0,0182736484431397
0,0197289810773887
0,020615427926657
0,0190607729069277
0,0175221836597149
0,0194199343444885
0,0182846216736423
0,0184377005543987
0,0203007600650068
0,019060103427626
0,018735632982973
0,0240033906189687
0,0236879637439283
0,0211281812717832
0,0229935670475093
0,0194219062893952
0,0165025545100454
0,0204329829839407
0,0200978704825172
0,0189869861296676
0,0175595597531308
0,0189319007328994
0,0174053455706397
0,0180656951894558
0,0206936269990108
0,0190916090828055
0,0179276176589258
0,0198204489719302
0,0211181968858572
0,0193806797864356
0,0168121146973211
0,017089322445565
0,0186344694142307
0,0196584661411373
0,017932795547784
0,0221088023245578
0,0179065281125587
0,0202328579073121
0,0283151215435257
0,0219526570750462
0,0181567032707638
0,0179378834757728
0,0190319637499565
0,0190377386421574
0,0180921450099778
0,0198351886396992
0,0196358480334729
0,0201127840033184
0,0201970624996942
0,0178541370014372
0,0170747802941114
0,020216395800274
0,0203261041978092
0,0178855450177735
0,0183677585753907
0,0205489235380571
0,0181026427399494
0,0169479142924823
0,0187250073714002
0,0275622891055245
0,0242209171199091
0,0202261516059531
0,0204091543032209
0,0165368538504303
0,0287216357175412
0,0279453730368185
0,0195056852239894
0,0208971682658159
0,0197176886234432
0,0205548381867704
0,019409850351448
0,0173062751576962
0,0183977500268571
0,024804822370187
0,0217129042930018
0,017997897087327
0,0181152761456888
0,0174693072318821
0,0169093511945205
0,0172115033527393
0,0193362357788665
0,018596032678249
0,0192652656240275
0,0201740354060741
0,017986377048637
0,0177702967017857
0,0170460223479251
0,0173052667172904
0,0210255410894978
0,0226839946681878
0,0200913122310894
0,0195796872974622
0,0207199843392272
0,0142570639019549
0,0209630029360717
0,0284823044206472
0,0202369106308278
0,0162681676504811
0,0179790491408106
0,0204113883941973
0,020834139421804
0,0178252259974978
0,0159620299991811
0,0185698748524109
0,0173368860717133
0,0169106042056545
0,0207484869403018
0,0176661989456896
0,0160339329616426
0,0191770098874019
0,0201764917270973
0,0188295934785457
0,015963327805925
0,0182725634405298
0,0186449745322695
0,0166229228124663
0,0289906169745869
0,0319841451148425
0,0284476600614961
0,026788041446247
0,0211838888335173
0,0189906600313194
0,0189777968294657
0,0187912194454274
0,0211579845113094
0,0199207531236336
0,0185737478134224
0,0176335792335554
0,0200824099544013
0,018012737490633
0,0177075498347411
0,0174212074053038
0,0187342528995913
0,0165619477641883
0,0171889318064279
0,0156520254692772
0,0181001237319294
0,0179065403709803
0,0166251983430503
0,0204057060449525
0,0245162294822494
0,0179185447798178
0,0126919068357989
0,0278184455764447
0,0371505430695049
0,024508558433784
0,0212770114718448
0,0223761762091129
0,0177667981016886
0,0169366192751177
0,016972719615764
0,0226419657951979
0,019200465150579
0,0172504743218758
0,0184395485303703
0,0198533558636749
0,0192605762479146
0,0159423995691681
0,0191963111005306
0,0368274458185524
0,028620844112501
0,0209507018970223
0,0134053636739
0,021890281767134
0,0350559443765552
0,0244201035267218
0,0176978910391331
0,0208005243901055
0,0193524070187959
0,0201180677735431
0,019716976531775
0,019904582404568
0,0229875730831937
0,022599598788237
0,0193546403927288
0,0174669269704723
0,0209220590256756
0,0212164813019749
0,0182850512309582
0,0228530502452704
0,0296345148971587
0,0218402285285311
0,0209540827735669
0,0227445773978256
0,0185399193583381
0,0193949857077959
0,0197762061969604
0,0172197008308023
0,0224807398111615
0,0260149127385592
0,0225077781797444
0,0264000434953204
0,0280687122988918
0,0230086649725847
0,0226043346628608
0,0238695646247837
0,0290204617101658
0,017202556734295
0,0221566467114638
0,032599363517324
0,0380823181406304
0,0274683432296758
0,0275340142508244
0,0193142791349065
0,0246208479827694
0,0188133337788395
0,0179289827820591
0,0243419063964268
0,0280913020188045
0,0207216805201097
0,0207057985623679
0,0223409774534417
0,0267555424359538
0,0275948593536987
0,0222362048917469
0,0181138549116069
0,0162994278411919
0,0320878577134399
0,0231523384786921
0,0175132665106848
0,036229084564446
0,0372917635354498
0,0385326013203829
0,0284066569236534
0,0234915861489042
0,0325485188899405
0,0309902441246797
0,0246767763085186
0,0242038911418869
0,0258198913654886
0,0187239283195863
0,0207851347422497
0,0471067740881573
0,0348703337583678
0,0235119541381081
0,0220274873614068
0,0237158888771081
0,038561403347472
0,035719597172983
0,0230154287068439
0,0257438960710921
0,0247688745683736
0,0173139515021837
0,0396293508625498
0,0433947940540554
0,0350494134520155
0,0397569166811383
0,0416515687863858
0,0300704379624883
0,0345354971013262
0,0241710093376621
0,0369836381428248
0,0383301549967982
0,0344203648094064
0,0182509606223887
0,0365013356220314
0,0440128905610291
0,034704021459286
0,0283103530844231
0,0318241916802907
0,0145154287080049
0,0372963540055592
0,0690846488527041
0,05613578231596
0,0305154397234116
0,0332989244045847
0,0419079630807065
0,0390767260818655
0,029206504182071
0,0289621892917238
0,0281547814422298
0,0270463408116192
0,030164778402425
0,0377716149096288
0,0311000889956791
0,0356178039455591
0,0312614115317005
0,0312207348445362
0,0375045692270363
0,072680452741837
0,0518372606023014
0,0507264366320619
0,0438744678984543
0,054388011003028
0,0432814357383735
0,0403757550068363
0,0376670612825894
0,0397866661069185
0,0432599768191619
0,039594833118969
0,0380212061697009
0,0519886411039792
0,0439211809075292
0,0622689976391685
0,0567850246900802
0,0552614454228698
0,0347594814860753
0,0514894086329378
0,112392024428247
0,0888457269387626
0,0597375115550919
0,0522639385909955
0,0639984494030501
0,0920942993367725
0,0748084423727706
0,0569188275907329
0,0613117393360916
0,0586091298278067
0,065727549758611
0,0712593120694706
0,072901636091911
0,0778954484604249
0,0734797905800062
0,0661931990464385
0,0723203632437162
0,114071781293698
0,127155024493383
0,094332854933306
0,0856356414737781
0,0916714962016515
0,0971954540910819
0,0875799452342692
0,0932764540270975
0,0812429728876546
0,104076196623912
0,118172385946816
0,11873448268536
0,0891498919763603
0,110422549483101
0,102558040932298
0,112701644816784
0,125306714049824
0,139750136880159
0,122772284832441
0,110383918366962
0,117915254894756
0,113291622273154
0,11945850590833
0,131138912958773
0,140092590816111
0,12898424532072
0,124681119642941
0,129452513634853
0,12765235915496
0,138792566674354
0,130970945407158
0,137251978406955
0,136498569370709
0,149609862092518
0,233387112638689
0,164236731413154
0,145099546546913
0,132626693417222
0,13948054473765
0,152950455231112
0,159880822918785
0,170800316293506
0,164640187292164
0,144731928811331
0,136850502987835
0,141086358381693
0,134473398751462
0,144901792385711
0,133297372464313
0,137860384543505
0,146659216724477
0,132110884476041
0,152399231017297
0,168191542327667
0,148786863053507
0,129318215784425
0,137524317868477
0,130238116641136
0,139795869381299
0,117802660273619
0,134391687951419
0,130663897997986
0,137377158493829
0,119560807458671
0,120354658699704
0,126111624610173
0,139187695843053
0,123689669396691
0,11496504011249
0,113185022482128
0,113107853568198
0,102513012710419
0,115833170875706
0,131957078708271
0,123457118785208
0,100793821936093
0,109563355651052
0,101086114331781
0,104517868634571
0,103048273093155
0,112348204117194
0,103260187894429
0,103031792019645
0,0994772673361854
0,102236964784283
0,0936400515472478
0,100268115225478
0,0985804918930445
0,0969329465814906
0,094066932923899
0,0957064786412306
0,0985849812265872
0,0925192369674285
0,0908545478412349
0,0964049940680529
0,0966210593093579
0,0977372140741085
0,0927105468622056
0,0927716260014914
0,090707907825377
0,0924400419429132
0,091801375526441
0,094705376119441
0,0929232057907214
0,0921126045226552
0,0908753634803836
0,0910024012552279
0,0946081784665322
0,0893789045145234
0,0901155068036048
0,0881396871634984
0,0909735712855539
0,0884681796428545
0,096513966129745
0,0865509932871796
0,0878643316742148
0,110776496019826
0,108548646178198
0,0959398951565545
0,08132243159038
0,0956602523549059
0,0784639009857609
0,0886180040002198
0,0978034239208226
0,111065154147374
0,0910682481792045
0,0871061202577128
0,0797586611977349
0,0963314956666347
0,0873611013859357
0,0922552807585245
0,0782002212101012
0,0791143575683449
0,093837631803104
0,126632510906096
0,1352137990285
0,136537080177087
0,113237674049245
0,0727931827667176
0,0978157098017328
0,0983783106060862
0,0990375275931564
0,073054916864295
0,0859278372961634
0,0906102243772113
0,0914935046541689
0,0875404422640681
0,0796320875379146
0,0796544919299559
0,0896494955469472
0,102043505736893
0,0896101328584196
0,0993286794759414
0,0966230774844582
0,0967847454249777
0,0897589211363715
0,145725072459913
0,107666217055592
0,0847449049929566
0,0847596570040148
0,0751025297805263
0,0961202915529962
0,0944974590483157
0,0943912256092532
0,0901631967827395
0,0779613004087021
0,0783526094575143
0,0768521384068221
0,102127135014473
0,0734715766845226
0,0939850724949453
0,0833697744967346
0,0886402673621695
0,0700085518465988
0,0921633288996315
0,106768701659927
0,11696060036377
0,0887805369789286
0,0731677435874584
0,100277005146783
0,0996871669900408
0,0973081211008663
0,082323570407409
0,0719457469405447
0,0792430683627379
0,0869919062922602
0,0830908518722639
0,0788952038698836
0,0851732827297476
0,104639077048999
0,0991469840427264
0,124350136966253
0,115464888176956
0,0884812589980246
0,0787207299300234
0,0721680875267329
0,0831846954169248
0,0721501032647093
0,0742558651348739
0,0882127694790187
0,0788771404222157
0,0925719608566295
0,0945300575414813
0,0956457719714482
0,0788575289827211
0,0807615703834807
0,0812284491833432
0,092151714045511
0,106881755008704
0,125451283472709
0,0966619082200728
0,0981095009109169
0,0954413670534812
0,105734003753298
0,0915062885881506
0,102174615715043
0,0943009933498796
0,106225170591245
0,104774517144621
0,112497256078991
0,110787813869206
0,116305866405595
0,10849539978844
0,147194389331547
0,128643070360657
0,139610303967457
0,125102209314789
0,166658124330107
0,160667701223871
0,158919089705642
0,149243337374654
0,147663926601699
0,153649731901179
0,157259966513397
0,153910526869444
0,17427840499867
0,172374233376168
0,18382771449975
0,162616396747169
0,178602632875505
0,168220584698301
0,189135918270755
0,189061933842941
0,20038894277999
0,223191446326616
0,209063961981365
0,211267424687334
0,184621565703472
0,194634085045797
0,19080982083944
0,197372728259769
0,19431738727559
0,185606284929655
0,197356674929663
0,210080787328277
0,203549240635605
0,194749029086514
0,194533092964373
0,195808786292934
0,195907398191841
0,197561630591647
0,202720557437165
0,20179556956294
0,204825651545624
0,190583242189445
0,222822579169011
0,240245009416238
0,231947845091254
0,208003653131874
0,209597835750863
0,218355252807566
0,211581534307974
0,213750132624911
0,220391609522849
0,228720835985389
0,225106256568334
0,215062305289165
0,225274920590957
0,21628960355884
0,240190885993569
0,23017030046676
0,238423981696437
0,228882819640774
0,225396047987237
0,248970194245109
0,253083490900435
0,256598020456138
0,2337902396612
0,250678448914391
0,231351888652003
0,240853386603751
0,234318188592237
0,239975428063371
0,233897992356172
0,241763933796831
0,235865390931218
0,230954429693161
0,233778333954805
0,23025992152718
0,240273048933993
0,242982877613307
0,238039888525229
0,229151660069449
0,231726053561406
0,228221972552055
0,230451981633935
0,24323745024547
0,236391028205794
0,229401502558069
0,21864027259737
0,233581856193025
0,24069027496737
0,233485842369127
0,224271784897965
0,220623285280912
0,219292521924162
0,225838650911308
0,216488319389256
0,232139305519186
0,228067147117243
0,240883301111446
0,225289473670178
0,237385828220939
0,227050744622308
0,235773571764608
0,231744521362621
0,23989685739609
0,235328726441919
0,243060983783846
0,247484914687603
0,245210648374594
0,244158354017202
0,252179269283884
0,253889660221065
0,255874581792804
0,248223016799067
0,251300386023485
0,247402119763695
0,255552412204063
0,253907405107318
0,256726886293694
0,246703976710068
0,257960296030071
0,238944967587078
0,258283100436547
0,260631300387831
0,261834398013337
0,249269819158543
0,246622448619946
0,243350205538301
0,241749732767475
0,243481836807684
0,238952003315006
0,237014640476319
0,239818131036518
0,236922750296648
0,235334226111273
0,232730106818552
0,231229958954343
0,231323650265336
0,233250590294956
0,231457233983029
0,234046040665323
0,22762550557738
0,229766159758464
0,223590573371171
0,226845459904743
0,22578111068803
0,230121141585499
0,228455459603457
0,237663759119686
0,236234514484749
0,226999346620153
0,232977327397087
0,227394177338733
0,227578590431251
0,220455745074757
0,223708927668323
0,221343235445442
0,224005430366834
0,216479324441919
0,218020278309827
0,215680070389426
0,217171567957346
0,213266893150185
0,213992197438208
0,212198878259814
0,208861452859591
0,206307712805652
0,209140165349957
0,202988477549992
0,203533355734278
0,206251041881066
0,199835294665612
0,20276838978178
0,200361843518839
0,200423828532412
0,196543680141221
0,197642455301997
0,195578555453881
0,19780225217756
0,194881820183743
0,193411325410381
0,193582492192016
0,193443890937301
0,191845539290277
0,190082925143586
0,191330105959186
0,190807663579042
0,187764085544758
0,187418209886984
0,188091848793495
0,185940473601892
0,183634690568622
0,185016027351581
0,181115622189755
0,181345358667898
0,180457280969661
0,178280979202811
0,173948479982499
0,172534110074691
0,169777513330539
0,170198797256919
0,168291308987625
0,167404761204934
0,168649204151766
0,167620211743396
0,164622060926243
0,163216130874421
0,162442021431748
0,15981060554645
0,162373209081293
0,161992081164947
0,163228559870358
0,163137447013396
0,16102329712833
0,163192100919061
0,16149816971507
0,160136466836886
0,160873325935104
0,164978475806632
0,163096028022476
0,164731863597881
0,163271694417496
0,166393549361245
0,161932828986067
0,165722448855316
0,165526201611468
0,167119790769023
0,166634404280203
0,16754226937699
0,16599727787792
0,167172498038002
0,166958987299075
0,168572226748343
0,168495285419345
0,171084784370128
0,167552310489004
0,168659569056155
0,171814015130625
0,16983256348946
0,170372986733293
0,170819488564522
0,170505220187654
0,169550064237687
0,169678733024552
0,170139286012735
0,169861760987434
0,168295462636081
0,167584001302578
0,168990006987964
0,169006379025018
0,168568461689786
0,167413879464557
0,169097887510172
0,166651035445962
0,168267252496185
0,168190571739966
0,165910377593369
0,163496864428515
0,163694106018051
0,163876532250571
0,163293465078496
0,164097071098073
0,162146828310215
0,159627190911169
0,160174928999033
0,159762627241549
0,157774890280359
0,156812926690068
0,154544690725699
0,152141723871376
0,153348657096355
0,150487462746763
0,150805203061228
0,148860125529132
0,14828472960439
0,144619610004473
0,143498399852884
0,142899475397966
0,143222072399203
0,139846370419453
0,139927411548537
0,139741564408384
0,140256922275969
0,138208704089999
0,140141270053034
0,14005490410785
0,138313172624817
0,138522293609687
0,140428289121557
0,138011690824925
0,139095643193075
0,141094606062099
0,141108606231218
0,142079505601222
0,141491191356049
0,139702665100464
0,142243818767559
0,141450927311699
0,13888543481015
0,138095576455204
0,136651971222611
0,13454339075472
0,133649349008723
0,131274835800819
0,129571788603993
0,12846308457
0,124861810936117
0,124696407906814
0,122390113017325
0,119732520546644
0,119397811662943
0,118249590350844
0,11540253839169
0,115229366882896
0,115347477994147
0,116089041431182
0,117275864891895
0,117754429831233
0,120892818005897
0,123520595271258
0,127843869541271
0,133367798450932
0,136146443664813
0,142432202145106
0,14686609519065
0,155961527487615
0,162283127391702
0,169249207028157
0,178823139119723
0,190482942463119
0,200080105323434
0,211201170581418
0,22250329329284
0,23681046135967
0,250534068797236
0,267985779412081
0,286455384590432
0,302342638793849
0,319013418179108
0,337802178071544
0,355471858030383
0,368450171332942
0,385372228971586
0,402579157464633
0,417385572793179
0,431476640406958
0,446653611443697
0,457341441901472
0,465205194387368
0,472004583372002
0,476654749993951
0,478048653615364
0,481613894293626
0,476696573445899
0,475877242959392
0,475059576453722
0,468035934210863
0,459243922973904
0,459782395163094
0,451591563348156
0,43941192712308
0,431034594312167
0,423290572851858
0,41809156376748
0,412304416753264
0,403539463314933
0,400702477068931
0,393195167180399
0,390781486668125
0,390085084488991
0,389927300165616
0,387579080938409
0,393259038552681
0,393539963589955
0,396158040970755
0,398776599203428
0,4030786829632
0,409552696131033
0,414821458153244
0,417930008553191
0,422971746274643
0,422762938100565
0,430782595294919
0,433283828079621
0,439731776715187
0,443108252905475
0,446616680091846
0,450603003836691
0,452742188140213
0,457596803339033
0,456454554645448
0,458787496509261
0,466112428147273
0,470785473518048
0,474248319867203
0,473115425546405
0,476977888815914
0,478538338227499
0,48672028662049
0,48374077654291
0,487734826325444
0,487319840593534
0,491666484257295
0,497916588570049
0,496072346205438
0,501060329005002
0,504055224795004
0,507417937398877
0,503432237604744
0,508352145928023
0,51103156429626
0,517282537674302
0,523890474353469
0,528668069097599
0,541103585473872
0,545582994265835
0,558321250387999
0,570372595810781
0,583739378015747
0,604929460426877
0,61897748229662
0,639751529394082
0,662466617803689
0,67942400003945
0,700794717066089
0,715206278840456
0,734836656872992
0,742395735167687
0,759769162501994
0,756325278841258
0,764870521221962
0,770854773417227
0,760665163562007
0,751436962745567
0,749556814036277
0,733438165749586
0,722636937842089
0,709971646465613
0,702946447659528
0,690160992995957
0,687834529735404
0,680070868685498
0,684495481169447
0,678013557461062
0,686658058919056
0,691964335549943
0,69989890153193
0,70740626210301
0,724543061486758
0,732123832075508
0,749475211520791
0,758390773484492
0,77763690972144
0,784655533413698
0,800057157273008
0,806338517921398
0,825090870274952
0,831356167290164
0,844197778645367
0,856503720706056
0,873523686036996
0,883092279618103
0,899845329999401
0,911236314940422
0,920058819246425
0,922133211234808
0,951246793174188
0,979624727890419
0,984959410861518
0,996027126902682
1,01310356746385
1,01084820742753
1,04234669978552
1,03999541305054
1,05506571089211
1,06691615054059
1,08231467907388
1,07640949376176
1,09630218546499
1,10778777302919
1,1233986582721
1,11790503721056
1,1304016909487
1,1250591368769
1,13779619357334
1,15297733471345
1,15918803942022
1,14751778426947
1,14459041626619
1,13681821469631
1,12300239372165
1,12586990697214
1,09525805398276
1,07926175701052
1,07618140722133
1,03329426269307
1,01842062076549
1,00133491912727
0,967807186870158
0,932942668038396
0,909694082773627
0,884568633971216
0,853670897092964
0,840867256599459
0,825713072036796
0,791548129127653
0,778785041881992
0,771727551876457
0,759620701083732
0,743764620335004
0,730524279534476
0,719858357275712
0,717124575856296
0,701781120820894
0,691222431467788
0,672389960308791
0,657576462009765
0,638956060157632
0,629824749657619
0,603187940625553
0,582635925394082
0,568364436253757
0,540144984673536
0,518444637989374
0,501908009180092
0,472023610591469
0,450993527244239
0,41795927364309
0,40249160013951
0,377598698760419
0,355228521452018
0,333960239000408
0,313696050008022
0,28659395084197
0,26971448520229
0,249199341148376
0,237537615197631
0,223133347065593
0,208104813880795
0,196210138922087
0,185211987306984
0,174116164793677
0,164992769343899
0,151462744690718
0,151095537133544
0,140416923823281
0,138770181698065
0,133532131865085
0,127223666718375
0,123354586179355
0,118549807721124
0,113827559810995
0,112938549435977
0,111828349753338
0,107612279439057
0,107016840289804
0,107117320028783
0,103177118296013
0,105781351557571
0,102065402416575
0,10101711881497
0,102165165356165
0,101231991691793
0,101618641883733
0,105841538785892
0,103950793097718
0,107169600027166
0,107105051924393
0,11233737715227
0,113760322723082
0,118997862835411
0,120318608890948
0,12180778246474
0,127381708405872
0,132325295206483
0,13897296590655
0,140368961206979
0,14455834571555
0,146264054848189
0,147284099296003
0,152165659427906
0,150341734555256
0,152920182556601
0,156648959990385
0,151683229832145
0,155110061147744
0,160770090591991
0,158976703990744
0,157572825185911
0,158463443043111
0,155545481427397
0,157501031153448
0,154146512524409
0,155630412261284
0,153916870058326
0,155938191980968
0,155592625098571
0,152769131046463
0,153359103551588
0,147761706516978
0,147709546028777
0,144131709552581
0,143283966310806
0,145104428911037
0,141185749728932
0,141642170727344
0,137247198158271
0,133979039752669
0,134310483191771
0,132305737609981
0,135374575760566
0,130821424730452
0,13506692852808
0,132959786052698
0,127566168412749
0,127304818177129
0,132318216806622
0,137857722183242
0,133949396990093
0,135673467464972
0,137298559662837
0,14082804429824
0,140278940742253
0,139779122400227
0,14199319296813
0,139650547975322
0,144050577166781
0,134735319472273
0,141723459214646
0,135524740760583
0,138800694079053
0,131361270570452
0,130428362008407
0,121359006484293
0,122048107888422
0,122788879755062
0,121649780338941
0,119202214389573
0,115073863124539
0,11389414467723
0,114078661633786
0,112537773882619
0,115659997431395
0,11864388370592
0,119563177586369
0,117257318891979
0,126550508821871
0,121225770397692
0,126507450547166
0,120867204563706
0,129910737088299
0,131098906200743
0,133013912431463
0,133352539168362
0,132388584927986
0,134366683929803
0,138663552871844
0,140189770811713
0,140380197876271
0,145058752480713
0,139475478436463
0,141116619784197
0,141016866585787
0,145050346515741
0,146082445522201
0,142952382425356
0,146910493876772
0,15239059847748
0,153107671457385
0,143219242928308
0,140999123643007
0,150807382577951
0,145859130245495
0,147391538258442
0,148153096786851
0,153149787965151
0,148698461372616
0,146129171663289
0,146197937921316
0,134327881098033
0,142776977463189
0,144314278255122
0,142386553582258
0,136104730515363
0,135075576576735
0,137903486705213
0,13692620864716
0,135099659418231
0,11840000064791
0,129520353070181
0,127850340190411
0,12468500007343
0,119925626139697
0,123794068635425
0,117147203265215
0,118277569224531
0,124348949144651
0,110533230186889
0,111042494401586
0,118729344659804
0,103313074292229
0,110523209987716
0,112416065565724
0,118960052852195
0,113708377469349
0,11986559967536
0,115379853225958
0,113883929462718
0,123004196338725
0,119965471698231
0,126372438399158
0,121701975497125
0,116829790326021
0,121772081769109
0,118805054787448
0,123443328142471
0,12238636855135
0,133213541097114
0,133999718743604
0,128405005244139
0,131510273769198
0,12645772046899
0,138806719014335
0,134237369953654
0,145094566034322
0,1376193595165
0,151175412953
0,144234302191446
0,142456284306908
0,146388985481402
0,150315809074152
0,16360791647873
0,167011320882294
0,169188872073132
0,179736345513596
0,176816627103451
0,178979443041593
0,172931310218686
0,176631563625583
0,189951905002206
0,185905372739423
0,200330657344819
0,197310471848505
0,1907592214059
0,187872805520285
0,203014428842253
0,199687679300639
0,205628915752469
0,189459873979267
0,17585693692024
0,194038572200406
0,200001161242747
0,189045135268525
0,210899373602369
0,204623746996404
0,193394125152616
0,204744608690171
0,222165878612486
0,215230651123985
0,194018955483045
0,206318166440386
0,201741897279889
0,22495881960669
0,230056669991158
0,221707591189254
0,212713472875259
0,214867070319134
0,20736082802825
0,230461116259681
0,217746565319261
0,204001830450987
0,229859712737326
0,21955748655065
0,226245954473381
0,211625802848655
0,220753959631548
0,197100826071328
0,20804882524306
0,204189871961239
0,194552908375747
0,199963369719997
0,19357797384589
0,207574556502272
0,187506360196423
0,172627073929363
0,175621401469922
0,178696994212325
0,188748835322844
0,212993834239018
0,178862682810169
0,184987493192776
0,181991427752665
0,187601871861746
0,204848639944624
0,210087708211239
0,194644311404075
0,213069874514372
0,179233160072227
0,188315857841315
0,187779266777281
0,175096514882519
0,200494124198388
0,196420940642411
0,216858081524004
0,229027683603333
0,213147622211924
0,224872885447582
0,169320631403165
0,212057228778044
0,214293102478724
0,254655217334431
0,227470590399025
0,238964851781099
0,239186597230841
0,240122721715632
0,198845380020627
0,229062259601602
0,218161783546318
0,271898533668935
0,27136355551179
0,298921747130927
0,237364731446273
0,277865645820813
0,224055177407564
0,247327780724119
0,285112178422145
0,276392174290215
0,25773022646796
0,313401812765742
0,274579609365122
0,255643207851259
0,271756079658649
0,262210259911759
0,274224223687635
0,291076641825215
0,2241197805223
0,235178052518439
0,270650221392648
0,282334810683363
0,238942542522693
0,228333807329592
0,254147566898874
0,254067153567527
0,265564121603811
0,274435326515892
0,282794898809567
0,253288304070641
0,220975836403942
0,242878375051119
0,307176585356703
0,285056157483251
0,25263243164476
0,251938814810487
0,268482790901782
0,221888351577095
0,215548689402428
0,247761800461408
0,24667750941607
0,253451826096094
0,299000978381069
0,324128927112899
0,216405346234134
0,269450628465246
0,262701476624709
0,172213569156219
0,298153226593827
0,314352837960564
0,226836409344845
0,188543224284
0,214981021534904
0,180196190658252
0,25875973627457
0,255475591009085
0,33613995934701
0,309227685117233
0,168352004207518
0,29801756054851
0,287868085570167
0,172228099768639
0,0514453714575537
0,411351463990917
0,246403275490789
0,311632027939939
0,261772454170261
0,449988843130622
0,149941703811051
0,430846556958844
-0,0199306884183749
0,226143163095048
