3596
4000,36533379555
650,420452594757
1
2
2
0,0162175776728393
0,00573723830220309
0,0226070368280668
0,0129448792906458
0,0137452927871115
0,00277398372239688
0,01793065059564
0,00858044249967256
0,00886728534987056
0,00959154372478247
0,0190742633901149
0,0109155996033932
0,0145874874746839
0,00869567302306043
0,016477155468498
0,00523769284721972
0,0196365489798426
0,0205797998989627
0,0199917091203133
0,00760265652503548
0,015615541662263
0,00448241892141894
0,0107598763230204
0,011580556963882
0,0107915463759688
0,000203568196426657
0,0147469307514322
0,0101378310689184
0,0155756105769534
0,00263144758146335
0,0208638432273718
0,00800658825672363
0,0138287119017938
0,00694908241754667
0,00815712163123348
0,00629378486851051
0,0144913008241537
0,00669555116644702
0,0110082488544932
-0,0021389938843457
0,00924901990338069
0,0126729254072933
0,0113715023983926
0,00939261508208761
0,010646919332325
0,0143290682739483
0,0129061954717856
0,015131108364106
0,0139978294872501
0,0090741751111396
0,0219177394592014
0,00587551804832826
0,0128892557794982
0,00683385414295988
0,0145332934257618
0,0100701305521446
0,0136257549216948
0,00773881516471953
0,0120176793319078
0,00469994071573027
0,0132728375756173
0,0168929312247493
0,0148925631164948
0,00569303188646948
0,0137284275601031
0,0102333759460785
0,0130027319003833
0,000791841217791069
0,00914699425712145
0,00920237585791499
0,0206153724904636
0,0139352913415873
0,0237038120211017
-0,00128166268720529
0,0182102711617342
0,0140584706801402
0,0142627835888738
0,00957415481082925
0,00970867151889142
0,00658604665040056
0,0202857687197886
0,0115490894408008
0,0124178418027083
0,0104892239971806
0,010348900338055
0,00945091973354903
0,0141138808108224
0,00307154294531341
0,0247202649679184
0,00470505136339099
0,0132646961993238
0,00483770943126801
0,0155363111521188
0,00972438804084124
0,0217104623377323
0,00746463846250473
0,0172987724406888
0,00212357829413335
0,0193334740383702
-0,00512045638153782
0,0187564043650362
-0,00374317452846101
0,019080857586276
0,00938535526426194
0,00740850456050427
0,0196576843001289
-0,00257682845049654
0,021709571969445
0,0173590387449868
0,00817137166682154
0,0135410391796901
0,00832183533360915
0,0129349002611911
0,00369691153048131
0,00965041664599882
0,00198786717759714
0,0248742350714686
0,00478034583502717
0,016746421626188
0,000565180085188524
0,0123753665668207
-0,00478282016413354
0,0300898922526626
0,0028075028700538
0,0152422915999908
0,00618028997389649
0,0140062917117823
-0,00491738575389687
0,0251132656225691
0,00554612231503599
0,0186833504837314
0,0014701285114684
0,0179165575173157
-0,00402763072034319
0,0232954450590781
0,0172910640419733
0,00637871502073468
0,00449153182117617
-0,00151075807656149
0,00900925298068144
0,0227345522116226
0,0024652020954761
0,0176772751718547
0,00399864901002874
0,0205465974498038
0,0112423330215052
0,0139892008640877
0,00338350545143589
0,0164129946951803
0,0062990932836713
0,0186378888544665
0,000314782006379394
0,0163712917880352
0,00443958724740857
0,016496478146998
-0,029507457497164
0,0345047189710853
-0,0199159995873453
0,0310910640000109
0,0111285096744088
0,0134783975991244
0,0124395653471552
0,00846113144724196
0,008002067996629
0,00337507730567056
0,00171942231063192
0,00943684446623412
0,0201130205129477
0,0127332211801874
0,00974625786394005
0,00669644452051711
0,00957937176004456
0,0103256125630969
0,0133205328948322
0,0312333978078766
0,00481027014561523
0,0347086364410075
0,0137230712250703
0,00943425134862098
0,0027462557450557
0,0235234096701451
0,011819269788121
0,0155094155012652
0,0036931335341556
0,0148319922956884
0,00815294544607043
0,0166684795814777
0,000565755976678393
0,0117334478021814
0,00181497360783863
0,0113671181477013
0,00585434558860613
0,0295859597365305
0,00210533870646717
0,00925434328954929
0,00611469497652348
0,00302587964340037
0,0241874243112924
0,0148756803143252
0,00514076222923467
0,00991201095873086
0,00762479727070593
0,00985066157391309
0,00988735211227423
0,01142117930217
-0,000856709654425965
0,0239012306937098
0,019177976256248
0,0147012270679181
0,0118634299673868
0,00731583694312276
0,0122053428801623
0,00484106660843409
0,0183275701250552
0,00612009319366987
0,0133470971691725
0,0100223268806188
0,00148603322113447
0,018062909715179
0,010266338547935
0,0118253369748387
0,00831057840143364
0,0142894376926599
0,00314890190926297
0,0065844157762941
0,0048150020063767
0,0114976866050589
0,00938531209906126
0,0151794124358673
0,00540501704082646
0,00300592382047935
0,0117075785111091
0,0160437631932776
0,00749800793951381
0,0178457191403651
0,00434294905576137
0,0271079785511115
0,00751725869406301
0,0181050073888578
0,0120987691699985
0,0169184438252346
0,00593367851809021
0,013825046273856
0,00617495335524984
0,0121514555619958
-0,00175199747800668
0,0131138352457712
0,0101351725374444
0,00619030100194483
0,0117029866733393
0,0139984770790727
0,0230549930588822
0,0137966309499725
0,0114562946414472
0,00562806823273756
0,0117717719986431
0,00180707107785003
0,00922105486879891
0,0107340368059013
0,0128494956675097
0,00829672896479728
0,0149753137361348
0,00721965912318329
0,0115496186804775
0,00277816317007659
0,0138929249303096
0,021385204598543
-0,00905547057754322
0,0277525412026487
0,0250686085681883
0,00598241887082253
0,0116217595629631
-0,00671063028450263
0,00102990491777201
0,0272680179049286
0,0116011206220967
0,0105867669973045
0,00716139237019332
0,0202043945203027
-0,000775636328270028
0,015016656521494
0,00576673127453933
0,0216484365343667
0,0078733228188009
0,02590386791016
0,00386237791105457
0,00561389965682124
0,0255085155165843
0,00685737890862427
0,00843019329248705
0,00635632263423896
0,0115082313838022
0,00751044382925591
0,0174978129192441
0,0119657874412867
0,0196933103690063
0,00237463746094844
0,0153378346735753
0,00979405487736935
0,0106361818705411
0,0160681030315214
0,0155928145368871
0,00959961813233822
0,011114226105741
0,00737822370626871
0,011495534288589
0,0145521831036679
0,00210773041359363
0,0169270696875269
0,0205035840810652
0,00292940324395663
0,0222536074330159
0,0214432805823789
0,0116035541578148
0,0088735963114474
0,00803560996690627
0,0130742851283366
0,013356042409112
0,00675881380502353
0,00961760420316727
0,0230411079036886
0,0123258464237488
0,0141564338222967
0,00984929358570145
0,00817048692326964
0,00508319040702437
0,0137281657492682
0,00735598101078652
0,013339375250748
0,0119654601076247
0,00728995452803566
0,0245239618103694
0,015117718746281
-0,00525427023559784
0,0359354350255246
0,0099761362255559
0,0163402561239184
0,00802573266450983
0,0165996590561027
0,00418724284074338
0,0129267264691395
0,0139446513718792
0,0137967532384674
0,0165197908934078
0,01227690365617
0,0045112457068401
0,00390191346505222
0,00552506529957849
0,0348614275903107
0,0144973135507988
0,0221496332211183
0,0143046043540265
0,00973656813846984
0,0338406351113227
0,00881662494272973
0,02719780935874
0,0153026166149828
0,0156801756959979
0,00891107634205229
0,0105833069550098
0,0199161002130123
0,0175925904454303
0,0208432882584265
0,0177425148166472
0,0212382510832233
0,0140385961922021
0,0271656546729957
0,0138930090601348
0,0295975484907758
0,0253290979387067
0,024058617667799
0,0273691165646968
0,0214053913225747
0,00962176366679251
0,0384530128723449
0,0155115363879274
0,0356100491847666
0,004677256459283
0,0474302402153278
0,0212010469431398
0,0274355574346924
0,0253601362739949
0,036551275909316
0,0259425590461936
0,0289862103128728
0,0248288991649831
0,0268749796668139
0,0182373701381184
0,0405661450332629
0,0246449760977837
0,0355677187330377
0,0195384703462128
0,0394420369000087
0,0323028956800026
0,0278809865616359
0,0319489122614526
0,0294140506504939
0,043296183421595
0,040292715030524
0,039404336569972
0,0373878561136752
0,0419411260598118
0,032134658655037
0,04797628709588
0,033333173311811
0,043560918772964
0,0397004270834641
0,0351089463966022
0,0547379939560792
0,0341753068612768
0,0520803114772538
0,0353689498675994
0,0449592660032752
0,0491762122951221
0,0494519205857522
0,0538359779653224
0,0601160190800067
0,0501596390315348
0,0377457100651865
0,0683593550422149
0,0446134720726654
0,0558661921561957
0,049394095159038
0,051383220515332
0,0572522324500613
0,0544545932461134
0,0511121267802915
0,0524271333405485
0,0657147595512722
0,0570321920229566
0,0638938968793567
0,0585239770118329
0,0687946758605228
0,0573766810787536
0,0724169838910755
0,0561274580060746
0,072462773646278
0,0620029082371756
0,0777715390609
0,0704611414875965
0,0671068228422528
0,0773817126297973
0,0633885319007097
0,0704639400740759
0,073617286540344
0,0807847172391505
0,0775230522634498
0,0706306710423041
0,081846765945145
0,0770859222340457
0,0778520368946243
0,0889036677785811
0,0887629881045778
0,0832040111335091
0,0880035609190012
0,0830532888940706
0,0990262904046701
0,0865776277455698
0,0953966256189579
0,0861569241041822
0,0909131321253073
0,0997371520968172
0,104982178278154
0,104284447948936
0,0957896013187229
0,103522801297943
0,0982056491244387
0,0967793863181576
0,106249734869971
0,108802934749008
0,109911038025259
0,105643468712421
0,110957546089219
0,116918516975237
0,123180995265893
0,110384494260641
0,120171242190883
0,116005506008911
0,130186651165984
0,12991681265169
0,124807271838685
0,118047055358683
0,127067062489457
0,131925203347416
0,138852916429088
0,135726939909037
0,132865564138891
0,133306165236281
0,137772051640238
0,129802591055641
0,134334301550224
0,134338314581392
0,146546277127004
0,146217775250831
0,145068794190357
0,144841103549161
0,144204448384824
0,144322554441669
0,14839219105384
0,140009230159197
0,161893815427159
0,159292865891037
0,163666133754753
0,153882318220665
0,15961261903514
0,163365956514447
0,159227648651026
0,167226067460002
0,175733889980525
0,162816598788306
0,165495613829807
0,164479740286438
0,166240627573733
0,165371042663326
0,181761883003626
0,183061817886115
0,191922087841003
0,183091340005034
0,184276504737423
0,183632286054013
0,186531748827201
0,179657929438981
0,192058104055233
0,187938408155623
0,196373827942325
0,187222150386182
0,194654515965975
0,19471198274549
0,210786613083121
0,207168348870694
0,195915639572178
0,212103371969473
0,221245803906369
0,198465586328458
0,211584504750482
0,220916054982774
0,214953240341904
0,223047055917709
0,227146264498333
0,217224685505878
0,229810256136634
0,22664190238716
0,223290078702656
0,210890756315915
0,230821644972817
0,224334346992112
0,23938761734307
0,218065071875956
0,23161601457711
0,234725023712033
0,241076979694538
0,244219015454895
0,247525117444625
0,242957093753119
0,246459712500432
0,245361784237408
0,240238090775721
0,249142451139089
0,262837785542966
0,261747303886145
0,254171862499491
0,246944661328922
0,262571334804964
0,260557992966691
0,266992871444194
0,27149670465171
0,259741783836489
0,255799125257835
0,272602473478297
0,272870258528485
0,271999236711193
0,269823512685751
0,288829028117135
0,27713852550951
0,279479958550328
0,278376301220484
0,296407811152181
0,283297310018157
0,289194241207713
0,288357428055515
0,285742594125161
0,286962978222886
0,293870536799131
0,292739997765445
0,306172774444996
0,299812021096068
0,301319603702476
0,298918705534538
0,298888953762832
0,303728403188157
0,311189082690279
0,310214700573677
0,313141147802128
0,314479050497809
0,312557198069986
0,308552973398805
0,315668534199863
0,304219281509071
0,318405844119169
0,307878473441361
0,322696121492744
0,315175283177444
0,316199949223958
0,321571859637944
0,333444847665834
0,326269650984433
0,324023073617775
0,316206836631637
0,328046063851203
0,328683830826211
0,327327696780363
0,32516348390354
0,332751148694237
0,333832538088247
0,340141570712982
0,343536736180067
0,343409825362405
0,34274374373793
0,348682978404778
0,349478168263022
0,355834320844276
0,348944560006846
0,359903977077594
0,360604816722021
0,356581811225537
0,342514562554775
0,345899311227097
0,34029546534892
0,35906341449382
0,353191528784342
0,357022218687624
0,362118407085965
0,360684395387222
0,355045041897622
0,366109657817508
0,347739111868123
0,361816901371911
0,355655687138621
0,367973160845632
0,360155685328974
0,366081932380571
0,357740522342675
0,365351029688691
0,365798570162543
0,375740730987485
0,374452126590131
0,373274073775167
0,374785075831389
0,370955420237205
0,369852634916197
0,372857283620728
0,369631254934172
0,382774867566006
0,378706817145497
0,377670959692659
0,375754532253749
0,386806701180548
0,381092965753689
0,388245369879959
0,38883516905611
0,380932851086768
0,369662278907082
0,389386163540965
0,373835783332534
0,372079890612351
0,379853373433374
0,380674025693422
0,383677436270924
0,393665040584989
0,382801898291754
0,392686674516687
0,385394609667906
0,38206031516386
0,388496283932539
0,373900605783787
0,37708553310958
0,393830029048394
0,387501822257156
0,387870372303712
0,377418056609219
0,385599944795493
0,385882221896591
0,391863983766388
0,373921571232923
0,397841985818245
0,40247957597798
0,403442621254026
0,38673999990872
0,397925477188996
0,399085689909232
0,392201669999812
0,396117531327455
0,390699153766016
0,393213842016596
0,406541752398269
0,39238254906927
0,401221857607206
0,39020477270298
0,392682382772015
0,40127910942449
0,395818309494863
0,396550585197958
0,405197836630244
0,390985205839367
0,407516329535422
0,399176523880475
0,388644410736659
0,395427796745935
0,399979761939835
0,379717508279517
0,38611268986148
0,390170744626578
0,396651482424806
0,40184319280944
0,393208004781207
0,379959844971945
0,403893711879666
0,394892916454911
0,389466764059905
0,401719699025733
0,399191021087151
0,389171877216837
0,386802078104062
0,391568971178402
0,394185713469599
0,389356177680791
0,395755790554316
0,392980570245131
0,395207916141145
0,382345252575701
0,386749121988565
0,387669658368377
0,397903415872905
0,394694277225945
0,391021227556125
0,383317898200209
0,392282681934698
0,398927259942986
0,400704556201257
0,395639529476433
0,387306385567807
0,383599924532602
0,385911208405983
0,386165210823653
0,388999998345059
0,385743437921176
0,38877121632385
0,382881734513523
0,388946342501507
0,38547049613882
0,3818435225597
0,372373125686685
0,375606046450968
0,369640916851071
0,379608493800857
0,382524219054376
0,385029302713252
0,380961484967412
0,388502628666429
0,384072209011007
0,381521615385324
0,378035551941206
0,377781088342397
0,377381836050088
0,371043916470252
0,369415724187178
0,38338178496711
0,372447558981945
0,38082486841374
0,371201601722868
0,36963810285747
0,368107041796656
0,377168681724076
0,364199297811177
0,371357259502124
0,368345635884443
0,3631388302618
0,369478243395768
0,368346609925341
0,357344451207038
0,36394321681847
0,357584893682087
0,374629374208559
0,366116831673209
0,367428094527715
0,367338125755243
0,365034580788292
0,356894638332674
0,361157054502465
0,362789193429662
0,362870666479109
0,362108742786201
0,351877409947736
0,346929157934023
0,370246360271613
0,35333755298068
0,34510845075454
0,348083717183676
0,347679861018019
0,348051230171949
0,353348425334688
0,348313528200609
0,349122374296318
0,346388698249776
0,347778063493668
0,341080329284531
0,348049494053341
0,346949966229337
0,33784113052819
0,341761012616576
0,339931189744183
0,327443783449443
0,335107693159905
0,335154870617512
0,341322472759741
0,332100462686978
0,334800310862707
0,324907348333226
0,327381608615288
0,333114346643686
0,331093062338783
0,320402748330153
0,329702789590135
0,324305777597518
0,326467618867364
0,327107554036606
0,327573772593709
0,323344737559649
0,322254910887178
0,309357593827584
0,320106364111318
0,320569377494616
0,326357767716375
0,305566125203282
0,313042208196469
0,313183729167977
0,307948835229632
0,306388395893985
0,313686688360632
0,316475931383224
0,314866665692415
0,304532112228974
0,30781765756543
0,304925975968705
0,303551556299954
0,294822865815728
0,296031943030931
0,291638980629608
0,294158043461118
0,28799299496373
0,294070852565103
0,296424449432196
0,29827249051846
0,286100923138011
0,28953977231666
0,285208669100512
0,288668632257464
0,282548066307321
0,28588556686439
0,282266861560188
0,278890902009413
0,277189384520417
0,280802318521922
0,279477805714423
0,282556118185784
0,278444414562563
0,270542611126358
0,273080127876871
0,279599483590735
0,271195948397156
0,271291858844794
0,263002538890343
0,262734456455178
0,269449005256268
0,268846172048785
0,258682396478734
0,258604088033502
0,251033106084823
0,255329951152227
0,255572119210533
0,255079280515606
0,249602465239845
0,252755921712133
0,245546796943257
0,247957948317285
0,239727843966493
0,246013680643968
0,24433713514971
0,244460474146642
0,241109067470849
0,247973483187453
0,24095918292626
0,252777053766702
0,238741339302741
0,239561342463087
0,239478372083562
0,237774637531721
0,231671818707044
0,230218766824409
0,232160745308298
0,229857281469303
0,220153539158277
0,230157192838444
0,225154468029451
0,222638448512197
0,219172440462348
0,220859059760029
0,220036090531942
0,216594519431181
0,222586725781081
0,216254349233755
0,213968739963137
0,217135330999004
0,208058530967361
0,221304585898706
0,211697645612199
0,207966159319364
0,206354940383195
0,208893671226384
0,208054017034099
0,198858578741751
0,201150578604191
0,205501536890463
0,199967402723463
0,200197116425816
0,197850322089004
0,201034393705447
0,195127593819374
0,196239837962536
0,197403936445064
0,198731320360516
0,189394254329244
0,190221478634977
0,187272064131818
0,190203259373686
0,185559808272576
0,189065918751856
0,182673393986434
0,177782734477506
0,177902782808773
0,184435213546026
0,183701972231169
0,18147697724241
0,178327242206238
0,177577187159521
0,172659312027162
0,174899564209789
0,170762833923336
0,173710929816845
0,170808530066243
0,173095447254495
0,161851842380684
0,166023571055409
0,165721064192614
0,169319115787959
0,163980436764922
0,168907910900933
0,160207642159798
0,163227788188265
0,157220133041847
0,161062734577462
0,161861296525541
0,16079489128609
0,156482339012145
0,161753008697733
0,153777242914037
0,159470294344606
0,158017992670584
0,159704276932413
0,151362299718316
0,153906923352801
0,154325852574294
0,154050795865675
0,142344575361742
0,147211795816718
0,147616569355889
0,149704766185897
0,145043581484636
0,148641302840796
0,1460749953838
0,144093509133062
0,14418826407006
0,14179546261025
0,141003794250672
0,141650976179701
0,142719334812025
0,14130070701121
0,133868274000727
0,137810365886057
0,134905111706281
0,139667057743066
0,136461837617567
0,131379074264645
0,135674892480192
0,135110830278197
0,129807847856012
0,131111254488564
0,128680710826604
0,126646846824289
0,125719566619678
0,131355502327507
0,121771952751137
0,124921600756488
0,1248628764946
0,122258020642965
0,118248934931062
0,124766309632006
0,121350650199493
0,123767072139402
0,115956875405449
0,123988020739529
0,118207353149628
0,121901108849113
0,114140058497633
0,118159962037367
0,114989317982075
0,119386709254654
0,116582743403288
0,117369664800927
0,109975266377266
0,109264920747142
0,109113944472054
0,111709253136278
0,110808997001535
0,113613533643989
0,106850741941369
0,107724290359564
0,104342256802416
0,109714283882743
0,108012818851351
0,108544955951838
0,107676401309719
0,101536190975504
0,10387461359912
0,108694601786032
0,102268610427316
0,102797717643369
0,10242030758625
0,0981391686770137
0,0943875504412592
0,100166948777417
0,101764876279649
0,100408995912538
0,0963708309732309
0,0969326508079541
0,0945486728229146
0,0970001102359281
0,0961615567498743
0,0934114997564653
0,0933697435008317
0,09206858655202
0,0905693539124219
0,0958485188878444
0,0917357532414194
0,0924236132538537
0,0912323254099663
0,0929275208957548
0,0903924682264667
0,0924105539088409
0,0896944365258048
0,0908428163187084
0,0870334009132358
0,0894733121201655
0,0868506183490048
0,0869533666422718
0,0893220226146117
0,094142132028456
0,0874657973434692
0,0848635241444487
0,0842016219650806
0,0898748964435985
0,0890967526469817
0,0869120948962492
0,0842439741481124
0,0877207851212388
0,0832646263060994
0,0824087235250706
0,0862132701023651
0,0870715871659074
0,0843737104023458
0,0881138070216245
0,0836058864702784
0,0828572489762781
0,0858205151690604
0,0894370729170434
0,0860375048543081
0,0887940421045044
0,0889464713764733
0,0870167155688381
0,0858913993875633
0,0896520420032375
0,0857372457533342
0,0905191207882694
0,0878382466905756
0,0910405021152402
0,0908879940385156
0,0865021248827631
0,0880855483406936
0,0924160040264052
0,0887013789358526
0,0925787778931838
0,0939650104021255
0,094929801893841
0,0903714025061331
0,0945948416465585
0,0929432487257366
0,0945659944332141
0,0938207350523048
0,0954398840516385
0,0945648557290203
0,101736240974162
0,0997760043387999
0,100351024359579
0,0984055257408409
0,10178819132234
0,103760235548572
0,10500153942547
0,106183150177906
0,108248770582309
0,102412161887778
0,102183646133472
0,101653347272758
0,104967195483834
0,104482521703933
0,11172811981576
0,104068463771858
0,108090840395685
0,108999141764373
0,111614186178838
0,112208925336325
0,110823235772724
0,113976992839428
0,118394949269537
0,115326377423331
0,115791401922941
0,112005118177413
0,11963900200336
0,119184508873526
0,117111793325988
0,116803874725106
0,125698487228141
0,123905192484085
0,124515010025477
0,122705252918721
0,1256157843353
0,123911903037221
0,125282068984291
0,125018734147446
0,125462899941939
0,124745501343704
0,127140604224612
0,125359407366977
0,127368449523626
0,123823894522637
0,126737099400654
0,128458179479549
0,131207101160211
0,12388688386868
0,1205780640511
0,123706570262473
0,127529231983943
0,119109974255043
0,125260702864054
0,123677426160088
0,124243914405215
0,12255461700545
0,123622763839136
0,120396953132556
0,123198196275948
0,11980643441963
0,123940600136815
0,125231830574055
0,122322342259425
0,120887193666182
0,123411062262244
0,121012477328013
0,121328351115651
0,120357426331117
0,124076193279237
0,117638509349965
0,121200778214571
0,120715958455522
0,12251753342575
0,125374885590248
0,123370874502586
0,117544790327471
0,119742811718104
0,121102941076097
0,126895801635175
0,123220736740459
0,121690798631024
0,118007009893206
0,122470396011211
0,120691299830381
0,122847077145497
0,122217070585204
0,1195228537305
0,119452510137579
0,120656635578739
0,119527238659511
0,121474565504301
0,119200766349023
0,124544499127146
0,120604971888338
0,120789077189113
0,120967138031529
0,117739222502062
0,117279052221563
0,115064623705243
0,111469006528522
0,113737802472268
0,108173784234781
0,113112451293171
0,115214899595457
0,114239146951153
0,108576875758361
0,10852787864959
0,107638882411564
0,109034585963358
0,105658471688441
0,109247187096547
0,104232762063107
0,104809269583834
0,102698813100823
0,104480741017975
0,10083518339448
0,0996446311752232
0,0966714893679868
0,102873357831386
0,0944636158834892
0,0964906917726785
0,0992537599738486
0,0992395078655162
0,0949636029375816
0,0952776218823904
0,0911607568043043
0,0952434090843341
0,0942042206364492
0,0906230023031188
0,0859182812532551
0,0884169322701782
0,0847655651748624
0,0873053347546513
0,0874605522948408
0,0857104072723064
0,0844323688171699
0,0831914159418132
0,0798952783363252
0,0847231843706333
0,0817291305900644
0,081650565377047
0,0773793439199994
0,078425696884862
0,0765539252401688
0,0793010891844759
0,0784690184303979
0,073930020564661
0,0729553554847203
0,0777576957134674
0,0746380780655684
0,0802005377477504
0,0751003722567966
0,0766724843643713
0,0771667906632664
0,0782781439344853
0,0741890930513284
0,0731487099078385
0,0732075578480751
0,0733925191753149
0,0718272713478055
0,0689788122451787
0,066473826013159
0,06921182900116
0,0678261859367537
0,0669567813104087
0,068434552484227
0,0708143442301294
0,0671435010629711
0,068625125263822
0,0655888188615909
0,0659612327095282
0,0638701844002044
0,0677562300933063
0,065700018112764
0,0667625775555738
0,0670414427369117
0,0705502620990454
0,0675113785377633
0,0677038178969139
0,0623478059174447
0,0625000839006733
0,0603761792575678
0,0643453006853745
0,0643134180482267
0,0638556779087515
0,0621952693331256
0,0632206656073714
0,0605786600281545
0,061964172500766
0,0605455119904443
0,0594768594857947
0,0597786343971703
0,0616101106127725
0,0579751467969793
0,0615838773444122
0,0564493729605507
0,0572378191380541
0,0584593901009129
0,0617833265886963
0,0584055395492605
0,0590627633618684
0,0570166226778092
0,0600316332053755
0,0582406000262826
0,0589173475259681
0,059016722371311
0,0611344347243667
0,0555280260673425
0,0561535375143292
0,0555102840196967
0,0579187311732608
0,055819420150043
0,0561435564764233
0,0550843684263464
0,0591154858798395
0,0595696561418924
0,0583039972666372
0,055971421981054
0,05723447361293
0,0573690168353123
0,0560572701274791
0,0526820224299527
0,0558352986655842
0,0556724053976578
0,0562497438091511
0,0560086066203043
0,0566740294804162
0,0500740547086025
0,051110616442436
0,0522949703820056
0,0544625314525655
0,0491541238057256
0,0526200149996379
0,0527999524901074
0,0549019178049908
0,0519276290708382
0,0523286202097074
0,0539114794386303
0,0527716392457827
0,053284258366235
0,0551047055059668
0,0501917366491812
0,055009374536896
0,0529483245360816
0,0506389556320237
0,0512628110764898
0,0531749948648876
0,0510322986983383
0,0521948316363946
0,0528049923058156
0,0534011633575346
0,0506700742001775
0,0491004513413168
0,0463227930090841
0,0527214295708179
0,0535740237990211
0,052035945218538
0,0495023237154876
0,0500518270003245
0,0499272492131645
0,0532559537306271
0,0462870888954049
0,0471899512193602
0,0494133638418115
0,0503667225980551
0,0469804245164861
0,0511717333417789
0,0500881154096235
0,0486856610260255
0,0485298323531123
0,0511819036925874
0,0482719802730022
0,0524150134172124
0,0508710606676934
0,0490060327384298
0,0453506801539078
0,0475043123128152
0,0490859782429924
0,0514178359081843
0,0486562691272198
0,04814180127776
0,0470882836610606
0,0448336930501295
0,0435180589695382
0,0459942123998981
0,0449786302282345
0,0490441946570162
0,0457246909897669
0,046425189051584
0,0489272348639468
0,0468636087803404
0,0445326211435432
0,0458553659126938
0,0471684382983991
0,0487472493665769
0,0436410969783722
0,0449313116834905
0,0461263767361376
0,0478763172623866
0,0455294357296085
0,0454603971063117
0,0432557362964432
0,0415283582650836
0,0435109740959197
0,0466483005549801
0,043871776275401
0,0450628616053073
0,0441166138156363
0,0445406807515797
0,0383171365103136
0,0424658943635496
0,0448293458507464
0,0421834151933638
0,0422237846673825
0,0408033137893764
0,0376736231213335
0,0389416192938578
0,0389067606713921
0,0439179715532853
0,0423537338760118
0,0441747181739503
0,0418231838345413
0,0426398378728992
0,0397784761460916
0,039507509683563
0,0405666968761208
0,0420463344168755
0,0402549445605944
0,0430942172797264
0,0398060376788194
0,0406822872582941
0,0379492483313073
0,0390449051073783
0,038352885979598
0,0397326876634983
0,0380473321270384
0,0362258951276215
0,0332427893888617
0,0360638555027908
0,0368015608557216
0,0388886499131967
0,0366419861178072
0,0359841434597057
0,0363390613847297
0,0394837038817308
0,0374841186847448
0,0371590120975284
0,0359364717036977
0,0386919993804764
0,035298548633294
0,0371280189658031
0,0344309038738464
0,0346466434073191
0,0335096872582765
0,0372197815500287
0,0353411712072423
0,0344402690942401
0,0347133479760234
0,0336318157422427
0,0341402082779672
0,03518984572993
0,0328735859076734
0,0330868923975266
0,0313978961871033
0,0347697859357573
0,0346350431647474
0,0322716606893968
0,0300042068588513
0,0319038718079826
0,0347245493540794
0,0376200053130501
0,0339451672039629
0,0314912142334
0,0284486607791456
0,029064663670949
0,0296550389843349
0,033043249979788
0,0328955092638812
0,0309165052852938
0,0287217819899688
0,0324221935610633
0,0307927941033601
0,0291046689448472
0,0292604792373626
0,0289443993526993
0,0302070280241759
0,0315532492866168
0,0276180810024019
0,0314005707512826
0,0279740207193248
0,0289731370928136
0,0330223156083079
0,0332925414043188
0,0284793930321468
0,030473530569156
0,0298810714175892
0,0285184908710215
0,0285206988005409
0,0276782661416377
0,0266338885275937
0,0282604538219719
0,0290436092118107
0,0274403554061404
0,0250189642947472
0,0289990039257075
0,0277476619738548
0,0285289983405776
0,0276279381145783
0,0288343228746578
0,028776154637566
0,0306114090070335
0,0296216753089614
0,0300625001441452
0,0283770914439113
0,0275381587636336
0,0279438213436106
0,0290923132793442
0,0260392596202515
0,0255073089488245
0,0226072501524125
0,0272956725442634
0,0250389947384853
0,0256167996212776
0,0272225821178912
0,0292745894527435
0,0273158959080832
0,0273835654801111
0,0273777470272695
0,0267235468700931
0,0244706758712714
0,025317831234156
0,0266016240450007
0,0276723824763746
0,0257202170666461
0,0267751439015728
0,0266901182350899
0,0266790460836068
0,0256318608442314
0,0241855004273393
0,0238468811424151
0,0274675184141127
0,0263801348924974
0,0266993489114709
0,0265026689462728
0,0251463613192396
0,0249285619854881
0,0263166975571073
0,0244014453768085
0,0263683985483358
0,0236700439286968
0,0262088529828073
0,0250645262366706
0,026300348270415
0,0259087645194481
0,0245742806127737
0,0245866554113953
0,0264756830593576
0,0247199002794451
0,0250338604142274
0,0251129207491635
0,0238846450891815
0,0230345707705219
0,0231121566842473
0,0233178802703453
0,0252524373160862
0,0245369753819924
0,0213521174541706
0,0222414782731089
0,0245517000200517
0,024817855400835
0,0212175019756265
0,0230711061536264
0,0227989962486908
0,0227870577804482
0,0246605424025376
0,0244476462413732
0,024692345707662
0,0223965719637649
0,0237938207846654
0,0252828690627067
0,0270212095938338
0,023128128040881
0,0226669486964536
0,0214462128536928
0,0227046101708967
0,0222345521205122
0,0215301304836762
0,0217090349670728
0,0217150068957593
0,0228896203223994
0,0248342914601732
0,0230345424428202
0,0220164692787318
0,0242396060693041
0,0233806631130208
0,0214466357983214
0,0242625433695829
0,0221461768259963
0,0195836686847047
0,0214653734711271
0,0219993533619902
0,0200435515532773
0,0212303469147568
0,0219448653941749
0,0214553229811817
0,0203225380654695
0,0213187344309808
0,020215474992165
0,0219630847588847
0,0216845950993639
0,0236009010883614
0,0225418642689382
0,018562359096663
0,0201543585983698
0,0217974681140925
0,0232304362667774
0,0193078688488447
0,0187884415486078
0,0214121644801732
0,0198596206570403
0,020372670737826
0,0222298304473406
0,0215879633769196
0,0189363341732215
0,0192675634692103
0,0186659671624684
0,0216438611023384
0,0213163582529866
0,0192008402183983
0,0197925586663569
0,018909309729276
0,0194592069248004
0,0213692418204661
0,0205234808226308
0,0203323174215556
0,0178970913794112
0,0206452990191369
0,01942697228798
0,0194124835465481
0,0211754842255789
0,0213619832267088
0,0175209373912187
0,0178189831047615
0,0188657527492865
0,0184233425365537
0,0158205124688404
0,0175262988541273
0,0179646662327215
0,018417584341093
0,0199759588364678
0,0145446057699114
0,0175886259241261
0,0201241694680959
0,019050018367613
0,0186737665112511
0,0164407479646334
0,0177221705413307
0,018377644274408
0,0159572029073711
0,0185341117335336
0,0168512256234942
0,0162198343624438
0,0175927218903005
0,0173242522229094
0,0194087042742187
0,0158668849347499
0,0176452737965049
0,0184749592912155
0,0160967050558725
0,0178973699636916
0,0162755876951724
0,016291186317942
0,0165581220887441
0,0143126677518133
0,0159093343726835
0,0168043167458887
0,0159791215209275
0,0170814402522409
0,017664979539778
0,0177083807200239
0,0165448996190393
0,0170500797087959
0,0158288675486658
0,0157422546287369
0,0180331197515897
0,0161563069476439
0,0158758174602905
0,0173606812577459
0,0171038273633801
0,0142125598571437
0,0148821893408079
0,0157494943429309
0,0130560196187109
0,014586742717935
0,0127134354371108
0,0158427644737023
0,0160012535433206
0,0157679883202209
0,0172986442788163
0,0169992794557226
0,0158156803882405
0,0132531858621264
0,0140450272431943
0,0163157920552469
0,0132781745582737
0,0146292474822921
0,0136071735331971
0,0152485065578616
0,0138099103805376
0,0158362133233655
0,0138466157548193
0,0145390183093922
0,0149013034958655
0,0172695585415603
0,0148587670854551
0,0146131977002914
0,0132948293466776
0,0162099394563213
0,0140208540474304
0,0136479761027395
0,0148270897072556
0,0143347429867007
0,011637752114875
0,0158839678870683
0,0114721507669715
0,0110003774031765
0,0134226112431171
0,0152531932441087
0,0131542231447643
0,0141078691568651
0,013334307314907
0,0167078602471685
0,0120734315192992
0,0119699657455483
0,0118310999381681
0,01653711137836
0,0126948677870544
0,0135167349513098
0,0137930883600376
0,0147207495418989
0,0144623666969962
0,0164921339905727
0,00853849003663527
0,0148806320333551
0,0071697546034102
0,0112112013816187
0,012913819411436
0,0165982292960541
0,0104465425384077
0,017963715603534
0,00997966348837506
0,0133641393724501
0,0122913399227332
0,0149500024657702
0,00767111243425652
0,0160767333845666
0,0094558554738655
0,0142907717943335
0,00808135750334617
0,0140551413676548
0,0097270561621976
0,0158170898641869
0,0101375794588068
0,0168123609061991
0,00739842198527172
0,0186073623444077
0,0059484081413194
0,0169645089780965
0,00726942876756514
0,0175709513875913
0,00476759392878086
0,0174328052762109
0,00681415910554138
0,0244100969811694
0,00591770572432178
0,0183827034570556
0,00451080495306625
0,01543775676344
0,000852141479395792
0,0208365177375179
0,00142386071634413
0,0204980955019677
0,00225710968752492
0,0188173878851648
0,0104146462184556
0,0224508697061898
0,00590161247237616
0,0132774747146151
0,0123883200877119
0,0155251471468936
0,014748277538487
0,00979036933901788
0,0197113691854482
0,00571812906206989
0,0262368869756483
-0,00121451611780102
0,02514485690954
-0,00103225653788956
0,0264200346814976
-0,00278702985403463
0,0265918496715163
0,00134771155722727
0,0254707808428188
0,00552125465092076
0,017948423825132
0,0084248394364066
0,0154434201996458
0,0129415765811817
0,012603531964697
0,00866483328538957
0,013676344131072
0,0115224032240733
0,0144495835355866
0,00976235862159651
0,0138640111619435
0,00757297231415976
0,0152862768292751
0,0074460161308388
0,0129456425445171
0,0113615686500121
0,0149189609037869
0,00814926977813959
0,0134460661020494
0,0100480790600745
0,0131027143124555
0,0114877906529528
0,0142980412977419
0,0108342337117183
0,0157100066224654
0,00997349188585463
0,0136348729058082
0,00964024583546883
0,0123108620114995
0,0094854365713038
0,0123548829244203
0,0114411910484817
0,0134758308382376
0,0113646953452854
0,01460393965052
0,0107043530714032
0,0115999514856306
0,0101283006627025
0,0151156533413117
0,010162640811493
0,0137581313066546
0,0104671099800561
0,0132236254598981
0,0119246273884036
0,0141525724979609
0,00950298559539669
0,0140700222162295
0,011834288347878
0,0128025734315414
0,0108886520365494
0,0134405486933411
0,0103490040401787
0,0129339704102314
0,00898060223506447
0,0136053233192962
0,00993035192673773
0,0145100674885685
0,0107274160330176
0,0132178876059136
0,0110766760899064
0,0134098137124316
0,00997185839763761
0,0114577522140883
0,0111805416929681
0,0140629323954087
0,0116097400350888
0,0149409102534881
0,0108590021653752
0,012415353887981
0,0123434960996106
0,013806032957625
0,0109960053143889
0,0139920046298539
0,00928280794003436
0,0100940439159583
0,0102729450163064
0,0118861514324763
0,0116795628364465
0,0127984006915774
0,0116014323190994
0,0134218209470527
0,011075716186226
0,0146986454969851
0,0101146309797148
0,012986039869333
0,0108934259305825
0,0136378243102689
0,0113824336759033
0,0118279117623486
0,0104970048543002
0,0149860099340655
0,0119896326391506
0,0123635163896151
0,012249598565709
0,0143711428075937
0,0115919000500276
0,0134019984540219
0,0109321591063932
0,012759296947077
0,0107962287264463
0,012169157905462
0,0121489496922072
0,0120046198697428
0,00998965890208157
0,0133417779233621
0,011596865426652
0,0141493339151447
0,0125665122025757
0,0144003223394959
0,0128606502823613
0,0141913606034019
0,0151370484930604
0,0140528280075187
0,00965897781838281
0,0136166731542206
0,0131655275611612
0,0126293266981572
0,0117939550269847
0,0145232891693662
0,0105139907361681
0,0132990166521497
0,0111641271994813
0,0136647667251783
0,0116258738381456
0,0124958169985166
0,0118198187719092
0,0138558015281478
0,0122745100609077
0,0115900605473463
0,0109469863636061
0,0148455301788888
0,0134206874990517
0,0152655906292658
0,0128858770145126
0,0153092230816638
0,0120077324010117
0,0120946330575761
0,0109176806042666
0,0131453184715789
0,0114826825498282
0,0132800163803003
0,012430214468622
0,011921419225347
0,0124619964199976
0,0134239378504126
0,0128243763020477
0,0153432222000222
0,0145397466476204
0,0133083417974314
0,0106324298131364
0,0134317068598051
0,011186303575727
0,01414678486192
0,0117643647432464
0,0135424083077928
0,0138402082173459
0,0151940249779697
0,0127084168500809
0,0114510639855183
0,0130044110130439
0,013255233759378
0,0118983373525032
0,0154264496114483
0,0135376376484148
0,0139495198313689
0,0110550856769318
0,0132427707770602
0,014452384364142
0,0159025900435036
0,0126893718616019
0,0146888857019544
0,013332425320892
0,0140256023204207
0,0126544536325571
0,0155161358526867
0,0133913762892223
0,0124128874760846
0,0122751696461789
0,014164252060636
0,0121556667169321
0,0132673357138528
0,0131062833016056
0,0160255014739784
0,0135738910706907
0,0151376230962578
0,0126516456164266
0,0137273281898102
0,0117603246049294
0,0141270212749119
0,0115119336860142
0,0122217084441573
0,0151422951951017
0,0148680321100211
0,011498096280813
0,0124829885903789
0,0108775042540999
0,0144210739063333
0,0132210719517731
0,013411783054158
0,0126044685255524
0,0127922354841006
0,0119768096237169
0,0125679704422147
0,0126626736503278
0,0131196630079765
0,0114644043618292
0,0111987490264179
0,0124095077599068
0,0147829568896702
0,013712687572637
0,0141344264457439
0,013645695736934
0,0144714792252262
0,0130128667998884
0,0140595516891745
0,0121040613727019
0,0143909192881093
0,0124184038761664
0,0148192365218864
0,0119626251271619
0,0118107958987127
0,015291802454482
0,0125802206889382
0,00993417704926485
0,0146811396776893
0,0114773567756777
0,0132779315499078
0,0120890508194014
0,0149264672730801
0,0136139591333465
0,012575223907486
0,0115068308204216
0,014973799389083
0,012970083729655
0,0136490524530388
0,012598763980762
0,0134243104920429
0,0103264981977464
0,0128438233300353
0,0126274553097358
0,0112897343350442
0,0116093265366162
0,0115490055554356
0,00940697695138558
0,0119429727878855
0,0111093755599624
0,0128303997888131
0,0111523196206355
0,0142356089259384
0,0101861075970562
0,0116802341658584
0,0130748308969616
0,0127456471155045
0,00997118809805348
0,0126314355237362
0,0134406941496754
0,013805517710074
0,0108407352662493
0,0126188949180933
0,0122826718689781
0,0122873728815437
0,0109930976616046
0,013797292636949
0,0118737522219641
0,0143450643234625
0,0121400101499496
0,01334054459417
0,0114465463735279
0,0117683625288133
0,0116519664927003
0,0112370470062291
0,0124363467996876
0,0131219500415456
0,0115581900571458
0,0132326555335591
0,00958362514028441
0,00992911287617712
0,0123575949609499
0,0113891091577147
0,0122275474753716
0,0124281491121969
0,00997563567986955
0,0126680813808714
0,0099408223166977
0,0101876060784432
0,012227235118724
0,0141866864785793
0,0115325613008472
0,014029800844023
0,0137735933981788
0,0103950549911496
0,00981208012605739
0,012103088553494
0,010566765898073
0,0138669893562806
0,0117856381695308
0,0137052223205575
0,010180858800564
0,0113611575453339
0,0111216325871147
0,0123254491078883
0,0102479571366818
0,0117766681714235
0,0108614328399852
0,012376542811931
0,0102903284164808
0,0116324828039658
0,0119463914339379
0,0110208883489329
0,0091539262857737
0,0130270977033609
0,00860023364986409
0,0111150394768743
0,0104464974495655
0,0132013439355068
0,00929081583858086
0,0104317367227821
0,00892143722036513
0,0112384134816523
0,0109145537842495
0,0113048975259123
0,0112906051361241
0,0119960533667422
0,00908518037614386
0,0106514912607517
0,00894037909300411
0,00966935643813992
0,00910710158586393
0,0115476422097896
0,00972411744301729
0,00761179678766928
0,0084695840491559
0,0123430469115056
0,00957319487027579
0,0101571528915595
0,00939187962676189
0,012756817273211
0,00832132922588245
0,00981703263508751
0,0103557208858434
0,0106862649688787
0,0113959857894932
0,0100337987343027
0,0115141984977036
0,00985254708393368
0,0105465164382167
0,0111331289574306
0,00948926802365223
0,00949081940496207
0,00755382438036702
0,0078910211287136
0,0102139247378449
0,010817674208048
0,0105008155241363
0,0112627234652745
0,0093744319896039
0,00925278656510204
0,00904134048508898
0,010058803297312
0,0090513084124618
0,00901123864848449
0,00961675538875611
0,00839784574061019
0,00798869379041474
0,00994299616655228
0,0100432632575233
0,00976225560404567
0,0131129178966041
0,0120815388522381
0,0107297757382902
0,014412293729781
0,0101693082066527
0,00803810462705984
0,00979607129011061
0,0102259432048968
0,00913559911612663
0,00808474405437972
0,00928691453744487
0,00678445461064065
0,00791576264881243
0,0106758112996105
0,00693545259108694
0,00807701845830224
0,00962815442770339
0,00953088319518005
0,00916479414601967
0,00846961904301244
0,0068061511072053
0,00741018126852641
0,00890152869247584
0,00719846382158266
0,00745504236844439
0,00951881285147062
0,00615210224657729
0,0114319551284025
0,00744540632838169
0,0100231315247012
0,00551617847735259
0,0104621256260012
0,00758638638666655
0,00846633970301995
0,00778742236653318
0,0104601065099922
0,0078934397285988
0,0100804818472012
0,00737813963986809
0,00923074125731421
0,00832583991406644
0,0110752642914863
0,00838246575928743
0,0102200904082699
0,00848834457889429
0,00996801559624565
0,00817230359207531
0,00811718186023853
0,00901066594851745
0,00905787730139542
0,00740046051246782
0,0128386773272427
0,00337685004408224
0,0138531854515452
0,00908129201640694
0,0110680161545001
0,0094265462969953
0,0106530862715182
0,0085440225880746
0,00967260699388919
0,009199998822584
0,00802239287431518
0,0125728771290675
0,00935616780800169
0,00981288465552321
0,00732147004986009
0,0093238129338771
0,00938212441849015
0,008380426833738
0,00784860107052794
0,00885282834141762
0,0110264779947464
0,00928886761972712
0,0112406552360245
0,00786528432794217
0,00760275169424434
0,00749211496884631
0,00734551803119967
0,00721614723483386
0,00711558656923974
0,0101611619847642
0,00984798065413355
0,00715685122173133
0,00576576335358045
0,013381930579097
0,00725359241268586
0,00963235748781551
0,00706603011932038
0,0120823946045193
0,0104939879037451
0,00955949328514229
0,00582589170055082
0,00949023722887171
0,00973491810690647
0,00623221800391868
0,01082148014279
0,0104848624439524
0,00639346461773039
0,00675986454687633
0,0123349630716365
0,00937159922356132
0,0089425588634398
0,00854102700706453
0,0114855633626894
0,00546786926319833
0,0099904268943192
0,00840608107731529
0,00990518120896821
0,00889340372665253
0,00992724735440024
0,00896908122879061
0,00811101146259228
0,0102079524491437
0,00883160039774965
0,0095539346099505
0,00725149900397021
0,00897162825988575
0,00693345458268478
0,00995934759962791
0,00748312301987941
0,00949976294468416
0,00807948850029879
0,00952510040531365
0,00451395622325752
0,00967843405233588
0,00719432478180701
0,0100261103028126
0,00285246380277248
0,012714825161886
0,00752066598660165
0,0115975420615395
0,00094549896366271
0,00942535214425066
0,0116684017612002
0,00663801241063221
0,0142538216499303
0,00811593449869576
0,0114609625960599
0,00921232553468439
0,00909163898603923
0,0102544993278015
0,00933154670664397
0,00791814963058769
0,0106519598960721
0,00805737627773672
0,01123626592789
0,00734249296150515
0,00457159219146931
0,0114393660663208
0,00964954518628754
0,0106134271328845
0,00697507440495206
0,0099113063748883
0,0165303880061633
0,0071511498670284
0,0117027950716494
0,0067553365156853
0,0130936963441073
0,0108911416850606
0,0118820274623329
0,00937822943040544
0,00868162337121107
0,0103437097487128
0,010391877111636
0,0094398973373842
0,0109380629640145
0,0116237400604116
0,00852162068713519
0,00820739284926018
0,0151741116641036
0,00855707920514212
0,0115445257946897
0,00994433198270182
0,00952756106302078
0,0101413471318898
0,0103406873423987
0,00917913385561976
0,00953808237292847
0,011939979174553
0,00836720468402024
0,0107334708349009
0,0122335509270953
0,00925642283082951
0,0154461872419924
0,00730187078378372
0,0157325392290768
0,00800539498962376
0,0084917908339636
0,0162528026964453
0,00792029104745012
0,0184822489491021
0,00813037614083034
0,0155494190980286
0,00880718107990064
0,0167229493345779
0,00442277976258363
0,0164740052140167
0,00700932732617939
0,0139637473484853
0,00632534263961576
0,0129313369683667
0,0099126922323279
0,0125919599683905
0,0124481900013553
0,0109089315574323
0,00890570859923212
0,0156638598185373
0,0104429501886144
0,00501866637984202
0,0161823843986117
0,00923828421516584
0,0155381114933664
0,0133535002589532
0,00599554189700224
0,0194289491878743
0,00923339056335067
0,0154591007287441
0,0117750221563059
0,0165815924722718
0,0116259466252729
0,0106332495599002
0,0236769565789322
0,0128987584725954
0,0117683132642445
0,0121723474606422
0,00977292870231282
0,0213527604548517
0,0107356578943513
0,0145004280808313
0,00948181154435237
0,0179833706622365
0,00472383758867265
0,0221451077358624
0,0143453937936626
0,0167843069760991
0,0177472266229322
0,0136156923583924
0,0164184805083493
0,013356884593177
0,0150726056603185
0,0161570231727571
0,0202966070990229
0,0191634060177708
0,0128590581545346
0,0149367726523846
0,0238359223930208
0,0113049138543631
0,0203630272763345
0,0157060057366021
0,0143081559665025
0,0172966890225894
0,0250797185921674
0,0208621514985979
0,0210421342262531
0,0147059869590006
0,0238146940914331
0,0175127472029165
0,0223796463397793
0,0182246107964951
0,0182079422422126
0,0185180972884571
0,0183788166557301
0,0219179494171716
0,0206590458865327
0,0226370965933719
0,0226404997964039
0,0215492843621682
0,0224416530032323
0,01618247925771
0,0310361302304404
0,0171202590690589
0,0337504771398455
0,0239659046793181
0,0300861074359815
0,0226929925086687
0,0241996739238205
0,0268432300987924
0,0279592966874191
0,0280483084250698
0,0237684353367846
0,0294680335890105
0,0250730873437576
0,0249595761778689
0,0347890246969941
0,025677021314977
0,0374084216351871
0,00147366935203343
0,0761665313789758
0,0264598266311305
0,0457083580553982
0,0302931937140984
0,0354218578818982
0,0392192767985203
0,0397075870049657
0,0408433659915858
0,0425661395237376
0,0395414931817113
0,0496931031673964
0,0450864944941301
0,0480985428471651
0,0465925673987958
0,0544897106052788
0,0456596891726432
0,0520713051214094
0,0522840574472821
0,059606064914339
0,0634127979889302
0,0616683822358735
0,0609761378695141
0,0657554316167306
0,0639728003635558
0,0700560730416805
0,0620288691266438
0,0694052700893487
0,0824315134345808
0,0711509529694417
0,082530449679239
0,0684336321736974
0,0869082171904871
0,0706349709763731
0,0950832164045272
0,0839153716726234
0,0946799432881758
0,0870226712554845
0,090283521462488
0,0972450038178195
0,0880848220501638
0,0967524622155533
0,0995081552715211
0,102641224769848
0,0988085793561493
0,101130702085498
0,100835035270447
0,10433935239277
0,107000034546516
0,100764273760392
0,106746965038905
0,0819414414416518
0,155005226054582
0,107602989779236
0,109865215709281
0,110762796892023
0,108062618930159
0,117377921430327
0,100637346688699
0,12320946510048
0,115180588198989
0,113085410824768
0,109192581667044
0,103245835813102
0,107451655117777
0,102554382377681
0,112455181612533
0,101189322071582
0,1183091826478
0,101903073054501
0,113352853944106
0,11701831991988
0,105083367427524
0,108623785468728
0,105650676515358
0,10725801329157
0,105018441425763
0,102572499334006
0,0989798579410448
0,111813882336967
0,0978066136478867
0,106159911138007
0,0901755205980358
0,0981712856377393
0,100836634686657
0,0930622581277064
0,0980790134839838
0,0918917607075734
0,0950985541020914
0,0874751590931264
0,0849663499396468
0,104159486016505
0,0869332595824335
0,0922152769176202
0,0854100028683089
0,0884842840542974
0,0803672570899967
0,0911741382256892
0,0842284246127047
0,0864344914685121
0,081447257910036
0,0840721265427954
0,0802756122124831
0,0829165295616158
0,0803990300179892
0,0830277698119609
0,0804532258796331
0,0837422411254433
0,080678662530184
0,0846813399215939
0,0774512361859788
0,07858996582456
0,0775101506140511
0,0813392471031164
0,07794576032725
0,0791580601507868
0,0768959291545302
0,0791756563076577
0,0756465609513144
0,0807422027937823
0,0796319469845193
0,0799890362921094
0,0759771080265085
0,081100647950062
0,080893198004458
0,0799118687247356
0,0774535114473726
0,0759873462222986
0,0755721845663995
0,0757609917447599
0,0751294256850334
0,075020200529827
0,0778766395903723
0,066704666357207
0,0823355964975694
0,0750197769868353
0,0747741323019067
0,0754104350139046
0,0701281930857278
0,0762651397071598
0,0683814976953097
0,0848294444828316
0,0718281836985626
0,0764854086706155
0,0726928011873935
0,0726181718602832
0,0726383897403323
0,0728820705500687
0,0660541271108338
0,078221576597208
0,0533382716875061
0,0762869179202273
0,0575444321693031
0,0770374057643683
0,0733250795571042
0,0758552173335835
0,0663315078038191
0,0701337905263203
0,0743868541167915
0,0673990053064751
0,0690779486442513
0,0600493145299968
0,0735403351920207
0,0665997997012815
0,0651157903774297
0,06911894743218
0,0638644656781
0,0669123012675255
0,0702988365267902
0,0650960810568442
0,0700445004403771
0,0633667518380691
0,0589958131170909
0,0698713560859567
0,0697453457533684
0,0687016870249325
0,0619811951627223
0,0657710303026755
0,0556522034703885
0,0538234049767938
0,064985763076363
0,0558738317286689
0,0605157555349523
0,0566865837678976
0,0576706656419843
0,0537456065948328
0,0558745194520276
0,0578043875100915
0,0531008126346597
0,0680890310090216
0,0465630753965044
0,0603842031067913
0,0448914793888528
0,0616028436011307
0,0473964937749196
0,0561720313954892
0,0475143818067459
0,0548709532650336
0,0539053275750204
0,0493321928116644
0,0554406125784582
0,0473398331592725
0,0477350567583073
0,0546367213462244
0,0478816289477034
0,0504957667606357
0,0467791531408405
0,0505309684581424
0,04696619163932
0,0429086821339075
0,0548806258623814
0,0509089510689985
0,0482924475431179
0,0490967389739186
0,041790925039843
0,0520512195317266
0,0373663717208639
0,0584868201359007
0,0451172519595213
0,045893919906365
0,0552466981776052
0,0480665556755073
0,0498802812581855
0,0500395364848994
0,0498276600389514
0,0493192229964649
0,0440154597926466
0,0609263472523542
0,0501086931503009
0,0562460508137384
0,0549877254209261
0,0530406344819832
0,0580562509177731
0,0563589923121416
0,0556909072538685
0,0580698731890361
0,0630410005572148
0,0617593314122402
0,061063651023454
0,0648086339359073
0,0631117043816936
0,0670163619438006
0,0736065841366258
0,0632207628845394
0,0816162998932398
0,0645887056768316
0,0862310451054452
0,0782007577850143
0,0789203363594064
0,0818794431687614
0,0805663394967564
0,0864485330841416
0,0789743378221255
0,0842942779060213
0,0913797881436849
0,0853586289266231
0,090772045244775
0,0838607215529884
0,0920346865889061
0,0839931991866226
0,100511425268458
0,0809338269113566
0,106808853017764
0,0920030637993622
0,0969484282760641
0,0950192265957063
0,0959781064472696
0,100037918019701
0,101126116517551
0,103279496613585
0,0972549544384779
0,0976860514118599
0,104103168102022
0,100180709545934
0,104950848933519
0,0996574271362509
0,101062029286752
0,102780329110986
0,102084713099906
0,105431137955702
0,105817932175576
0,109264325866465
0,105573421038632
0,0993244183154782
0,113785186738045
0,105585243171719
0,111468653007422
0,107007377875581
0,11215754533569
0,109290976938656
0,109570864658567
0,113783057569591
0,113207603667266
0,115791578451895
0,116069248184743
0,115489843592517
0,117866705537
0,111949468084429
0,12117738217268
0,114635681808795
0,125512423648994
0,111217221566689
0,125804890810034
0,120844452894046
0,122097657922279
0,124414985146972
0,12254664660204
0,12605031123923
0,122352510780262
0,124533885101154
0,122007898536979
0,12654482680362
0,125667139469711
0,124568769612565
0,11905119431806
0,125880899141623
0,121991332655174
0,122204712920587
0,124295551159814
0,123261401676065
0,122396595916573
0,121831214399626
0,127725960701857
0,120654083188519
0,123755877564451
0,120562221190853
0,121172869735997
0,122000911230373
0,119598258246028
0,124555269791619
0,121755452056902
0,120592800256069
0,123986417555174
0,115858580333007
0,126131333275148
0,121101429934874
0,127368106059565
0,127491684839036
0,124792426842248
0,127497418890088
0,127178384089567
0,125831923599523
0,124832257029593
0,126965980956996
0,127532816798149
0,129352150108592
0,126443214843808
0,136313549269701
0,128064564764647
0,127637945583633
0,128478582863188
0,133646932521452
0,131406107689581
0,12826641098789
0,128300922112913
0,125999352426701
0,126538461562392
0,126789412557484
0,125834769295901
0,122347956893324
0,122763772532416
0,12034254011614
0,119209847809901
0,1290310641822
0,114567408282517
0,121772727326162
0,114073024539443
0,115061878603893
0,111864507789123
0,11443514336221
0,114394112799823
0,109293833767728
0,111525111097668
0,110494051652411
0,107874291247417
0,111011371140466
0,107055134727715
0,105524650543332
0,109359388339252
0,108672997930048
0,110891615705012
0,108566607444044
0,105804399603838
0,106746894794053
0,106132467841889
0,109396071088744
0,105550135844224
0,106726678967182
0,10666999088481
0,108953171743706
0,107181280537554
0,107264956299277
0,104710963040821
0,107452100107346
0,107915347451849
0,106344931529049
0,107024846816346
0,109908846629986
0,104922090086772
0,106231132481552
0,104314094237589
0,105080225359351
0,10640608575896
0,104085576136748
0,10584358537925
0,103366137736608
0,10361658753143
0,105937534309616
0,104639670120351
0,103718707690868
0,1046006156232
0,105120870410584
0,107005544218869
0,106594029133339
0,104751775718155
0,104936701317253
0,103281740513081
0,102696706484576
0,105087786177335
0,104465119427529
0,104038847449682
0,102931441147606
0,102839063361155
0,103033858601476
0,101540380355911
0,104251327777751
0,10254701062609
0,104671386357845
0,102658154947287
0,101650085677998
0,0995151726624324
0,0977620303171938
0,0974802824027358
0,0939456652532872
0,0955225051829264
0,093214197143291
0,0963549189925116
0,0930763669582683
0,0928644131919794
0,0899596209245959
0,0889700801447014
0,0902651656923129
0,0906024156382288
0,0907638905606021
0,0877664258132341
0,0887251329138417
0,089478760262271
0,0895703264755119
0,0874929456972235
0,0877922044110059
0,0910168424181063
0,0886561617978063
0,0882067145895209
0,0889970986389003
0,0908400407391122
0,088355741012886
0,0899198340066739
0,0886036084540101
0,0897037570279652
0,0906260423749447
0,0892283461829751
0,0900698989675481
0,0922101234578094
0,0924445045992806
0,0907901839615914
0,0927988727220409
0,0935772487530644
0,0942927141152074
0,0930410920403589
0,092299771055873
0,0942475570631347
0,0929027585835421
0,0932213803521494
0,0953165815286282
0,0937958671904651
0,0943592761041377
0,0941072087162591
0,0965314161976223
0,0945160230255496
0,0957101481634501
0,0937635492532787
0,0957729450218886
0,0943434906693389
0,0934499059136607
0,094381207549466
0,093754020320805
0,0922739991867749
0,0911355223087109
0,0942963819385481
0,0918218776106894
0,0923490591304542
0,0928665485362702
0,0918418403441449
0,0898574961514546
0,0903817742930201
0,0938183242847144
0,0894239886108849
0,0883977141074209
0,0900651138957055
0,0899056714116883
0,0886393572974059
0,0899246026311097
0,0879366326516973
0,0874651351741795
0,0873903962985167
0,0886340890450867
0,0865209583326195
0,0858919686425867
0,0858793758297663
0,0850937960740276
0,0849078209966704
0,0844972155815486
0,085129310115287
0,0855920795256847
0,083904819407046
0,0836604111070218
0,0842210141972396
0,0822185093462001
0,0820725228552249
0,0831560541824448
0,0811333474319082
0,0820066393981842
0,0820207904066939
0,080274278109558
0,0797013086223961
0,0796166575254613
0,07699796861891
0,0771146144435663
0,0769035596017027
0,0775589930688784
0,0765065027195191
0,0761768096438532
0,0762277404989623
0,0775971984681425
0,0757467953589016
0,075133250820765
0,0763221312728511
0,0771323253772837
0,0763228567932589
0,0760137598059751
0,0745133203870234
0,0734907218109584
0,0727495514636622
0,0738005706255892
0,0729689460922949
0,0724763334669008
0,0702398017382329
0,0700574818836358
0,0689380175300191
0,0679741594502746
0,0677966495754768
0,0676161028783105
0,0646817839280129
0,0679866886385737
0,0678472561299707
0,068787356537637
0,0712713402072229
0,0718038217269763
0,0717951973295092
0,0758095681339398
0,079043283110661
0,0836409850416478
0,086635194244628
0,0922955579391596
0,0957561169197701
0,0986301211241006
0,101868354958698
0,107157411892046
0,11275573510676
0,118293525295249
0,120107117126289
0,127193839343775
0,128153857894699
0,134893945025568
0,138649868154494
0,142232462300622
0,145744768759089
0,150687281311861
0,153943847966505
0,156240782708219
0,160285638881235
0,164780856607188
0,166441061339539
0,168607025734271
0,171260115098356
0,172980303444365
0,176989192666796
0,179920248527485
0,179827140108649
0,179923970267252
0,181006298750917
0,180303565788373
0,180327669256376
0,181703991628757
0,181426066859581
0,18327456859936
0,180722665793932
0,179483214100302
0,182744146267109
0,181935606890626
0,182824921170443
0,182136371800535
0,1839270607414
0,183176150780624
0,184433556558365
0,185480794420068
0,187866202342663
0,188627989479188
0,189856578824774
0,192679843509828
0,191981026726734
0,197461307235726
0,197701328089764
0,201427878619193
0,202131780163197
0,204970156441061
0,208259490616445
0,214009501775902
0,215649820637315
0,219034012442341
0,222477929416691
0,222109197632771
0,22579629975855
0,231066062557718
0,232739236936777
0,233330613111368
0,236718339975357
0,237568255211518
0,236108727839461
0,239333586233159
0,236437913714138
0,234449926609696
0,234245024713726
0,23475646794488
0,234028024604929
0,23310502789382
0,230463391790711
0,231230677590796
0,233598182736866
0,232861331718019
0,235156710972704
0,237137509392732
0,244542220531426
0,247896132461481
0,251358868007883
0,257966949660677
0,259413208359618
0,266785275796781
0,268864550697665
0,27007034458863
0,278530749378517
0,285358018108137
0,284988671209588
0,290946964246392
0,296189390764446
0,299563394868487
0,301524967552521
0,309113431771212
0,313860697320809
0,319281818394301
0,322749813497174
0,331434286649804
0,335058843437003
0,344205554976682
0,351618696603451
0,352483929089961
0,358145498956645
0,366616240283522
0,371252709578274
0,373770742158766
0,375406519297285
0,378539001068338
0,383336083413828
0,39111199095514
0,390298349495566
0,388410941248078
0,3952771966807
0,394295546301371
0,390335886038722
0,392121136585318
0,388717368245449
0,388214671665105
0,384882343979651
0,384180687205518
0,381358588376452
0,376192512036082
0,372306670616443
0,367756742810277
0,369823383552796
0,36770190095088
0,370067978326186
0,370068427811387
0,371813815008326
0,372002962965553
0,375003825593266
0,378235955662952
0,377778011167327
0,38276066796342
0,383316863865831
0,386793336366448
0,390218225957258
0,391024004839739
0,39868667874418
0,394816363604697
0,398644620236109
0,399958795609963
0,405715234303854
0,405444797802496
0,410334309821955
0,407466031524126
0,408194509302639
0,409617891286727
0,402691082911073
0,406770422617554
0,404651995299321
0,405608204227705
0,413512361831064
0,403274133567316
0,403370724430741
0,407637225731232
0,404009516062185
0,399126669410416
0,397766236085078
0,400285788575775
0,393294657199336
0,390957516588635
0,390946062155524
0,387695545719487
0,379390743369943
0,373093698903036
0,381601685715422
0,370788274743295
0,367764492255828
0,363832311029976
0,352585995895523
0,343073957052968
0,338846209442084
0,332677893446031
0,317585005286418
0,310154266097894
0,297658880675512
0,283779388212433
0,269954000735928
0,264331949887947
0,252464227258879
0,242454265574205
0,23298499155981
0,226955053577953
0,221950674935266
0,214593357699896
0,210076572714469
0,205709718495175
0,204197154798666
0,20835028607754
0,20127700730548
0,201197794714105
0,201086791040827
0,196616998288307
0,197138897681724
0,192890052414384
0,18874783973199
0,18840252111554
0,184396388177397
0,181387546839468
0,180794619129669
0,17822871632434
0,169939075135139
0,167017180895683
0,164148357753365
0,157792867820916
0,150822493825258
0,144647576487117
0,140857335095578
0,133154126302739
0,131000958985768
0,123188724804989
0,115880538501655
0,111737122523785
0,109264559474253
0,100491745810071
0,09724332626244
0,0918090316275214
0,0848236569483987
0,0839250074316222
0,0806743780644457
0,078082013030662
0,0747934819239835
0,0745536182547978
0,070030428993688
0,0665781071037869
0,0645584515704132
0,065750224131492
0,0627454002804935
0,0613940521689192
0,0607260536851149
0,0596008158560386
0,0582832876623912
0,0641979326246082
0,0585826670863399
0,0554263280067098
0,0578408436327401
0,061715880935588
0,0612054240869072
0,0595078006149626
0,0624243527145052
0,0598974713886073
0,0626972786238131
0,0626374389208426
0,0652495074877703
0,0615376150410471
0,0627970406557092
0,0657028196872665
0,0633968726840714
0,0638378225200487
0,0615557896029891
0,0639286778536587
0,0596088489946208
0,0594737001602997
0,0613823430258914
0,0604243894529571
0,061126976636834
0,0564753982599405
0,0595985772837309
0,0560796521297855
0,0549067210834888
0,0603273156879807
0,0587066617244604
0,0589292916761201
0,0610517646793278
0,0608979341321882
0,0621480674656283
0,0585584906198462
0,0598918586692539
0,0636946097748154
0,0665811828958686
0,0669761771190242
0,071292815191715
0,0661538047625826
0,0691212128527865
0,0657368527452391
0,0656069058813199
0,0678905383798719
0,0669654019692903
0,0686905749745138
0,0667033393410923
0,0740680840985279
0,0694463056469598
0,0686689809110279
0,0683721115070564
0,0661149237603418
0,0721349569978191
0,0699723458342836
0,0733127701517974
0,0780074947398659
0,0705399401583699
0,0716637773054834
0,0792214769668516
0,0842811853834872
0,0829335800124983
0,0831741493195598
0,0828637589064476
0,0915426394111385
0,0871388776252185
0,0950163465970301
0,0966196084250741
0,0998115554457954
0,0995323001494441
0,0968391329139106
0,0989053453591911
0,0943534179980394
0,0994091316644803
0,0956584213542111
0,0957402305396828
0,0863875398700301
0,0853381952122573
0,0905950861402559
0,0929468893614629
0,0896720143557802
0,0792738325908644
0,082504347425755
0,0789126943865073
0,0842154494929079
0,0880774903656577
0,0903735471760445
0,0872851809048121
0,0842128507126563
0,084742409745308
0,0842367001041036
0,0891553086857283
0,082472090876554
0,0849286486661311
0,0890157776785778
0,0797329345475377
0,0801733483938881
0,0790347575442639
0,0712807422949702
0,0742300389616371
0,078275609584235
0,0779625864611228
0,0812637698922723
0,070931443016205
0,0708334354495371
0,0736703564208572
0,075760011938248
0,0771710117614949
0,0734923092208188
0,0792553325101003
0,0782514324048519
0,0835470842963434
0,071341827924979
0,0687611091236097
0,0699918755657671
0,0674418873230889
0,0719556287503905
0,0679862008287593
0,0736215769330461
0,0727889161131468
0,0739923736856034
0,0706846677168524
0,065396665376395
0,0703935117067413
0,0646765687636068
0,069415904410613
0,0667308444368893
0,0644496758028588
0,0676737478137357
0,0720054413798723
0,0631361208866309
0,0561323299803206
0,0621615010458911
0,0670461654260583
0,0693140874560353
0,0704013745658487
0,0717804087882697
0,0667494835216829
0,0705510593830987
0,0716221555447987
0,0636393590091648
0,0676726657762417
0,0761624229387252
0,0590017569416877
0,0700722244731169
0,0638239684584311
0,0648984754847523
0,0629999838058958
0,0652154240821402
0,0680425554474536
0,0695739687433961
0,0746377728534339
0,0743182897043383
0,0703617538155061
0,0694748690117932
0,0646379152458429
0,0795245873737385
0,072030347427782
0,0727938834186047
0,0747609759384862
0,0843468280015515
0,0791939342177237
0,0789667210678157
0,0845000753738987
0,0829485560448534
0,0818483965679666
0,0785892256691459
0,085694357342363
0,0789393760394708
0,0951813611828716
0,0891022160729349
0,0910793604187291
0,0892285036969121
0,0969135802511836
0,104803594794128
0,101962951272146
0,106336943628518
0,109214543564702
0,106106443108961
0,112023320791281
0,112064024200716
0,125175537335069
0,132850333334509
0,116074680297654
0,122231388332898
0,125915962714495
0,143538034510933
0,123042580739344
0,143992832645393
0,139558115492741
0,14187117145908
0,125086239002898
0,113863230808461
0,124934624086087
0,11411438312938
0,129383940528556
0,127001333711247
0,127660631083999
0,108823416573059
0,108232284857186
0,11826549240212
0,11495489134222
0,107838299847115
0,127778813397857
0,109415261958611
0,122274065976228
0,126879704112382
0,123323716403773
0,118839694111312
0,116462791904956
0,110404869882176
0,119094985008386
0,113359391108973
0,110164715631806
0,129582954628224
0,103903450175502
0,115818871544682
0,10275494765167
0,122236246656369
0,102749630176822
0,105113987745412
0,127149948727623
0,0988936226885515
0,108889278048186
0,0977237162301552
0,105228901054576
0,0967001977738809
0,0759382521800989
0,104006902137409
0,0940754645546745
0,123889387345247
0,131107504489253
0,101219404071366
0,0954694754484475
0,123568454373783
0,111950137759578
0,12346275473993
0,121690522628697
0,100732364438958
0,106305157495514
0,11059228661641
0,117401346255734
0,103313331848106
0,11390090526505
0,153847697501663
0,125963365489283
0,112109841515957
0,118591040505199
0,112910588940006
0,12289295578288
0,0896210304426694
0,104594410714722
0,111832262031179
0,142578839293584
0,155526413902522
0,128068891421949
0,146173138312857
0,133923210748219
0,11044822458191
0,14854476668616
0,127746632766412
0,183879877686897
0,190314359214513
0,1674572925934
0,14574096068319
0,125000232028472
0,17194024134072
0,13488720006271
0,132541183277155
0,159826872648381
0,179569974782935
0,154139376187644
0,159010022346767
0,164395987971012
0,16287420187743
0,177350820802191
0,16665355437049
0,202985420861999
0,132510888145861
0,162319024842642
0,143360576221403
0,168780901351881
0,138778516570439
0,143795997786554
0,11832894048923
0,166316536913608
0,115102632787858
0,190509341834158
0,165348295757759
0,160236498488275
0,114829074016627
0,153168378781067
0,208414702438104
0,187724452663096
0,0958475147195583
0,17086904972242
0,216137414175867
0,174513680870935
0,129779094850106
0,153032637731768
0,203912547544589
0,158380282909035
0,175134344601823
0,163256873234771
0,0860503723843699
0,0982637704426789
0,132662017834609
0,0463541363700429
0,228623144158862
0,148048967479667
0,177108240524304
0,0852640370548487
0,0140868553097293
0,077147443564059
0,14383861807363
0,263592111439924
0,180738412991597
0,167980708398145
0,0290366466170128
0,118193970296325
0,19200893790083
-0,0456663123985859
-0,0311166283029314
0,169891810729015
0,153623544569231
0,227357814803185
0,101436672849162
0,29715966858213
0,201790610277095
0,234172917259658
-0,100448248872817
0,0546350408330273
