3596
4000,36533379555
650,420452594757
1
2
2
0,0462455315040841
0,0438216261933912
0,064167043577235
0,045127350829024
0,0520195885501743
0,0386485300818328
0,0548387883032502
0,0389312411544113
0,0493771967491309
0,0448032144432017
0,0556406705011354
0,0443496035557141
0,0522357085792302
0,0411667461708398
0,0497739232035168
0,0397189873513175
0,0523559996670911
0,0452697846387475
0,053656859713687
0,0349020329690185
0,0474592849763674
0,0384065132167155
0,0478117180400972
0,0360591909556913
0,0474527188344374
0,0393284067207096
0,0480688858486177
0,036801292760108
0,0569574991968133
0,0391404797018277
0,0559891484386695
0,033671380127452
0,0530217188941386
0,0425046048904213
0,0463037190450078
0,0390082199294247
0,0516805969109564
0,0390939145874189
0,0474950498069287
0,0358789009380902
0,0538431112545246
0,0483492191060937
0,0526520691246433
0,0429756556890955
0,0479980750322495
0,0488459448903011
0,0471081861668119
0,0450383461745752
0,0494320009505085
0,0364054081849553
0,0565862170930573
0,035965431012054
0,0530482751586862
0,0410920117186557
0,0484353505864075
0,0558121811045407
0,0599532388977286
0,0389112464305933
0,0518213702889034
0,0360675759594532
0,0603026381376175
0,0624943856666776
0,0531252292502744
0,0401237163212609
0,0431800436769401
0,0433977796989168
0,0439571718041444
0,0400933848898286
0,0429779123312083
0,0421785219330913
0,0473833130991331
0,0519346889936941
0,0765599711552275
0,0341353329244108
0,0571543128471625
0,046050816538946
0,0512542922954001
0,040713865567722
0,0389073723579854
0,0417388149571373
0,0573129541495713
0,0469073473533975
0,0501353136392566
0,0354823552098995
0,0476360298942655
0,0522091938942279
0,0509827286608354
0,0326380106929141
0,0752426169707503
0,0501807007200646
0,0462143924052125
0,0353332544361875
0,0511015709720249
0,0332282848514514
0,0508788554012272
0,0427681199844288
0,0453245470909784
0,0321537362168924
0,0508027813131284
0,0277770514359498
0,0645224527010287
0,0260208700697311
0,0879401451231904
0,0376321164765821
0,0799368549415227
0,0696404414845268
0,0325274674319691
0,0920870404196536
0,0618274495802102
0,05004820086884
0,0480607100331034
0,0424307657397611
0,0538267805171671
0,0410226214205243
0,0385589577916446
0,0505207493090103
0,0905297936135769
0,0457778847119796
0,0533432092270735
0,0360397726556608
0,0293245542781746
0,0345557532129686
0,11097002003762
0,040991565100568
0,0558131658906412
0,0337908176499524
0,040501786189204
0,0535122816712677
0,0878765560817934
0,039350730617125
0,0584156043311031
0,0341313824096094
0,0487827304005538
0,0105082641794379
0,0877799231125583
0,0575200031949369
0,0476062010834245
0,0304452683048386
0,0428985259093929
0,0913563305831001
0,0697289718540961
0,0385811938520139
0,0406240490724475
0,0201541667434008
0,0846720671826667
0,0600942599654741
0,0472537470614151
0,0479137819002463
0,0672969707950643
0,0384496724570088
0,0501851444330301
0,0279663840415434
0,0697084225492479
0,0424622435661249
0,0168634928493973
0,0229408637549933
0,141394777435465
0,0246306363990344
0,118196019735218
0,0487248481300909
0,0573147470163456
0,0488216963135829
0,0465091349328626
0,0335337889640757
0,0391653772389596
0,0279109119116377
0,0440957687673067
0,0795804216587946
0,0422115307084044
0,0349234707654874
0,0699405399714187
0,0575453302240917
0,0286480656717025
0,0870915262255802
0,0852476143466245
0,0247787902412794
0,100731447805597
0,0626961402782488
0,0348402450520318
0,0354235413969356
0,0881343061764834
0,0430313698681555
0,0510471927763541
0,0346975301350244
0,0481001905228078
0,0518216431148684
0,0625581365324517
0,0359214676082985
0,054456580955959
0,0253883126005604
0,0537516605804988
0,0855942145092852
0,0930893334222392
0,040326025850116
0,0523592577803378
0,00495675802317374
0,0519718495593324
0,0888348675230494
0,0488253020121785
0,0382713996903036
0,0364135757893617
0,0344882207226566
0,0401328805131421
0,0318105098717361
0,0381406059752749
0,00620865765814383
0,0838605702890625
0,0704771620778594
0,050459496555408
0,0379160895096488
0,0443640379952175
0,0374288963193802
0,070344830138156
0,0877207087835346
0,0476864374010986
0,0504037427518211
0,0323840228074404
0,0387198027701393
0,0729969949352096
0,038880284921645
0,0387745382399419
0,0374139107818934
0,0410109610698395
0,0351390371412009
0,0415300906639862
0,0350125586183403
0,04696307192125
0,0369618028596397
0,0415177274286704
0,0346039796131445
0,0489395323030642
0,0519726571954733
0,0549314380690106
0,0413439325371685
0,0392379837978273
0,0322513554409524
0,0815800918121142
0,0463404247918845
0,0549510848405555
0,0383210768856262
0,0451500676892471
0,0321472666520027
0,0431655747637897
0,0365833849522827
0,0392348385875244
0,0212912332320854
0,078882053893015
0,0539275730993173
0,0424077999110039
0,0323859871981241
0,0526596035491597
0,0647577178069024
0,0409070047265727
0,0414666415690296
0,040357515634652
0,0377846813874497
0,0335757289545656
0,0674588346252211
0,0579231265267155
0,0442030376760466
0,0518211833225228
0,054953318437435
0,04467708164991
0,0411217477254436
0,0177503160363538
0,0993528964232683
0,0705641679506265
0,00787570116613475
0,112427718599393
0,0754303854267057
0,0522291869618699
0,0432919452058552
-0,00658475260719823
0,105293660711583
0,106675474654478
0,0481137911960965
0,0553166630305829
0,0564019237127596
0,0507068249272452
0,0351928518183894
0,0519810417673067
0,0376357417307062
0,06261375241888
0,079489031960974
0,118917047220369
0,0334731632338756
0,0577146819087771
0,0919001718540404
0,0466047819242985
0,0494527092840068
0,0422298120565977
0,0368224567650549
0,0517568545036618
0,0667056783565899
0,0643823010625002
0,0590073341406955
0,0356202103731333
0,0787922789490909
0,0587802288117847
0,0389724422720631
0,0548596709753645
0,0607943481803662
0,0456139860981606
0,0467287071882586
0,0398445013293428
0,0543822923823839
0,0433902165012659
0,0197854473221318
0,0935034819988959
0,0698788433856073
0,0403921851098946
0,0757949729106158
0,0574058837329123
0,0399290575403751
0,0434416238927144
0,0433655764401533
0,0459755926863429
0,039262358402442
0,027003486540442
0,0583315148381639
0,0597025031843883
0,0380738103342068
0,0492285347874263
0,0390755403780076
0,0395653896858641
0,037423922043224
0,0452615451677886
0,0393225438038918
0,0455388411122889
0,0376993697306547
0,058933423449966
0,0802527471537521
0,0322882702579368
0,052790109294367
0,106466251482194
0,0505765252385804
0,0497093993128741
0,0382213976694902
0,0523733083808873
0,0366253598888231
0,0434904123889995
0,0439946876216069
0,0478642562382158
0,065277446724933
0,0631460315691091
0,0365790910853323
0,0392399837999658
0,0904304303250582
0,136951522734226
0,0754054028921705
0,0622125057501182
0,031349041425026
0,0565318594966359
0,10371054171029
0,0684773318217618
0,0897608114280902
0,061635849611646
0,0546584769779989
0,0477462048434916
0,0509076035936734
0,0540835288284317
0,0545625361467628
0,0580845228957511
0,0570034753909638
0,0593461947878224
0,0545343260813827
0,0602980015470945
0,0472250623020238
0,100361031787289
0,0792173569165711
0,0608819238692815
0,0687336367706346
0,0516344942161448
0,0676967783976957
0,0968079680481806
0,082045633230412
0,111407933965246
0,0716208130381855
0,131126251191612
0,0793364837246495
0,0767030380410359
0,0688987527090048
0,0777634185462827
0,0743278147543121
0,0824466580087487
0,0719467518527119
0,0709895341034405
0,0695877171755208
0,0934224862952656
0,0741130566991204
0,0796300573417223
0,0644473773003154
0,0986250559980887
0,0907135626974635
0,0870385269763007
0,0766362469023416
0,0767363254983666
0,132726284804709
0,14380398926642
0,109354245625593
0,0923786965161717
0,0972744780580516
0,0904663157165445
0,107134984079954
0,0890559523479333
0,0987599439329564
0,0953427244933314
0,116159049332809
0,137845187430384
0,117914972303864
0,131424399781495
0,0951665245903386
0,118013017977368
0,124131471963998
0,108699769379464
0,138863497522153
0,136387649456047
0,108923523171666
0,121026083260634
0,15334106419673
0,12600969404361
0,148950751630555
0,134366864249671
0,126584288265696
0,125806350223105
0,127805430760506
0,125599219197525
0,139246276198446
0,14556383189222
0,136401985341173
0,152017746911488
0,140240392764241
0,141755329848007
0,142967318681914
0,152051804128166
0,140974766478682
0,163217150179096
0,139541027512318
0,156099322338146
0,1444390669732
0,16790076268031
0,182201910939262
0,159395205052817
0,186369735068874
0,179184661249446
0,178016512718045
0,17353096707871
0,167335553582372
0,174867816421267
0,166392335362349
0,175469321206948
0,182730597304847
0,183856299612924
0,182648609402968
0,188368444714323
0,186189221100414
0,201389239494555
0,185176227043252
0,190669464079717
0,197305039018828
0,203596699661696
0,209442866907819
0,2239728819284
0,237677618714548
0,245844922621488
0,2528264256706
0,218746347200768
0,219895218842344
0,227857710719416
0,226998054960903
0,234232858237105
0,239679637750221
0,236715740273925
0,232115646912569
0,245668692220336
0,233906895524406
0,245755412876857
0,248131617660501
0,260124227220695
0,272893330937935
0,277085514614608
0,250754663405769
0,250900471217834
0,269271169034515
0,26837900742618
0,286071947200457
0,280418265520549
0,284333914330287
0,296390090297778
0,289577056746179
0,278412878753491
0,289843489432338
0,2895729748195
0,292587514458102
0,299556818961874
0,295862255398159
0,305279869048948
0,319635615207293
0,310086468463948
0,301292173980346
0,318027037285657
0,330561596370197
0,316830782032398
0,315505350448896
0,347275483461043
0,349815846409442
0,339618182323367
0,3543203576775
0,353714280293012
0,344985097219789
0,341262522539279
0,352949419612968
0,347921855080484
0,358765553049388
0,356082839960242
0,351053287198233
0,372579187605674
0,377572448585776
0,382639922267442
0,385415413063537
0,383557413748365
0,393829255472558
0,399647741785187
0,392387500456514
0,391329873241186
0,394241446336206
0,422778438782096
0,409631667229735
0,415335607591223
0,415327300334703
0,403607650457888
0,423334117215514
0,417079619749453
0,421299108064537
0,428299314445235
0,438526377889707
0,424314156681507
0,43309273404922
0,433975725987487
0,460730763466775
0,461919725547833
0,457685070243564
0,460159298049311
0,452006449699212
0,461681961657695
0,469875683836821
0,458200369705575
0,476212622140336
0,493452137105831
0,492860514855476
0,487339313630972
0,497172740363497
0,497745480252188
0,501718704059816
0,484435744315166
0,490746714594796
0,499773277064074
0,507578606530454
0,502429397879383
0,514610903620611
0,509831254430155
0,507923655811394
0,528256651505597
0,534082624313575
0,532491089804005
0,530268198901173
0,520922520504044
0,519338098192303
0,524838122453782
0,548004865358542
0,540601360760936
0,553188539321177
0,563523868079672
0,566100245127814
0,545732641745197
0,558209244523058
0,560299723937556
0,560088853908809
0,569361469405663
0,600122028620298
0,599582807918888
0,592956763910199
0,595500123733316
0,61642782722919
0,586713834954651
0,604713124474566
0,610223777258395
0,611804635747156
0,5988504182786
0,626353411605301
0,614737272818013
0,608090820474057
0,604336687077207
0,646388354473803
0,629398788605327
0,634088285960323
0,636524536626043
0,648963557408349
0,659375507350332
0,663773227428751
0,634173726126597
0,63921295732791
0,628097524851803
0,634284773833193
0,644038162166919
0,619204289962164
0,642029798592686
0,676605257790968
0,668230170169586
0,668864482740482
0,653409503120297
0,679095544123824
0,675241836525879
0,703327942920485
0,693941379332151
0,693707292613494
0,691178221819624
0,721065005241415
0,702483357973612
0,709651754852397
0,672638107541798
0,696312551315543
0,729098182771693
0,718930249311586
0,689251468768433
0,701511055132914
0,71076776213405
0,729026093689339
0,71456371729436
0,75158225410084
0,704573575021971
0,699982278636813
0,740384778318539
0,743774002356325
0,70252647093029
0,715744526134321
0,715798549576496
0,745947385966839
0,756039421150502
0,736485550838556
0,707802382564407
0,710779846166322
0,718491326527087
0,737789659887048
0,752362329583677
0,793904608590487
0,746640689775039
0,771298718849092
0,761260281573679
0,753903664074758
0,762530681992256
0,772787631751945
0,746438218125581
0,785744029367846
0,764307165986984
0,78449732681299
0,777002194172978
0,79464178345903
0,787251677927993
0,807103289802487
0,773817983954789
0,766800715891342
0,7506590263085
0,793587061276327
0,811358950021337
0,81649609238011
0,765141282544514
0,791810626110903
0,811439881266038
0,775400002330504
0,777125001025552
0,811986957430707
0,763439123587751
0,817782113046654
0,760325232599708
0,775378311439398
0,785745528534684
0,796961269664642
0,788637891879855
0,824359793749531
0,797646820231847
0,824342721247875
0,809683791478934
0,815067005274546
0,858150191461564
0,842479651783866
0,798010796944808
0,816335778497902
0,801987405999942
0,812618478172317
0,798835993337527
0,845677205767588
0,818629534477693
0,804745618179867
0,798602446185417
0,807771210888032
0,809370103182571
0,829203276807842
0,819418448586622
0,831309279708849
0,803153159717639
0,823303002075746
0,802120866307546
0,823674012983275
0,798244491817584
0,809581788687522
0,787196784962007
0,807502494880898
0,81531814617052
0,820875362805949
0,795471099268359
0,8139843376212
0,814363276523201
0,81711808213078
0,797176142494067
0,825865198141798
0,817177477616963
0,814987666011409
0,786407342003281
0,808062926011575
0,790195639654261
0,842274854244383
0,805761057273754
0,820632802282587
0,791117367473131
0,81441291736694
0,79161619780645
0,832275807735982
0,842167402900843
0,815585331962295
0,790909543044901
0,814101716968365
0,807622331669517
0,811618399579171
0,805336540858574
0,807022940164675
0,792875950603318
0,827370987305501
0,794319223592404
0,810092896215109
0,795705526997795
0,800841409485539
0,790776245383533
0,801936608783257
0,787895071353447
0,80263571214717
0,797177385462662
0,814350636569583
0,788183317587964
0,801334559089928
0,777095430100388
0,787701935021181
0,785145254805279
0,79064109745934
0,794683858690924
0,811360335964402
0,758930633611417
0,79071494858112
0,801357984043938
0,821530706733502
0,794384393785703
0,788163942165743
0,784294640800958
0,799704779957492
0,766855574124324
0,775195504400476
0,767955590443197
0,806047944606758
0,803875130699882
0,79298394085064
0,758383428543807
0,780892834200809
0,763656216511584
0,783071658265324
0,777122745172913
0,779540115631665
0,760989294270816
0,77933367219538
0,735629048524011
0,766891711178295
0,748265283087776
0,756202103884079
0,72634546153708
0,761291315521815
0,748293187918044
0,777346868295298
0,741924262490097
0,774147272194172
0,752548964029318
0,776348418829765
0,742013841736648
0,762538186927218
0,729024499468978
0,715140634592392
0,737429892370612
0,750413412266329
0,735949650567884
0,762684108211634
0,728354172105918
0,746504979080463
0,733078822802298
0,742422143987005
0,746338095739731
0,741629364854071
0,722277521138409
0,730689974462133
0,707114882202394
0,722181782045618
0,709999882354066
0,73037300917745
0,709868828738152
0,721767912443007
0,692460236521908
0,715868832428987
0,69497162186955
0,712057824875715
0,685201118258558
0,699757993190288
0,681781232762098
0,700382650462432
0,676403958046594
0,68069459522325
0,66339623682344
0,687056614070482
0,690304345401148
0,688035821929398
0,667583885382004
0,684375431529096
0,670767019218051
0,668518377038276
0,657184094040739
0,680830768172626
0,670868957449436
0,657581238247823
0,648692864125019
0,655173989426934
0,642283182936984
0,656551151612392
0,632239798014065
0,649643586521852
0,625132235631848
0,630886043894621
0,626925144284065
0,641612522933745
0,616286149334467
0,633823961406526
0,628003640651285
0,616360453180992
0,610140982573676
0,624768061126744
0,613410144526963
0,622564701310249
0,619093876591717
0,616853917280937
0,603357822501815
0,603935068231515
0,604091747390187
0,605939678937452
0,586971463879084
0,605071358406723
0,581238315591949
0,598274418492541
0,580352359401217
0,589343189764125
0,581328072186549
0,576608460398997
0,56525131853435
0,579095788793978
0,563485263921212
0,568626880843099
0,552825215213467
0,56771193182413
0,54952830643371
0,554885390544119
0,548419050520434
0,540901442115687
0,546309553853859
0,546959406804129
0,533978028452892
0,541623195536513
0,531932806687417
0,540938648754119
0,530724375763546
0,5239810241265
0,518099590343191
0,528194788301069
0,51831509031084
0,513966625713231
0,511007226811665
0,517554533453899
0,516419941184115
0,511353492779815
0,503876404292164
0,499488035234152
0,500095953675119
0,508551587917328
0,48981616135332
0,489052925373032
0,475532094111258
0,482579291996343
0,480394599292153
0,47681464099612
0,472914007319176
0,478686157704969
0,458794954894843
0,461174337224326
0,453686603999497
0,459864363342054
0,451858541957772
0,461616097037215
0,450321203276267
0,456741973110364
0,444429584928904
0,448239451446127
0,443526243294658
0,445580210946245
0,438125940777875
0,443466792797928
0,425954763906961
0,435232901977258
0,428110532057616
0,430098935223968
0,418817235308291
0,417722874239917
0,421303821832703
0,420188759760246
0,412947581082771
0,416211918763901
0,405627707052989
0,408795990028164
0,402135259724452
0,401199013087703
0,39031590999462
0,401584049036134
0,383493241149051
0,396907241966756
0,380954822344223
0,395864006552213
0,376258723330975
0,380158927688625
0,380653574091809
0,393654888407569
0,375630093131862
0,37607129968826
0,370624695522006
0,372118833984012
0,365688226170946
0,365423880062533
0,355987569612997
0,359374367692717
0,359682233924125
0,355692217966416
0,354940762982744
0,355430824360476
0,349066983392967
0,352652808169495
0,345002659940799
0,349695262198869
0,342735580960456
0,342104060040798
0,33552862689539
0,339169331853715
0,331529982164266
0,333432311864377
0,329249863907124
0,328336085892174
0,328131824602477
0,328124728418852
0,318873170125387
0,318404094855621
0,317608226782704
0,317465677934969
0,314257914461368
0,315803772472812
0,308939039306298
0,309999664266773
0,303037890679291
0,313037656001957
0,308456664201309
0,304157147520417
0,296762783458603
0,301581811048127
0,299523625828842
0,296505894595224
0,286725564284436
0,293674126640531
0,286741734063248
0,286492396179072
0,283609603557768
0,286087659326075
0,285059243016283
0,287515352526794
0,273943553130069
0,279083955221196
0,271644654320686
0,276801974841224
0,271371823319615
0,278472788800953
0,267304425662357
0,26697173496643
0,26537173136829
0,260669885432308
0,258026648196068
0,260858825499903
0,256330218914527
0,258922504260503
0,260656964204662
0,256222394945067
0,249234484804388
0,252535241808011
0,2497493757343
0,247623434629354
0,254116623048816
0,246841413887478
0,243829802730367
0,245836353228637
0,242649651023575
0,241413617732875
0,23746209600625
0,234754129115212
0,235154034570069
0,239977797829878
0,22823363839469
0,231392714583286
0,228779649425606
0,226203826975234
0,223489384736492
0,228087529122058
0,222935482329244
0,224716383442623
0,217573966402136
0,227574149762191
0,217584120066108
0,218455170939972
0,21624252262208
0,217058070050282
0,214495783627724
0,219841705625921
0,212706667197066
0,211215496367769
0,204250445126055
0,211094964065392
0,204262652090072
0,210163874425866
0,20338182981036
0,200013587738838
0,194368698247807
0,203895778524025
0,199397540571327
0,201757807607013
0,196719221153067
0,201561427080473
0,198377680171967
0,197879955491956
0,187137820335651
0,193697877411252
0,190574610148575
0,188837666081553
0,1861094313784
0,189045277264761
0,189033450459461
0,190327265545017
0,182735727214582
0,185438215896855
0,184958297769325
0,189358374397441
0,187099351419981
0,186360126013199
0,18232527221851
0,185887335056446
0,184339693614709
0,188873175880921
0,182328739306598
0,181621569814168
0,181231158137369
0,187062218642157
0,180544798652259
0,185204338645101
0,179271852962302
0,180290499016338
0,180577692175733
0,180005139274668
0,175405784985986
0,184458592096556
0,17982701148214
0,185508877003666
0,182659188620141
0,187216495448477
0,185276820690383
0,187902619448299
0,186615802667133
0,188510848787261
0,183584716081153
0,18859861642534
0,185371380666675
0,192683805864081
0,183445156186965
0,194727467986698
0,18978852825149
0,197546998591402
0,196349807426581
0,197883384252109
0,194118556583798
0,203962967723296
0,199973066818967
0,20216387626587
0,199472395751348
0,202961069659864
0,200696877904732
0,210530557526941
0,208929952966686
0,212661313111431
0,20671834160245
0,211184744147063
0,212291501906755
0,218350420179334
0,213252509483905
0,219999605874326
0,217094414141766
0,22181086106597
0,218624922616308
0,229659072672466
0,225756444021088
0,231127838100262
0,230201115422341
0,235184733392026
0,231602776310514
0,240040567990083
0,235411364935507
0,239093954467783
0,237402597590411
0,247311227239709
0,242336637783179
0,248110136891978
0,243632813046149
0,250584068805311
0,254048277942478
0,260722003179
0,252821576534168
0,262889215327832
0,26329380511202
0,26943763632036
0,265130658587255
0,265833200342211
0,262048672465051
0,27199048487125
0,267187227782234
0,274563011507909
0,268914397356514
0,276123693407031
0,265027871018902
0,274817415668904
0,270120196115046
0,277237535079494
0,273843015049873
0,273531340278903
0,270249817197189
0,27419240278569
0,266413348189447
0,274642157292237
0,264017809739754
0,271198496949445
0,261997838558946
0,270138137511526
0,262524233100835
0,266280191011337
0,265457429488346
0,265242091404334
0,262911444906418
0,27015869941849
0,262325572803277
0,263896445372651
0,26192821341755
0,265986843737242
0,261610634044001
0,264907119405979
0,259625867011356
0,264254740679898
0,259842923114131
0,265154136605414
0,262697624440601
0,263829164319193
0,259469074325659
0,262561932772567
0,259110611498067
0,260058911533223
0,261420100412221
0,269248263161604
0,264810004329897
0,267124554568466
0,263596261723343
0,272484828998835
0,255799750457784
0,265167760254949
0,258716700501189
0,267046593509571
0,256777922021312
0,265267531617258
0,254277497160977
0,263997505513621
0,255057091143201
0,261224980591603
0,254894074082261
0,259460597377214
0,250012329769618
0,25186818283663
0,251880432349407
0,250753104347606
0,238760623623851
0,242822623262362
0,241900749134967
0,247914169082937
0,235884232651148
0,249518908140683
0,235298064878795
0,242325057804759
0,233089422296622
0,239234181439437
0,23222322378337
0,231980752983683
0,223401101231086
0,230494296242303
0,222277547582184
0,222852890959495
0,218982574252899
0,218382675479122
0,207247859324504
0,21483405501819
0,206390665910467
0,209333892864708
0,202371452992277
0,207212916161492
0,199343653660651
0,200951854626667
0,194022298295505
0,198928437287881
0,197378863842118
0,200202538556731
0,189011875117787
0,187641302234451
0,186131811346531
0,187467697532501
0,186450448248021
0,189080108600966
0,182329946356977
0,182799916267137
0,17579686204844
0,174998308656117
0,173627608914129
0,17499037299139
0,168930777417776
0,17302249910219
0,166308232106014
0,170987267334547
0,168489202204767
0,171791770397937
0,163530362718827
0,166129515487929
0,164461657611053
0,170279065088381
0,164431709000289
0,164240074115575
0,157411823591882
0,166978381796741
0,16319568353728
0,160615169253066
0,154372744801557
0,159942362781188
0,154666699823407
0,157368705105521
0,154934777676847
0,149170774598023
0,146190142875521
0,154974755681738
0,149108119386585
0,155323417797483
0,146486302401966
0,148855866475991
0,144884888350353
0,150595169840066
0,139588518531173
0,140652346535336
0,141895260634494
0,146187529245506
0,145432029367405
0,143479571804202
0,141282620665132
0,143872346473882
0,138202584340808
0,139520583106642
0,1358320178139
0,140559091897917
0,134353599673948
0,139207895056136
0,133284856022418
0,137815577585241
0,134909971789136
0,135998099639628
0,132569216003913
0,136010003227411
0,1312604909658
0,13346954209441
0,133211145306492
0,134069438266572
0,127716981924062
0,132209819802216
0,127215390589473
0,131293711458476
0,126167144806181
0,129261921258302
0,126267451283653
0,13174904350563
0,128830553081725
0,129724174021696
0,123472311740859
0,125085710758336
0,126152042364276
0,12903696567585
0,123947868275962
0,127398647917788
0,121942909401834
0,124957417268913
0,122240672471069
0,124353779937553
0,120688398709719
0,128008075451146
0,123133110803357
0,122930847261643
0,122512284085223
0,12442416315397
0,120109099607203
0,121298650119736
0,116979487276579
0,125234619695763
0,121428563512407
0,123234167377767
0,118466870529468
0,116827255902221
0,114876396530571
0,118587637852317
0,115358638197305
0,11804748805791
0,117468603817344
0,118877737900893
0,11554765582065
0,117387691157421
0,111332192170227
0,117541113454815
0,112516251113522
0,113011027867797
0,113236888322015
0,114393252429924
0,116499604225746
0,115949903993717
0,109163393629109
0,114652085258661
0,11202486004077
0,114855904442943
0,109882390203904
0,115849615192264
0,11024875054817
0,111754230286437
0,109071203422645
0,112434690020986
0,112209170069316
0,115735202988488
0,108076039792126
0,111538823445505
0,105975560494096
0,11231795926567
0,111269171674726
0,114472004106671
0,106243668067298
0,111469290834392
0,110334715002464
0,109845814980672
0,112543827376478
0,111971309301133
0,102843007211164
0,112809774765994
0,109033832382633
0,110435128773969
0,108338944712829
0,108890691866848
0,106427946098908
0,108050481113766
0,105089619997481
0,111058878546232
0,106362330081562
0,107121405091349
0,104486934289061
0,107815190545921
0,102641238580431
0,103450246462401
0,1016403458251
0,107318046636477
0,103995488726858
0,103875871392461
0,101580225403935
0,105477539171379
0,100292236620847
0,103097880622807
0,0990032174681365
0,102327127144802
0,102029658722035
0,0966934934858633
0,0995504583192038
0,101090899140787
0,0958372585204391
0,102035971613211
0,0979933393566174
0,099988653676879
0,0922330448037448
0,100733884829133
0,0925535422667815
0,0977511597148544
0,0920144081482503
0,0978366715398295
0,0893391678397292
0,0937939276697594
0,0919981928285112
0,0974006490444711
0,0916996815712904
0,0977882921238415
0,0898961518542726
0,0943962906526119
0,0899087637893704
0,0949022286680238
0,0933925231498492
0,0944379234075997
0,0870432475467847
0,0926169189298554
0,0918025308539293
0,0934577650332219
0,0877302578742234
0,0912568024640818
0,0882884326771812
0,0942659645098924
0,087980960214633
0,0911417710674036
0,0891185103644324
0,0896236322463268
0,089031449056878
0,0890132597270897
0,088233514600402
0,0850140137676628
0,0835113845705799
0,0857408802211319
0,0807549179202188
0,0886072175102986
0,0837586676487636
0,0879540075435602
0,0776414216169141
0,0859222446676951
0,0819083386005392
0,0833091861355528
0,079659584616279
0,0841520925093457
0,0800098796145815
0,0825363226189332
0,0791079839880736
0,079389693462349
0,0773518453918548
0,0824400046737277
0,0760732632516453
0,0818305418110853
0,0755676370066205
0,0811143767209742
0,0721313484372888
0,0764100266586308
0,0730212209419012
0,0789354196364366
0,0720670468085182
0,0761146396111814
0,0733109761714177
0,0809433703919496
0,0702566538577953
0,0764768536108298
0,0701138705519941
0,0798032740804353
0,0730225835118999
0,0745005151843963
0,0687823309520821
0,0709245247793353
0,0682715590860802
0,0718553052169419
0,0689141823843822
0,0717974116801043
0,0677194806198487
0,070512888552938
0,0693997608214284
0,0727757852417403
0,0663509958480248
0,0682598336820382
0,0667253177187891
0,070738391194537
0,0669834082326703
0,067229979920589
0,0682567509970057
0,0697967923642231
0,0682630819256108
0,0740858178750622
0,0669835097758566
0,0658314708990316
0,0650081486868706
0,0717796027395789
0,0628519847720589
0,0694840625959138
0,0642445369721976
0,0672562819679556
0,0642853173362176
0,0674104463726787
0,0657930493240939
0,0667435642541108
0,0622776780443989
0,0684819532910591
0,062908700509658
0,0667187505721255
0,0634381228186215
0,0647227581657576
0,0634903373597319
0,0636704001240008
0,0597762791392373
0,0629770934803768
0,0599317856569997
0,064665752481855
0,0623563237049491
0,0645141261264541
0,0580560043133638
0,0583805954811656
0,0575047484480881
0,0600496242122405
0,0583115152218757
0,0649952475435427
0,0619271795430207
0,0632332025346386
0,0579165011508285
0,0625136607412724
0,057973449529741
0,0603236173691148
0,0551224735298101
0,0628257299766262
0,0583208760992881
0,0623696868430994
0,0571568121030315
0,0606954030842416
0,0585687455048008
0,0607661424732741
0,0543197086746146
0,0602715841421448
0,0565413494618024
0,060203314651614
0,0575721997260707
0,0618253549493686
0,0557218193753852
0,0611149721253239
0,0574918875662068
0,0609470148053536
0,0575415939681927
0,0599141313984689
0,0586084523645683
0,0625591952954084
0,0567293396797465
0,0607077604831481
0,0554134438238126
0,0592064405776426
0,0571444153971903
0,0595420637879417
0,0574374428911866
0,0597513991635592
0,055082790757588
0,0592055414260856
0,0527706566266295
0,0589364077451561
0,0538440414565714
0,0571701211917186
0,0542206039579516
0,0572321475508478
0,0503074154465377
0,0573466091802121
0,0519341626183705
0,0562899164205201
0,051549421589166
0,0531388633809289
0,0524666049747474
0,056458397900483
0,0530973379230519
0,0573451508767416
0,0517893934663911
0,0567745538946308
0,052119453935067
0,0524846813176299
0,0498238899133645
0,0540048238577775
0,0504825805688559
0,054948215118062
0,0476480592781608
0,0527930798785745
0,0496241879231984
0,0536774482316209
0,0520568938809099
0,0531588209257561
0,0485436270521411
0,0541170195416454
0,0496516927274591
0,0538990144384051
0,0501659591332904
0,0539388274354021
0,0455189110112119
0,0519003989153343
0,0495194228064473
0,0505239668016453
0,050056094916192
0,0541696913857296
0,0476322145421414
0,0512380020337275
0,0478897728520306
0,0524988769471792
0,0465075801061091
0,0518335411612413
0,0494718795978915
0,0523964677752319
0,0474240468873211
0,0496158386332936
0,0495045368129973
0,0527209325401034
0,0473488173092575
0,0510144817506825
0,0476777560262418
0,0506939944526595
0,0466737031840334
0,0503872959058992
0,0468058204185831
0,0510481157867378
0,0447665361847922
0,0507422857036479
0,0464992922248705
0,0493719961112646
0,0463037639074381
0,0500189710823499
0,0412761308494885
0,0466991699180128
0,0438288598252115
0,049900634500692
0,0444682460156825
0,0463981829949767
0,0467897081846207
0,0487390901519655
0,0411520735161887
0,0464885485126607
0,042894045896803
0,0471705073002528
0,0408006901976511
0,0457395713543842
0,0411940837438267
0,043285327022811
0,0403300147275424
0,0450865210740309
0,0426241528981391
0,0466031436941415
0,0382723638505098
0,043517617425848
0,0419158964604463
0,0440463922964628
0,0404308452590504
0,0433462045042732
0,0381493402029542
0,0433220774528048
0,0383672160583217
0,0449082280930894
0,0397100064214367
0,0433818942736545
0,0382238530727999
0,0424564247317154
0,0400852353104498
0,0428723614465395
0,0404977337535919
0,0407452151688192
0,0399603435435523
0,0420953437751326
0,038895291495555
0,0423880978240076
0,0383614352568578
0,0424619331744185
0,036126265204828
0,042356011265041
0,038012140012797
0,0415727880024625
0,0383716936525737
0,0421090578599424
0,0368129074082139
0,0439091878611657
0,0358541405219314
0,0413797015957258
0,0372661374052702
0,0416051576069419
0,0338316102126753
0,0388714806448789
0,0347260569802452
0,0404982839075673
0,0343678961042948
0,0375662666536379
0,0337478227490563
0,0383530894896648
0,0335808818065143
0,0374724632777583
0,0343509058235204
0,0362937318221366
0,0345747976659531
0,0401562565100524
0,0327437620911329
0,036543220305601
0,0344943947814983
0,0382037859789621
0,0316568303117042
0,0343756357092316
0,0307899290520745
0,0355108697312183
0,0306614412803399
0,0372705763757987
0,0306946171411954
0,034746214311531
0,0302829987866682
0,0368552555026345
0,0348567687793068
0,0380101521905406
0,0324248367360526
0,0385966928714907
0,0315591303862226
0,0347333039210928
0,0326373942601938
0,0373686830966428
0,0315966548386001
0,0366807246591185
0,0327155100719807
0,0363505663217106
0,0305261935910945
0,0387271404490857
0,031916975051226
0,037009742204026
0,0330366647277868
0,0387895495229995
0,0335324587846468
0,0368874371892948
0,0322818340516991
0,0434466787270879
0,0330537809295097
0,0386981065595402
0,0285818551350683
0,0343985459055385
0,0232463858995524
0,0351303261544887
0,0282126168020149
0,043237661805102
0,0188812631293285
0,0308887785891919
0,0247450730858469
0,0402948496750719
0,0217677385407027
0,0371048583380524
0,0227110321073534
0,0364011200009334
0,0289891927731759
0,0400037823209502
0,0173277917040926
0,03734201192435
0,0237666963375273
0,040339497385786
0,0256625653124797
0,0397767722832682
0,0271622395972665
0,0404679020359483
0,0209103800719499
0,0390846777625648
0,0174928932871382
0,0391025344560865
0,0153624097108053
0,0428458790017771
0,0132604871488696
0,0414749924052103
0,0104117998224265
0,0457491496629187
0,0134703378173531
0,0485506967106633
0,0113942325023202
0,0476348108373529
0,00847216900606163
0,0441337053838679
0,00190744986591366
0,0540473753151332
0,00539305272451212
0,0626146438994773
0,00634052816659518
0,0568001746089846
0,00192981782895136
0,0582128914465941
0,00721235570178421
0,0605803137536185
0,00704423374213988
0,0544400355384196
0,0127195164053863
0,0520128629573537
0,0225861605004945
0,0373768738289663
0,0387650244619445
0,0281168902302634
0,0405380605999628
0,0198682763384245
0,0524021953054478
0,0121639948255956
0,0578550043516318
0,0130830945965778
0,051241655196185
0,0162160525044051
0,0432655419171427
0,0222733751348128
0,0370808718024914
0,0308275340190563
0,0308180197430932
0,0315373267073348
0,0313133534965726
0,0330284825428153
0,0293240897857186
0,0306614526564238
0,0325936400566075
0,0253759468076219
0,0361734021711052
0,0264737584350205
0,0313457745249226
0,026493781435664
0,0304235672370914
0,0246533817547002
0,0277816453540187
0,0260311117781839
0,0278780493947715
0,0287174313332408
0,029380665957652
0,026982439831531
0,0310089216691893
0,0269440465942521
0,0297929613692553
0,0270755651378704
0,0268685452154091
0,0256341895417367
0,0291829649735622
0,0301724574150195
0,0311922432751539
0,0279086959905416
0,028927974749189
0,0266898051733163
0,0288165612121478
0,0274805285488586
0,029732803184884
0,0288453783912778
0,0309886344431599
0,0291349662573136
0,0275491793604669
0,0267755291240608
0,0299761335396702
0,0282798416026448
0,0310595814982567
0,0275819804535173
0,028391275247816
0,0273544394140171
0,0279493474475055
0,0269308655031904
0,0284605631693346
0,0265412340849898
0,0301224223058837
0,0300269217204696
0,0289856481759246
0,0285477150793262
0,030623863639292
0,0275536737288943
0,0284309595642284
0,0256272491028586
0,028414018322449
0,0271365190716207
0,0285444345988409
0,0296918776844233
0,0300389118134397
0,0263676587175097
0,0277823432166801
0,029597831220721
0,0280385632086892
0,0256544752904449
0,029576485685021
0,0298251968600373
0,0242531912337457
0,0266417139775341
0,0264368172913669
0,0274035024976713
0,0273794566167146
0,0279800404418461
0,0277784079238751
0,0273771864380433
0,0291132277287633
0,0260722648908322
0,0267000132408915
0,0262445124189061
0,027993283497209
0,0296160599311925
0,0269343822160862
0,0273788313460828
0,0292397996875801
0,029303216568264
0,026749069968338
0,0297301029505803
0,0290331132104476
0,02544727803687
0,0298698264712839
0,0304280326308529
0,0288113030176628
0,0263359557742506
0,0282644003846761
0,0305319194413423
0,0298458511592233
0,0266033274095116
0,028542725676175
0,0290210723541832
0,0268891440963201
0,0284336177659154
0,0292053339731364
0,0298283898100568
0,0281313118510709
0,0298911119747481
0,0303656864900379
0,0289018729466665
0,0291807257800928
0,0296408363789888
0,0282549208398133
0,0301247077847723
0,0283977188888172
0,0292522053224992
0,0287743878532302
0,0303878379453735
0,0308519714006924
0,0300009175398206
0,0274827566058139
0,0304325726438458
0,0299964347362819
0,029884150757472
0,0271907868773089
0,028657820281381
0,0287095199419539
0,03111514746897
0,0295597634767323
0,0296567553956504
0,027562057544357
0,0288102271098599
0,0272506025741466
0,0291544095765033
0,0289956680500111
0,0290837921193929
0,0279961155144484
0,030360550889957
0,0275244664615491
0,0293377722182774
0,0300236414172762
0,0299342401102386
0,0307568258572152
0,0302509708297832
0,0279180887016712
0,0292609819891575
0,0276390497582101
0,0290632713059718
0,0297319663496948
0,0307392664312987
0,029511179865716
0,0297834959722796
0,029031293434413
0,0302638981123885
0,0281680300121538
0,0302565080103041
0,0265754214179484
0,0314589203978634
0,030839903462289
0,0302415959436267
0,0310109757000833
0,0288961326703636
0,0315433099996268
0,0328449809604077
0,0325260117885498
0,0326518176829265
0,0299818246617873
0,03035285603795
0,0288676895596597
0,0300333733978276
0,0319287457547165
0,0314645043518298
0,0293372545605744
0,0315912597538284
0,0304084168126523
0,0285147318427447
0,0302818354904076
0,0301443574207947
0,030691936982441
0,0301924776752905
0,0290169331191945
0,0302319152906598
0,028792124130107
0,0284987679161705
0,029304387680901
0,0308643228269892
0,0285733692741311
0,0330290307907424
0,0287647900251933
0,0289999454291848
0,0296689026009127
0,0285714874733068
0,029095690032019
0,0295139599132613
0,0294732759077372
0,0285812466982432
0,0281131206719482
0,0297160981819552
0,0281821702835602
0,0285788826643443
0,0266452794292482
0,0282140310223017
0,0266568737283657
0,0286999828796694
0,0294260360314157
0,0304531831811587
0,0281826875692131
0,031141019246578
0,0290076761001145
0,0290520067739181
0,0284087389856766
0,0302198876311426
0,0281445530434825
0,0276620959753662
0,0288491570578178
0,0291538533038101
0,0274912204326168
0,0291849698334281
0,0251821280610825
0,0280550424834905
0,0295669057611223
0,029075904188444
0,0260348477359339
0,0271946255771754
0,0278170147949602
0,0283580153657285
0,0279957720065752
0,0291012237048602
0,0276805573542797
0,0285526183097559
0,0266215386193975
0,0294004113470915
0,02876118371171
0,0278917802936036
0,0269786627620357
0,0310864505119417
0,028244865905958
0,0288108258064573
0,0260256450433542
0,0267545610340012
0,0263456181848308
0,0279986274936973
0,0277416101042203
0,0279690715684374
0,0290183193264955
0,0274219543781229
0,0262923024297184
0,027887746828177
0,0257802065430914
0,0259754669666961
0,02728602416685
0,0280734479892479
0,0255126455579886
0,02761272648851
0,0262575998719589
0,0275760037739587
0,0267986414176151
0,0255391706015904
0,0275141554180556
0,0300489466979543
0,0264872399960051
0,0267651990848
0,025958867719583
0,0269685381207377
0,0269647924494662
0,0279519078748359
0,0241216740473991
0,0270563098333144
0,0267753734206556
0,0273265103100948
0,0239894679165952
0,0252436518902226
0,0235385897902249
0,0276119197711572
0,0243668060892529
0,0288943342768303
0,0260209718512225
0,0258365099463874
0,0266317435211993
0,0280950993421752
0,0235939767033052
0,0293164590328567
0,0277817460008798
0,0281401150460797
0,0304279763128597
0,0280675970156848
0,0250407310882634
0,0261235398510292
0,0252420285539162
0,0272040627714361
0,0260800411282172
0,0268537215830943
0,0267785678756119
0,0253991520216491
0,0251818954427513
0,0267099156420635
0,0236492911830205
0,025616138217776
0,023770522096835
0,0249733689220791
0,0254977682326868
0,0255864656131902
0,0245212769989942
0,0254848961570137
0,0250904588464162
0,0231964308547266
0,0241587219074588
0,0248057401817058
0,0251391360163434
0,0244352001197006
0,0278775152393153
0,026415161279984
0,0242875923451666
0,0245153811394438
0,0233313720858261
0,0240221115079196
0,0229512536947764
0,0246807181344241
0,0236929347370289
0,0251725070484726
0,0232964536807864
0,0221452988556583
0,0201976294189659
0,0219532505157147
0,0232944094040834
0,0239384534078129
0,0196291628231299
0,0220120976764374
0,0229790910112591
0,0215720495854465
0,0235826474020631
0,0225705569803631
0,0240097690795453
0,0216848982408562
0,0213988323923701
0,0238379211235071
0,0247460955659566
0,0342322095102261
0,024330465865824
0,0240950277404848
0,0229397395512912
0,0285254974181038
0,0223771763610537
0,0239585254074165
0,0184840118962869
0,0217640102565331
0,0199321138396345
0,0232967409822639
0,0231373028114926
0,025272450356227
0,0225874959743982
0,0230889575146454
0,0219730579771525
0,0222256381307068
0,0215492772553656
0,0247096610464281
0,0210549655154715
0,0235927556765328
0,0208781789362557
0,0226541485970604
0,0224959528047317
0,0227416134262327
0,020693506553127
0,0309061662338547
0,0240666022992957
0,0251328499534986
0,0238387422096931
0,0225605108074039
0,0182087584486201
0,0258778738565593
0,0212121701152215
0,0211111973489299
0,0184217845257687
0,0221206044077381
0,019911191288807
0,0202092990104006
0,0230033686670474
0,0212413427881107
0,0170114941233608
0,0227683821914055
0,0193463799273367
0,0208519396253227
0,0179769864463176
0,0218211446788391
0,0188630742388212
0,0215743164805381
0,0194916501386871
0,0256534372372515
0,0197744555588262
0,0217964215730943
0,0405807570511471
0,0210248346990333
0,0212370203094802
0,0189051778462746
0,0212759664161362
0,0200032545815421
0,0196175457641823
0,0205313360463139
0,0210230005853051
0,0197499569250927
0,0212535141635793
0,0207079521797622
0,0191377212172581
0,0236078808842194
0,024814324873878
0,0193126404991674
0,020411545760867
0,0197001956167607
0,0213219115731238
0,0191309452806652
0,021830682820483
0,0324373809346856
0,0252557612510732
0,020121851880405
0,0251636540252491
0,0120844148578086
0,0381785335965936
0,0290921652792154
0,0222765201701334
0,0242112942331871
0,0210776884573523
0,022549045090271
0,019685443840257
0,0221087128931082
0,0181878873671684
0,0304671761365209
0,0198240974547724
0,0247569164590693
0,0192600398049081
0,0216557472486511
0,0173037217852106
0,0207915503872336
0,0184220296515429
0,019503000345184
0,0207656975845037
0,0203755412307988
0,0194726636448376
0,0203710893257105
0,0184816341798442
0,0174118778119281
0,0210358517665391
0,0264454608081286
0,0190907850707867
0,0210239735656256
0,0223912027244855
0,0188953613633501
0,0202520538542818
0,0426062791936526
0,0178012912872552
0,0224382077853107
0,0158975120169405
0,0254204016266266
0,0203480838247917
0,0222409013965069
0,0172694775186547
0,022355799147457
0,0182828748903152
0,0214167658036513
0,0205684911033912
0,0198354829876067
0,0166038630216779
0,0209951044474598
0,0215729500473557
0,0197433024998469
0,018781061651237
0,020651975743937
0,0244861979284294
0,0183647798061657
0,0313485423174835
0,0428071613009058
0,0285081549847847
0,0333410898209831
0,0227336392405899
0,0244320447695007
0,0184231580405949
0,0229205619857555
0,0188558990522749
0,0250636892534486
0,0170777151917316
0,0224649486085508
0,0202453286757403
0,0227331369358533
0,0164955203547707
0,0233914007060078
0,017461758609831
0,0210761503385723
0,0152328277210642
0,023768033511484
0,0159945513672625
0,0250079353689197
0,013753126731419
0,0296500952125578
0,0225836294095876
0,0288189178534489
0,0118193807265314
0,0401572759085993
0,0453809431644793
0,0218832790411442
0,028689653075684
0,0202405940939012
0,0235086283951927
0,020170990406369
0,0201046368392622
0,0263585654381909
0,0218140036445678
0,0202422419751778
0,0214454153338387
0,0229436974309959
0,0223963297002748
0,0162143922008911
0,020667091410722
0,0451090317022829
0,0303404247062695
0,0255271093555952
0,0176396247728355
0,0204924979500467
0,0486160239297686
0,0250413749881208
0,023901019736494
0,0223447218786133
0,0218632165022726
0,0238945389092432
0,0214101675393602
0,0224431158144605
0,0268856050146229
0,0268204362609189
0,0194069845209719
0,0232652391573436
0,0200422950793129
0,026446570520197
0,0211522407242575
0,0285152732865458
0,0348506166244425
0,0221283076711489
0,0253896610228575
0,0248636511629291
0,0212752531164418
0,0247420363486118
0,0216026311582129
0,020793183357662
0,0275891513931426
0,0369437378492608
0,0241126816062678
0,0357236101810495
0,0343787560190453
0,0238339542183183
0,0276110123913
0,0306497292224549
0,0342449701051023
0,0230722433161053
0,0210699134753672
0,0533843553324077
0,0307495281161537
0,0446132438914409
0,0226555562100169
0,0307364866271458
0,0207406234054313
0,0288196791367123
0,0142874446309139
0,0394240982319176
0,0255826233424514
0,0286627930511373
0,0216421353921193
0,0304225904193577
0,0345849751452956
0,0313014912179989
0,0287374917468266
0,0244557731516778
0,0192213771007857
0,0357539281919974
0,0313336281010266
0,0170058088354618
0,0536509225414355
0,0493577969088167
0,0441051051035116
0,0368919304817362
0,01982490142374
0,0608577938759173
0,0327883971103969
0,0308767739068478
0,0255619208232104
0,0310446799173463
0,025046004790128
0,0233545530165561
0,0597804708348383
0,0403711852711273
0,0244921158031701
0,0325355495665461
0,0206594224191778
0,0511696141968374
0,0405206702059551
0,0316965607049487
0,0274987109618227
0,034134299598358
0,0184373008781313
0,054097886999066
0,0535715905820285
0,0389540860417601
0,0586596869282555
0,0422466605172103
0,0451354015475773
0,0407934617335164
0,0367398566142204
0,0426059497376574
0,0567201548391784
0,0408209925374959
0,025670155895233
0,041989006737292
0,0649147114655776
0,0343900186331754
0,0425158013612751
0,0373502280523177
0,0277881890762167
0,0560695654778159
0,0958810372593086
0,0676853015153014
0,0441751018183128
0,0393013163747813
0,063666570838704
0,0458902423181912
0,0408583967434893
0,0391881530257355
0,0369142825530546
0,0391322857671612
0,0377985545428379
0,0526623014441144
0,0424462952700476
0,0463285146693778
0,0456729018368272
0,0398846258113797
0,0596269678213807
0,0861305874935242
0,0830718815048057
0,0552249978338774
0,0752394704714947
0,0707580849937196
0,0588623363760224
0,0529042295180093
0,0473781386625753
0,0585118337626939
0,0532368769861257
0,0535219233048658
0,0489373791749816
0,0710833331170899
0,0638508873174344
0,0619867057575823
0,0857373299732097
0,0613513289473767
0,0638116176742722
0,0432055728583095
0,194984056325101
0,0990128121014945
0,0809013840130391
0,0779782715527779
0,0732888489059606
0,142507811097071
0,0897543712014945
0,0775940292891705
0,0806168310226259
0,079640632597198
0,0870860900323943
0,0965912207520696
0,094481078460173
0,104502580004911
0,0997212627375429
0,0900418536037103
0,101259612326842
0,165725886282442
0,156854253603517
0,135281235952354
0,110614948614347
0,127997178453003
0,133552647866251
0,119363493431809
0,121029284155416
0,120446650104066
0,126213084354784
0,18659966512783
0,143492881087349
0,138517755825152
0,140576534133625
0,164660491998801
0,14599947342253
0,186482319125842
0,18863186932982
0,1660753502146
0,157814486193332
0,158936349412326
0,169862982663518
0,16118401460074
0,194668639509785
0,189603959086157
0,178751093477132
0,180294887296374
0,177784052253301
0,184063468611506
0,1850989789144
0,190286838927851
0,184358522698979
0,210964962975581
0,210853621869249
0,322294719542052
0,235739550450018
0,199728070627862
0,195988260991485
0,191370159607417
0,232713066815329
0,213563270311428
0,229050445206618
0,235806102132304
0,195290664682103
0,196098771813656
0,194102699732664
0,198458074361495
0,196768644795221
0,201405961014432
0,189918721442525
0,217607250918947
0,197588110178914
0,206303985262243
0,266392233303464
0,205036642612324
0,192263712424832
0,194403612899688
0,190819624521965
0,189749544314522
0,184590200541197
0,191679806266405
0,204738925989851
0,18540411230058
0,184970059396696
0,177904790642803
0,193711583044136
0,207922654470788
0,180751980165961
0,179623348138233
0,171965377688973
0,173250745379097
0,163697173321938
0,168361191081743
0,212713202223141
0,174284548073957
0,15990408071612
0,159973410945143
0,158426053540176
0,160854057163127
0,158747240907921
0,166476064726535
0,164232849811296
0,157459326591227
0,160016050090834
0,155272842139163
0,149607282009658
0,15629245499883
0,156064221179634
0,154112364500948
0,150667181556641
0,154267920159994
0,148849307167127
0,148361447481598
0,144213904608445
0,15269072018863
0,152431683095747
0,153619401834602
0,147973326239613
0,144409227477032
0,146610985838932
0,147380383663191
0,148726017467494
0,1523572273057
0,144272020897443
0,145122820130548
0,143049132590877
0,146743946927991
0,145795443232222
0,145938642446686
0,143855786984161
0,143324416886049
0,141985891590809
0,141887531730134
0,144786573398838
0,148685548657459
0,134406339854518
0,169427430324276
0,169835058646357
0,14026011163057
0,141046004509819
0,138134876538972
0,134259766811712
0,134812417303696
0,161812895143553
0,165537286800317
0,136153341432316
0,135754095140687
0,127691471694058
0,139894944359147
0,140332581497627
0,129342348949467
0,126429210082347
0,117498346413748
0,14070841675702
0,207736165977863
0,173996299079379
0,21973554912661
0,153970542176777
0,123792349954896
0,131203625756633
0,159581443063986
0,130219264137846
0,118973896809602
0,124131848195709
0,144084806337348
0,134461152090587
0,119565012687289
0,121147888984139
0,114826852218472
0,12995184777325
0,145431037529157
0,126397642343915
0,136731603371339
0,15549055182475
0,132342982983685
0,142003065342997
0,181840975849714
0,144901345176313
0,117546415319444
0,116115616494824
0,110934167765902
0,12124041573256
0,150378007940449
0,126974937790181
0,124570355935309
0,108479555081628
0,100638088755174
0,107121041195262
0,126473179381988
0,11662534729231
0,109829154341127
0,12863699461503
0,109429680386268
0,104379674450804
0,126083487550562
0,137087275779016
0,15757760272064
0,113486808599173
0,0965618347789488
0,12214487494087
0,139053794024015
0,111430955952616
0,112822023411675
0,0953583620386261
0,0968788753023488
0,114209683441346
0,102569957959367
0,102459504147444
0,114866803148335
0,122664727200813
0,139655788293712
0,150553559432828
0,142197929374772
0,108293946641076
0,0927014771659298
0,0892861878857268
0,0974703151507227
0,091964925319714
0,0899967897933803
0,101315564632074
0,106992621484771
0,0951391154584753
0,131272526562415
0,108950511232146
0,0942369663995732
0,0963376213011411
0,0949992579098055
0,104325407017735
0,127536551114404
0,14334353412431
0,121790744152943
0,107329424463762
0,121958836025097
0,110976408360659
0,109529335184336
0,110194452022109
0,109762057835192
0,114360002284946
0,122214138969704
0,121897562911569
0,122034637644778
0,123730121765224
0,126097480817881
0,149824663033642
0,157656530732853
0,137785648103169
0,148394628514138
0,177313020389978
0,179705956519711
0,171212929541802
0,154635891796497
0,15978285404195
0,160982624252609
0,16283590100111
0,159052445028268
0,173420360166331
0,194526402787276
0,178244947543009
0,167795782389342
0,176469929764967
0,173566646812381
0,186237391419561
0,196864598291376
0,210200601851713
0,224330854496085
0,234353896319234
0,209108334651057
0,193875876988644
0,191384328084391
0,196517074937944
0,202249430137628
0,189431474917395
0,191333772970638
0,195555146910645
0,215709764541055
0,206700161425201
0,200974139422308
0,201110863879467
0,196970852247233
0,199383687554755
0,201323681609824
0,205951209742793
0,209207789063873
0,208870489968588
0,204717126363715
0,209398253664053
0,256097035772397
0,244802066219074
0,212124577490608
0,218894622090513
0,218514688773906
0,220945031498656
0,219197405313214
0,228542271262333
0,235093699187456
0,226968075998321
0,227862604815707
0,231633002252729
0,229861733240958
0,243985781264399
0,245624404214621
0,242677447035196
0,238370609560829
0,237580783971775
0,245064927932165
0,281092983801707
0,262070921180933
0,256888533998753
0,254596772226453
0,245883772948975
0,245620651424157
0,241311468718728
0,24712599041861
0,250195617675917
0,251144196465029
0,247545812545535
0,244590672625855
0,244750430877944
0,244819503883683
0,247481825209599
0,258942017709427
0,250624444498575
0,240546129795622
0,244697720126964
0,241412139380563
0,24257437240894
0,262775148831656
0,262958309448579
0,245667867476099
0,245153994551431
0,253689333825004
0,264667143933135
0,254590849766823
0,241357555243373
0,239599955759807
0,238669182634796
0,242786364235597
0,243610086197081
0,246922400682708
0,255239503550251
0,257276912410069
0,244892279327688
0,249583580931
0,244417224536603
0,24930767499237
0,248984995242264
0,251877618970627
0,251858954543703
0,255385287347501
0,261034412033085
0,255342916952668
0,25649224513538
0,26662957453856
0,265050563314583
0,268864452901101
0,255050119528948
0,25350365677793
0,253821577615394
0,256146966123297
0,262016639911952
0,254031683603559
0,245792046305163
0,247295233444034
0,237329721338424
0,247232392282133
0,260698302598878
0,248371891593083
0,236210658633713
0,240837842523949
0,227484040761329
0,231417235204417
0,224836430621666
0,22572005496578
0,222036452684602
0,226184758579935
0,219340784842166
0,219394989822942
0,218454573172997
0,215690568852021
0,215876276953009
0,218562937170051
0,216550488497093
0,217394328550035
0,215903827510105
0,215275142168831
0,208940216889851
0,215506368223987
0,211748130389231
0,216267844541729
0,219766248814157
0,230636163256203
0,224506077683589
0,21903057469532
0,218699766405438
0,218164796269604
0,208945879620638
0,208353342465535
0,211323692016889
0,211792833045536
0,214482018756285
0,210380379553407
0,20918238141728
0,208114406602639
0,209347366648343
0,206938871360093
0,207066651556275
0,209135625803262
0,206283328497819
0,205098524872923
0,207374946715066
0,205054123400097
0,207625542554273
0,210149648062779
0,208256085520846
0,210223828426267
0,209753540887519
0,206005009482289
0,206442413213234
0,207348505998514
0,204816222671723
0,207111742766133
0,205204906161827
0,205977672831402
0,203099012072562
0,204524339016368
0,201425001926923
0,199909167895075
0,202540580971156
0,199715101766676
0,198601431673953
0,195683782720168
0,194644402038405
0,194066917434894
0,191994275346312
0,191885942324731
0,186768451808333
0,188772217468904
0,186212355452715
0,185423978344689
0,183463249578492
0,180788642582422
0,177066062239354
0,17749678810514
0,177508733667578
0,175589747475787
0,176880817426296
0,175296458813913
0,172176584433702
0,172821746358423
0,17277500994498
0,173361935015422
0,171514500180523
0,170860986821984
0,173115985905474
0,170916877027776
0,17126714491702
0,174036980878564
0,17186372675018
0,173502596932578
0,174128903032838
0,176386638012795
0,175642096581836
0,176804560949215
0,175551494496671
0,179054038589064
0,177801779073332
0,177918242593429
0,178794537428104
0,181030016085387
0,180242464529402
0,182829600616566
0,18051789278815
0,182955280923165
0,18153167023319
0,183383470348521
0,184810370372524
0,186466250684474
0,182377250570571
0,184672368941207
0,185691010007059
0,182571982630865
0,184245718809317
0,186637739146298
0,184366362704028
0,182922280043797
0,182021226488784
0,181395094545651
0,179331547406457
0,179069202314122
0,179591236490336
0,182707297585003
0,180048639485335
0,180445315934997
0,17913363497971
0,179224942279169
0,175873271289574
0,177340595988565
0,177135323432664
0,174190354335825
0,174706524089844
0,173710124409371
0,172542030311999
0,173844189575579
0,172887994999209
0,170579019978495
0,17036617716028
0,171212179798934
0,171508942699233
0,170838549811677
0,168632252676853
0,166043944163534
0,165755263337167
0,168055077078911
0,164996756454883
0,166388213081736
0,164660761111809
0,162600772332287
0,161715016294218
0,162471043450394
0,160907457678684
0,15957590087639
0,159706386966785
0,1588929474645
0,158126751699483
0,157868612575851
0,154529098543806
0,154797128048142
0,154659610992225
0,151164324547646
0,15091732242183
0,151330080995088
0,149485472672527
0,148261229905417
0,149045809025926
0,149862996819224
0,150047465767372
0,149277939586806
0,14828879652999
0,150230829099334
0,148824273299118
0,149532099798994
0,14851330008315
0,145186128691888
0,142877505425138
0,143167900961955
0,14262269926303
0,141940938044704
0,140069970470104
0,136334950142044
0,137046998002157
0,134955653009436
0,13208169881301
0,133766727625813
0,131989544336829
0,130025473511447
0,131389120699267
0,131965450911209
0,134401446529082
0,137907131910534
0,138516299616779
0,141370606548543
0,147028714532787
0,153924193583747
0,159676924865938
0,166641485179558
0,17343369997762
0,182164760592968
0,190565163857454
0,198979736436083
0,206157634372283
0,215546567365754
0,22469872675491
0,2338677114654
0,242086928576039
0,2499897814523
0,258930320815619
0,268868000268061
0,278780355881953
0,286252187991977
0,297029239681578
0,304271693562062
0,312977650859138
0,3217629418839
0,327004978970977
0,335513998362169
0,342762924523598
0,348867532101652
0,355291670999302
0,362791641364521
0,364835789119139
0,369674716654199
0,372090328109117
0,375767321810086
0,376536214214299
0,377543295175475
0,377911015989056
0,376850390373978
0,378240484878388
0,375471739856615
0,374514482543585
0,377304504193649
0,375688453459823
0,374474499291547
0,372673483318578
0,372583979242516
0,372313017777475
0,375998820035508
0,375690640772313
0,378439537465975
0,37909436593242
0,379227807835188
0,383061210143334
0,385953839243064
0,389912193313904
0,396947090846025
0,399991225128897
0,402402121200162
0,408980511305324
0,414325428703833
0,418214909354501
0,42544614973263
0,432212955415011
0,440725854701026
0,444490910044705
0,447664528454475
0,455180025431693
0,462928776303819
0,461056050607691
0,468357231866811
0,47525283424018
0,472391055227451
0,475225552670279
0,474763126182045
0,469905052178145
0,469042649820419
0,470736778885583
0,469026719061841
0,466278775441601
0,465635419188733
0,467551074523818
0,471242727013394
0,471154359198722
0,476599403677685
0,480778230228125
0,488610146995823
0,494439768275933
0,503301419600539
0,51165179591542
0,519133751067125
0,530162668160454
0,535303861051046
0,545506290757961
0,556408916972642
0,561317199195963
0,571449390419064
0,577614906120953
0,588802506974767
0,597789311053656
0,610487382142767
0,61720795637482
0,624236223913014
0,640228834395445
0,648762700863364
0,660117223202574
0,673255888389327
0,687409748297158
0,70648471324339
0,719675119777294
0,729438602089907
0,74326491243254
0,759371138514399
0,76759683477556
0,770771215743271
0,777259025779642
0,787821655631056
0,788862426178385
0,799975720602845
0,804331524745318
0,806764861094289
0,804369736968184
0,7976408710071
0,801442309425155
0,800989744612639
0,791522420058449
0,786772924690792
0,78199493228029
0,778524772348481
0,775115823546314
0,772160099483315
0,762799728293268
0,764084820483098
0,762445894138451
0,767760404586138
0,777502195217562
0,777348458107965
0,773832100929071
0,783187584558792
0,789165538524011
0,800756293759801
0,804071881332024
0,810597374588352
0,826639979548315
0,83084874697168
0,833740911030946
0,844509081512365
0,853980381143536
0,861619789658538
0,866893851058983
0,878803505647545
0,882375105138493
0,888920597963915
0,883066346109486
0,880217662936904
0,885397785368902
0,889845277255413
0,889689035396148
0,88276203558455
0,894683482671406
0,901971730557251
0,890145731531385
0,901913041821319
0,905125646010242
0,892502466425301
0,890482273860808
0,889561796497215
0,88846455200196
0,884494899651767
0,884775881040565
0,867445940083836
0,864746619874235
0,859751662846261
0,843573141430961
0,840943584379367
0,838331192965741
0,82915121183218
0,80812868912256
0,792554043563191
0,776620207043298
0,754039637273204
0,723303670073172
0,703474388599832
0,675088359090477
0,650129953385027
0,623677960932171
0,600667090104032
0,571733440725133
0,552641251187031
0,533072960962929
0,5084526283945
0,493165995180301
0,477056178557347
0,463850290236968
0,456109260205722
0,44949176749276
0,447789288356504
0,443187523157763
0,436496739646008
0,429656864423559
0,426493707650633
0,416257810378948
0,411216459592569
0,407594145072303
0,395916161159797
0,390510051551268
0,379701551393169
0,369237650004937
0,367939338163881
0,359873420248688
0,345852047248765
0,334195307744873
0,32288393329141
0,308875048849734
0,297507600723725
0,285228601951277
0,272335440164118
0,258256924398486
0,252052378454528
0,237120889910712
0,222993606811489
0,213626821492917
0,203950643955901
0,190615121970005
0,182968227510778
0,173540784398059
0,161748603675259
0,152458965809591
0,15224098744047
0,141624117704235
0,13825600066649
0,132757436732541
0,127410543721798
0,124459502627922
0,118053465461002
0,114929202111809
0,112119143924982
0,109258841357367
0,11034165642234
0,109318312788847
0,107334831208325
0,105720434052509
0,10574428809815
0,100883114145107
0,107102821928968
0,105275183508319
0,104374483180718
0,105969614217996
0,11091966643742
0,109279843421728
0,111048725892625
0,113351682879889
0,112628585477018
0,110396569546767
0,115794839032065
0,114288158423497
0,111247512200832
0,115559542913729
0,117152796124082
0,115844826815397
0,111075564882969
0,112962294149461
0,115858262879092
0,112971402880993
0,11458746193223
0,110190643249988
0,112571199643126
0,114138048456636
0,108574551477354
0,11233586732094
0,113702287042148
0,117640101992165
0,11505041327021
0,116020163478104
0,117199854845521
0,114322250232113
0,115325807937996
0,118182223375174
0,12094690533491
0,123928020008899
0,127711261023139
0,122386474734328
0,127065743367008
0,125098849564369
0,124590968885758
0,128619254289032
0,126100908909495
0,129875080332841
0,126653018045946
0,128365311067951
0,128917628092529
0,129388002939747
0,126309588747662
0,126582907030936
0,131389940895804
0,12756602509417
0,134871437902058
0,135667337001361
0,131311078886772
0,133298238375802
0,138563762207905
0,146010642666506
0,150426528019077
0,150991219935933
0,155470835349138
0,164714837172667
0,16724114817469
0,16828011601548
0,17177783373397
0,17425430470267
0,175437739910088
0,172571179992197
0,17460445602872
0,175291565357617
0,175427719345294
0,17110458271724
0,166200966823722
0,158812774529816
0,153679586314945
0,156635981167972
0,161150179205112
0,1558263998084
0,148205640429425
0,150203036931189
0,149899732491176
0,149506499528765
0,146522944257161
0,155143680922313
0,154005582361052
0,147326365235824
0,150838634149402
0,153437846385234
0,152427980002135
0,141292534374325
0,14316375800227
0,149227563901355
0,14557359531816
0,14537844702293
0,139430654905906
0,137612963694176
0,141240743143203
0,140909294785285
0,137263151824053
0,137565270605177
0,131956021998631
0,131897535864064
0,132651539284998
0,135745083055363
0,135288426015875
0,131021112839423
0,132384618031868
0,135111777358594
0,138112108016573
0,126988283183346
0,122423553558505
0,130321410823331
0,130699422873984
0,133317486983318
0,123865967506637
0,128498507246594
0,130882237045984
0,133221944511315
0,130242254882086
0,120090213661534
0,120716584275226
0,120425133089353
0,120593207218462
0,121214420588507
0,119679464564667
0,11966670030215
0,119438182522222
0,122479625428625
0,111190238325486
0,120676849592168
0,116986557745663
0,113334706171506
0,113351943843507
0,125131100105962
0,111618353024816
0,110623152308306
0,120134869109027
0,108496392315218
0,110623273973549
0,115748754885505
0,1111588741328
0,116336267770118
0,112038007627378
0,120436009284547
0,1119493429811
0,119074744325504
0,120884606165427
0,124309621932186
0,124641706235704
0,120033625911693
0,122102258522459
0,116742351560817
0,12283897106061
0,126734690845951
0,12561659914867
0,134924064306843
0,132713572700521
0,136854248482749
0,132859152503377
0,137121628154744
0,147312945723815
0,133486420482064
0,137940375725357
0,150064982803909
0,150483968769495
0,144349699696113
0,167360570265843
0,154487370966063
0,163012848583821
0,167659462597234
0,169665844600097
0,17744153330676
0,182812111199807
0,189766015222909
0,188892440745657
0,195768500237965
0,195967083600597
0,188546144158809
0,218415231359988
0,220919291457335
0,219652572603036
0,222146015657137
0,224192741108103
0,23700782941429
0,214740476591189
0,243424247422989
0,235737829695923
0,223811868548957
0,213349802180275
0,222246213953057
0,230397864593006
0,206451185750922
0,222869708647684
0,220874719117759
0,211794181494667
0,209861314305774
0,207773003739721
0,225658249575158
0,220465959684991
0,215484916237818
0,224050859158873
0,198130633044656
0,220018016503844
0,219288639726863
0,201592810964481
0,194425719111932
0,206175902389515
0,195945256482563
0,213446931121494
0,210681957714189
0,191076785177156
0,199266575840812
0,187018233408096
0,208719659632788
0,193855094342245
0,197830502493143
0,190220315900938
0,176465883203306
0,188577308030603
0,171392200825085
0,189125363569992
0,188550798510632
0,21131715260343
0,198163243724749
0,177371090622762
0,185205715185171
0,185283635572444
0,197958110196347
0,217670612025069
0,19719120709239
0,194840293485842
0,211787394301028
0,186799855485484
0,211966811832892
0,222114250767841
0,207426575460694
0,204949306699453
0,181303307633598
0,209749128894713
0,193108235479876
0,204629087132386
0,22371046529152
0,191283526467273
0,223019820820265
0,245278463328928
0,196511526960736
0,215563327056454
0,199846908317337
0,210586539518539
0,232475896445915
0,235728617909941
0,222237245550936
0,244194519419471
0,273739233451987
0,215683452868436
0,193224661818964
0,238223307500367
0,229464575218399
0,282487699339775
0,25719396677564
0,272762678107403
0,243850898498417
0,243797512574186
0,265992068755094
0,260679429661383
0,244662433364751
0,283497290159508
0,287396111928041
0,301036647880109
0,31398941060703
0,27191456398918
0,281596422106597
0,28056383894593
0,306049100553794
0,305128777977383
0,217744191077348
0,270290787477352
0,269111815830549
0,328286038311073
0,282420785613972
0,265479257620353
0,244097481467807
0,288456271596492
0,259105810535743
0,295744486839431
0,300578627527432
0,300369246588127
0,220636738645973
0,260257263587335
0,321331795030205
0,297960134447454
0,307705267993212
0,293485721052098
0,243220201011365
0,254298194203054
0,249850479402134
0,257949710600197
0,240099237880883
0,30719114223033
0,289475256548003
0,299366880477281
0,226704333631402
0,248851753870806
0,257865317012248
0,209315700644203
0,216375132417527
0,317214679904486
0,263742508502757
0,185344634244077
0,126600276906639
0,215191978830912
0,247240929912287
0,351392882480262
0,337956443521316
0,310385360089133
0,206142084411451
0,272867964158214
0,299274967930445
0,194001192324158
0,104911672293323
0,436906192539417
0,300948794226867
0,306127928252883
0,296522063884543
0,553444857400892
0,292249679142205
0,316256694866551
0,0367015352986514
0,117402801362166
