3596
4000,36533379555
650,420452594757
1
2
2
0,0654493414106901
0,0449769063908982
0,0717575877041057
0,0476070699121379
0,059130308341721
0,0475158918475911
0,0675692055418386
0,0376651788534813
0,0638467336343372
0,0495065755579997
0,0683380734419992
0,0491969838119756
0,0618424467939466
0,0449426917066926
0,0596219903204252
0,0475274768893653
0,0613412370980043
0,0486304537470086
0,0640261804625913
0,0423536951177512
0,059863284827281
0,0391869363304846
0,0591688747980076
0,0436180411341408
0,058637939004096
0,0504549580126175
0,0623303116149207
0,0432670312736823
0,0675766185655942
0,0421179009979625
0,0611420340730315
0,0407197829896102
0,0651049003714709
0,0457492216202147
0,0528509830496722
0,0471072700009795
0,0582133113013486
0,0506291396433004
0,0589305907034096
0,0432644150687657
0,0677158213985908
0,0556434042371841
0,0612363130107267
0,0451797783999999
0,0621927856209394
0,0569242583534452
0,0613766019376895
0,0510274594998831
0,0634630759831415
0,0512457704898758
0,0706969943355876
0,0380332556837085
0,0697068714689485
0,0509024242384434
0,0628294356913777
0,0610883187540004
0,0706036552143828
0,0412822004020779
0,0673112353052709
0,0413311359583267
0,0753445995347898
0,0647212036589017
0,0624746213841177
0,0432361693034638
0,0615561339722087
0,0520965689297155
0,0565320622396438
0,0448105500622215
0,0483394334232226
0,0521950611419991
0,059938879963933
0,0727285368920044
0,0734830492900042
0,0445177921072456
0,0697366226134914
0,046333932954267
0,0549873481192563
0,0435840945615049
0,0421394125063487
0,0571685075138731
0,0761730257295722
0,0544360192711764
0,0633746405751873
0,0415234107209117
0,0572298205276799
0,0656109413142632
0,047559513758793
0,0465205529068774
0,0866664160953085
0,0539904547851498
0,0531550417098057
0,0435125313595603
0,0559253149812928
0,0453165997609895
0,0550831401282165
0,0502599493780261
0,0577942479404777
0,0444485795583955
0,0488800768872617
0,0462790076205032
0,0637088209224431
0,0431350376592943
0,117241714335538
0,0299585747643023
0,124339598559881
0,0613155058852689
0,0601530589239282
0,101256162215049
0,0694373377519377
0,0554800131344299
0,0604319993860281
0,0463224363935828
0,0547711980975627
0,0576263076731586
0,0328769102264169
0,0648472695430319
0,1009972734526
0,0525838604196242
0,0580693737780483
0,0494278289901013
0,0312490126347228
0,0571200164490181
0,11182176187561
0,0472697544803823
0,077197436466027
0,0444723753374975
0,0512586613306165
0,0778076113257387
0,09777129854027
0,0516664374315041
0,0608105825934211
0,0405216247648826
0,0563166931502221
0,0241025278226817
0,109546350443476
0,0535164649729618
0,0649627969339843
0,026267160881111
0,0800085939010845
0,107377024450663
0,0853571734013035
0,0514822456882143
0,0511539532750377
0,0376464363124897
0,0945581839077998
0,0628551978697898
0,0554760174184399
0,0593491275192
0,0638686329463619
0,0393655312373954
0,058632944590524
0,0311087278491099
0,0759867144895203
0,056167899465111
0,0200966841072167
0,0772198004406494
0,144890396527958
0,0448704193994023
0,149018828412556
0,04399902613333
0,0841933632896019
0,0440943735971437
0,0634509054936356
0,0332932375789576
0,0567053998158387
0,0237183512178697
0,0723363805571376
0,0732106965784681
0,0571120547105708
0,0415589559161493
0,0912613991644749
0,0620066128538206
0,0390080657092074
0,121840889255859
0,086418230063993
0,0299555018474843
0,107787198023291
0,0692699546944451
0,0441426356269412
0,0501498090077848
0,0999970744016785
0,0463295313057129
0,0677661641290925
0,034384717152428
0,0577173354198255
0,0609532943307263
0,0804802507280456
0,0422764393469024
0,0660975133602685
0,025724808239015
0,0713895933078984
0,0971756663649974
0,104929196277297
0,0461078821210859
0,0730278985836983
0,00323568535985767
0,0924148810537924
0,0919607179114434
0,0657037719902957
0,0405645988251169
0,0445901217330762
0,0434322613382242
0,0470402332979093
0,0431333831376984
0,049889964312077
0,00547536789871999
0,116725616281381
0,0737916501371222
0,0704650628237231
0,041568506740573
0,0594783037656884
0,0204072219858761
0,114292698318167
0,0804623704610098
0,0557682665182423
0,0505960632338016
0,0487850839884976
0,051065617145537
0,0851219661251463
0,0432609050951081
0,0600009224385036
0,0386163318672523
0,0543876324205759
0,0404672582939709
0,0574420786782352
0,0386997567857247
0,0550426493447174
0,0429312276156558
0,0569312869403466
0,0416266003993579
0,0605493674381414
0,0489770713993684
0,0572315328014439
0,0480090217627548
0,049250432082309
0,049941195196387
0,0956934993484223
0,045708410912172
0,0646868323552611
0,040591123933734
0,0557719419890068
0,0368981712900563
0,051051890844669
0,0376523592240522
0,0575166254967325
0,0243364064567264
0,103730240248188
0,0480290492831193
0,0680529965019509
0,0249578106591198
0,0938094477455571
0,0672533435535763
0,0637734994049187
0,0390427857701621
0,053349380342728
0,0366267333374838
0,0495363041869961
0,0814222105136016
0,0683058408708164
0,0390758827476692
0,0787484306231436
0,0591360508795466
0,0572368978704161
0,0404123099572276
0,0327954591912603
0,139889147047896
0,0777198963625789
0,015075893801269
0,155421901893874
0,0701429979608845
0,0770519421176343
0,048233512286033
0,000507341235128258
0,146518775092313
0,130948625390532
0,0507221936814531
0,0585147912377186
0,0720761871838232
0,0551194663367609
0,0526220422730575
0,0664597949859557
0,056682367100381
0,0831177449612953
0,0662061909038896
0,159486121606207
0,0181197908103809
0,102007517957318
0,0877750902410824
0,0619799161558788
0,0468242208884868
0,0546007677738136
0,0353177629327747
0,0801628736158718
0,0622208592110007
0,0817136578456709
0,0665210427935577
0,046521998513052
0,089709000002936
0,071603857206413
0,0403700385407909
0,0654704018791441
0,0645056352323519
0,0504405725605453
0,0552853076276311
0,046241101348594
0,062445876370498
0,0564512499829669
0,0272005161547713
0,116079225959378
0,0717524909582635
0,0543682624324548
0,0914624372651873
0,067402957376591
0,0477603328990988
0,0536305051705782
0,045104491261612
0,0539600196402237
0,0458300526272258
0,0370023362390891
0,0789363246352612
0,0636571990770462
0,0482631303970569
0,054266897907584
0,0446562968028565
0,0530122715360984
0,0456096888329528
0,0519252361154686
0,0422722393331665
0,0598464540607639
0,0303499815054193
0,0689298529916197
0,101307267775323
0,0312856926611232
0,0772153227094178
0,119170235976099
0,0543983170653943
0,0617199939950992
0,0397830970300541
0,0698811293056112
0,0418043701745997
0,062832162604986
0,0442757774104428
0,0621013962647324
0,0692210015289786
0,0709385993164243
0,0419754190253448
0,0597868540015076
0,0946078646396383
0,164346878006294
0,0752741854307935
0,0834700690070098
0,0219517468274823
0,0974527809672984
0,0987895430134673
0,0844018532295062
0,109474123552501
0,0615086549176658
0,0654563871106112
0,0543513080664732
0,0621417169846617
0,0601920604516743
0,066083974782054
0,0690077069987249
0,0672850616309867
0,0665138132173131
0,0646121559549611
0,0657121782109811
0,0607740105019097
0,121509602525822
0,0867782892823394
0,0685553668874795
0,0811075108148442
0,0498358875077765
0,0927244733592131
0,10422165818276
0,118643864922989
0,125137605710674
0,0869330281281556
0,167246475993322
0,0793585194497215
0,0933377395687982
0,0666218514444485
0,0939067815253175
0,0812895312895333
0,0945124327485053
0,0754438158746028
0,0845859557207906
0,0705454832005006
0,103164053208029
0,080050797228663
0,0931145770396206
0,0645322975960911
0,130508411618945
0,087406113250443
0,104425857884565
0,0782204385757246
0,114452307683253
0,145591821066296
0,163353971507836
0,112436970429578
0,121016743530427
0,100689999281206
0,108911891357003
0,119120358983763
0,102821244184047
0,112339938270264
0,110693681109712
0,134249613149816
0,151909411049895
0,13564592987035
0,163157152286394
0,0984233392747855
0,152164149023844
0,126948139777934
0,13891644813879
0,157663324755672
0,15444943123856
0,110415070946246
0,15478383075445
0,153024571237043
0,135187987014102
0,165598940691752
0,142589582860104
0,139269237839669
0,14161032915881
0,148687092817398
0,140448998262693
0,14846697599836
0,169762859784617
0,149851791631391
0,166553368650356
0,147679411699733
0,159178290813993
0,164661351663689
0,178537688985759
0,155775200664564
0,190543971963286
0,148087437426555
0,19986310950583
0,150911727510725
0,208934578108178
0,191399703466808
0,196760986462074
0,213349801415016
0,198921260077118
0,19037701293956
0,203300373169317
0,187460044318847
0,200797639151063
0,194835925608483
0,209339891253803
0,205834175860154
0,214610993936257
0,20253898428017
0,213479680963458
0,204424122662113
0,230983603473098
0,220932272837009
0,232699953474554
0,214378968724921
0,236713681204139
0,212672439291055
0,266687897071404
0,267988046158268
0,267315919171532
0,277004023590714
0,257985963838413
0,238550753593418
0,255493255862168
0,248282470338642
0,268424661476868
0,273092722099618
0,268281333125397
0,253900094544108
0,281233343010685
0,265954601899422
0,281721867989275
0,282544138073476
0,314869250290433
0,297510361761969
0,333512346633537
0,287330385334702
0,303913069984097
0,309756620195769
0,322002464725377
0,320989852372849
0,340340464661547
0,31808553223426
0,355923558478918
0,318424295309001
0,326032908342737
0,323878575496333
0,348961003161165
0,324751351425608
0,355886751001966
0,321561501867398
0,362902828713726
0,35106587044209
0,374937248923724
0,346469851016559
0,375685356547488
0,353800787809687
0,381964793894513
0,343909047369854
0,386369791788307
0,371102212071976
0,412333367515027
0,386170188501645
0,418412854553007
0,386772788076729
0,426323252626511
0,390170514741896
0,413097412331546
0,410030981859017
0,42300653813901
0,412957090129377
0,438669633651128
0,404136082530061
0,437297982791199
0,426136467874222
0,457422883998295
0,431804906397831
0,476833865084531
0,461578931126058
0,487729305564203
0,458009457344741
0,50198112428279
0,459074143390846
0,511289926531677
0,476343320015454
0,507324553535129
0,473148178008754
0,499208044555461
0,46875775666344
0,509900418446474
0,49291782897754
0,522545336420836
0,474702850897373
0,517675635969565
0,506676583730331
0,550690539479521
0,526189121367067
0,536768699262075
0,509784249437251
0,562203519636512
0,526066432896474
0,575584538524232
0,535014710332721
0,587098779450514
0,54936743062248
0,570075341942243
0,5446517883602
0,611024185906723
0,561554734058643
0,614817684232207
0,55757015104539
0,580108497221926
0,583308534095933
0,624640059505892
0,593345142032308
0,609281223143466
0,578901085243136
0,63473012485289
0,624462055356392
0,61158938027191
0,585526110540509
0,649406671530681
0,586432961839295
0,621295482847395
0,602467008857354
0,630072137037444
0,61178212383406
0,690568110460724
0,649751234792829
0,673860396829568
0,647681873298122
0,690519126323588
0,65944998119524
0,696696786963114
0,673109757725453
0,707526375446648
0,670559720668926
0,711934187754417
0,669874440444317
0,729500434014748
0,704708691043552
0,735541570368645
0,675492645456311
0,710069810115509
0,702180498650308
0,736795423091812
0,672178774151834
0,731198873295064
0,75011564650344
0,731291572660964
0,700849916698778
0,771462845366995
0,735522023907562
0,750395778585001
0,728140022490038
0,768432920473298
0,734572674169209
0,749971107188908
0,760580285882017
0,815430636730639
0,766073952861115
0,784165946054699
0,752041711811801
0,79397844375
0,734834791690115
0,790725430196022
0,801574537001105
0,797458977881432
0,786136902389586
0,878025926476086
0,793022926105441
0,832043333708305
0,793097149151193
0,851755382130997
0,823527914177232
0,823362277488148
0,812367537222808
0,853700485509804
0,791238734938595
0,832460526528917
0,775701541430565
0,844489527671532
0,790664006844962
0,83302892424691
0,803021437256393
0,868784631520712
0,824632639580025
0,87722616021494
0,811406732215576
0,904877881359607
0,842815441814606
0,865581411341787
0,854094929413028
0,864198392088807
0,849358045386705
0,86719307340897
0,844598703083715
0,90382734680031
0,859133148820615
0,89627930813377
0,889492075599643
0,911727494108351
0,862046438228568
0,902216144058744
0,872220540274097
0,922435946949235
0,857275931863885
0,918290331538136
0,868322036741848
0,956615496076242
0,88521131164548
0,911945505951078
0,925117799741795
0,946779682430432
0,879441705801503
0,957025028566269
0,872642588788404
0,921199954507605
0,890507121666587
0,929989103754189
0,8924673171548
0,905410485290617
0,870064399567402
0,933731220568227
0,879562373335764
0,950624157461323
0,907509890444758
0,94484796309402
0,892640785900464
0,930974634487606
0,890761118487726
0,939280387287612
0,914215701438824
0,989388097964188
0,901655263745681
0,96674110500592
0,919951879722122
0,983741362568125
0,937509330076759
0,954660515706705
0,927098773873184
0,948088374195332
0,948114286012787
0,930082262436771
0,934330101008422
0,991702181010282
0,955070465886491
0,9614816240302
0,895627338317835
0,978949957587376
0,929956233527187
0,932591954550328
0,938285015270647
0,979934151161567
0,936027112452695
0,96177189474163
0,913394073742642
0,904215854169666
0,90621855211626
0,958425598478469
0,948787138985926
0,962535746618823
0,903938599526488
0,939861367132083
0,930979679032843
0,945198457218268
0,931461910633012
1,02503828341572
0,947415935354749
0,950313750808589
0,905819889017017
0,958892195691339
0,923125268908287
0,961783672903595
0,911892106946343
0,944335581012177
0,93552277146975
0,981018302460629
0,91934110235363
0,974820912332683
0,913481847318325
0,970977459222436
0,985429882673951
0,970907385015809
0,901812150370352
0,963316968301237
0,918259944862433
0,937601613187157
0,91328443904505
0,95076987817333
0,929342338345723
0,960879329075359
0,894110410455092
0,927479619521095
0,92725292315887
0,941514107152587
0,923839811073318
0,939726859289625
0,908627453293227
0,941966577123555
0,893747493794823
0,927398180326711
0,905970662595779
0,970263560339955
0,901919195519373
0,929256187373383
0,905820798105666
0,940932250624631
0,87959313218461
0,928102185615936
0,912134593307912
0,924879060824107
0,910201755125167
0,947077607393871
0,885128939568145
0,892943590217361
0,896192733000849
0,919248735934526
0,923128298967219
0,912253880018889
0,88863210560516
0,906780710237788
0,869924508139397
0,916936780865574
0,873966987545173
0,917730865015373
0,87886429657321
0,887350887792629
0,864376992336967
0,894195248128153
0,851390789394068
0,872096372892492
0,854610718181985
0,867926093178781
0,850929355852719
0,854217758394069
0,84367200646006
0,857543086937011
0,83008898792443
0,901691767195627
0,856250225348998
0,849712959526622
0,858120376575156
0,871500771015406
0,845999985195533
0,861417629622769
0,839035662234852
0,86457804125695
0,822054305065169
0,859262624502363
0,843531959961357
0,826986631072162
0,810725841158434
0,844305432903101
0,844844821104573
0,828404831839074
0,803140589494243
0,832039701092094
0,815044000217828
0,83959226877427
0,781211792286741
0,796219981799877
0,792642979910114
0,817512385707776
0,794597944693758
0,799370384394239
0,775411713594248
0,78088783584416
0,778127388050859
0,812616458362683
0,779341631275191
0,795305320302456
0,750227076640903
0,776078078366549
0,762172050183743
0,780392044020129
0,763487120533181
0,765749070733071
0,743918713984366
0,752362614570181
0,736488895862353
0,770315327982692
0,755003905392513
0,747604506599552
0,722279887316793
0,751765695132825
0,743377384474926
0,748939928912781
0,70832763314195
0,719239144271612
0,71315424056336
0,729981464045629
0,705219368051972
0,700311235887271
0,714411790457837
0,716853874449068
0,688285259043694
0,708632050634288
0,69048429536301
0,706544265869289
0,680725057237503
0,703704214784327
0,695468381158829
0,682936898470458
0,667348869388023
0,66854958258789
0,663451083895995
0,675237468553281
0,663285740163272
0,681383180862349
0,646781776106088
0,657819170802806
0,637051260144019
0,65659371797129
0,650356444486059
0,641172761692661
0,632308926900086
0,640118230410957
0,633557096472716
0,645331457823448
0,616275741795604
0,630233128110513
0,611491404951901
0,625071040551551
0,621542462738647
0,618012000949886
0,609580040161642
0,610152747463898
0,593983984544347
0,596519822345868
0,591984404135903
0,606308682383944
0,582053635200121
0,580116636172626
0,574118657506346
0,586357766830119
0,576517216461644
0,577047434521454
0,564602514927805
0,571824290361356
0,563029785886255
0,559520209223779
0,544525358545442
0,556741206110569
0,544134979567961
0,550420057376503
0,542325408268408
0,53739516172812
0,522156656899566
0,530774392701
0,527882969040075
0,530732171243948
0,515453772015328
0,522571212739608
0,515762716278856
0,513043226240825
0,502556955136133
0,515462971454737
0,505497476831181
0,501154080830343
0,492456103560926
0,50612121636165
0,498388894180576
0,496817046461651
0,489929991521463
0,487369455295067
0,477240698661443
0,488526368960882
0,473195239166136
0,479868925184812
0,464979889666305
0,462106988859661
0,455390517133518
0,454997796716648
0,457079450729287
0,4606674462607
0,455490676222859
0,448434237526686
0,440242152444932
0,44330873125833
0,433411039756123
0,448422833680193
0,433440381551832
0,440788822016226
0,432920551680972
0,424445849020628
0,419440601636398
0,42226398154038
0,412588233759943
0,4182854192674
0,411701150609608
0,411975888023338
0,399775108389071
0,402511206643
0,392435873652066
0,398330740651714
0,398992277925543
0,393295753657541
0,386463916683797
0,387558597975678
0,386130027974994
0,391909127635334
0,368499193131156
0,373123167257173
0,376118894582255
0,381999073775793
0,369702577775798
0,36903845900663
0,363770040058379
0,369535126082294
0,357819983391087
0,370804889417015
0,360010088549573
0,357441405658553
0,352653430661512
0,352940538089031
0,347973333451703
0,354046590825094
0,342920484052196
0,345954385145355
0,338611750698871
0,344072650078929
0,339801541929388
0,33973173692407
0,330990159223191
0,334832599062312
0,326401496785641
0,331081968121381
0,321989128730346
0,324630010272518
0,320354978368172
0,312659457857487
0,309066746212515
0,323020057674022
0,30896675305105
0,304081882539806
0,307488442938219
0,310423689225204
0,304820304173023
0,303514298859162
0,302176636536567
0,298940312823685
0,292470858359179
0,296797681980451
0,2961696378878
0,292907924323328
0,286094835475076
0,286896732668579
0,276760802344929
0,283595800536359
0,281881338901668
0,28308625759039
0,278769027425147
0,273110934809583
0,271567810700378
0,275097662341087
0,266243554364102
0,268581983702861
0,265866287282108
0,267867043425254
0,262212482878015
0,262368084383857
0,256121021259902
0,260449947605642
0,249702229323255
0,255447525378156
0,254291422900757
0,260312454324729
0,248542672129473
0,253291752699583
0,251596531949922
0,248746217752334
0,240464014457156
0,248286795758305
0,240289800049626
0,240061593234649
0,242401715083834
0,241221525709685
0,239299699131867
0,243144492960385
0,232865831523713
0,234268015162028
0,228096244033985
0,228079027563434
0,224277641140276
0,228456601475614
0,225205763216727
0,221008892495077
0,222313760306485
0,22299847594706
0,219082960710182
0,220644401037391
0,21763985165413
0,215299511354121
0,215473865505975
0,2163194861426
0,21453204906733
0,214517598931208
0,208256301865602
0,206250165214265
0,203653843861501
0,204193135505548
0,204892538823892
0,208433690691588
0,204261756289194
0,204777550176932
0,201380836184069
0,202499911774388
0,197191149440869
0,196390899828912
0,197900400720417
0,199513949472704
0,19345998363707
0,194363200360749
0,198078933745981
0,191110376996336
0,189958800379332
0,195733956138563
0,188992945468575
0,190622260541254
0,19049172906502
0,19718009076593
0,190011176060308
0,190214719830304
0,188639660241578
0,190907667256982
0,190261511551088
0,189728424755392
0,186655292767456
0,190917446957276
0,189849893483535
0,186434420518223
0,187459203627634
0,192551874851123
0,191753365345143
0,188954396082645
0,189955727636713
0,194245562459898
0,192275176997113
0,193900173697259
0,192861563035899
0,19695472544409
0,19340757483352
0,193534277261939
0,193767783698855
0,19842782411906
0,196617479849327
0,202369787088244
0,20121910221641
0,203388698994225
0,202463445859044
0,206142349201851
0,20629355942623
0,206256300209376
0,210343077450743
0,210562655991265
0,207651445495629
0,212024128827494
0,212051372712208
0,213526156395322
0,216300908614213
0,220758393300579
0,220119276276389
0,219336997419863
0,222682321262607
0,22858051408061
0,222184918291983
0,229793293881504
0,230155864742781
0,23372512339153
0,233631403062551
0,234369348377782
0,242332473679583
0,243887223190073
0,242929881124986
0,247796780951164
0,246558082402637
0,24941382650008
0,254248213397871
0,257140350146764
0,256495470087605
0,261821345260987
0,261201768351671
0,267503162144067
0,269638385076296
0,273213653164858
0,276396050823054
0,28121908292648
0,282181278801234
0,286234182677242
0,28886079498497
0,287106588722065
0,293282224420248
0,300448430103307
0,295067952352298
0,305274416649964
0,307658113236207
0,309831680400798
0,308591617316555
0,310055204441853
0,309790087221361
0,31420164985467
0,315094845799584
0,317963012513864
0,320875421651989
0,319445398340098
0,318909829365798
0,319978964654178
0,313259231203741
0,314098780060426
0,32509352880597
0,323978384185073
0,314233469734936
0,307787333828822
0,307094521102959
0,312195544925993
0,309143993375719
0,312244405579536
0,30729734978831
0,301926653629703
0,300028144769295
0,302591558826036
0,301308845567824
0,304039907678517
0,300555404970407
0,295353097255632
0,299045286136236
0,297922078480459
0,297905099122832
0,29677225411641
0,297367903215077
0,298368393057464
0,293544300506684
0,297277480172779
0,300961358082116
0,300219808561822
0,290562934593097
0,29628495473056
0,296486554636925
0,294950557396456
0,289414404288053
0,293673681259352
0,295693965866563
0,29382838640049
0,298141047704104
0,294445815567722
0,287931874783306
0,287141394514739
0,289421424409588
0,293458268452142
0,287955738566641
0,284795132070641
0,285787669387694
0,281621587745436
0,280698908294968
0,279695166328785
0,282369893353143
0,283562294860395
0,276484519252043
0,273591239058293
0,27460012295384
0,272296714639484
0,269045264975685
0,26211671738485
0,258267100029781
0,259085626254711
0,257807677984228
0,257855417767631
0,256493813704676
0,252196046053223
0,249365325294247
0,247288910203229
0,243848922210975
0,244795430174416
0,239998494778813
0,239622735487851
0,237940909019826
0,232794456732305
0,228056143023167
0,230989656960418
0,228525415696364
0,223707991644827
0,22005357640731
0,220236490702912
0,218410193118902
0,217414562107167
0,215243018274872
0,214844214971444
0,207773062743446
0,202317390614955
0,202267160535564
0,205856635828408
0,208914583179936
0,20346583005163
0,19822753722753
0,199546766422229
0,196891674359084
0,195087497352923
0,197569909087827
0,196894958494928
0,190683567060766
0,185581442069215
0,182610540693889
0,188957320725398
0,185241684028626
0,182999556674452
0,181863640995096
0,181048991992915
0,177344037107498
0,177552148223912
0,182476105807854
0,179220998421725
0,176621319062832
0,177249143810994
0,174508740648044
0,174980255486047
0,17325718891678
0,175154255547903
0,175035731682221
0,169188819558267
0,167110327199157
0,168754975854514
0,169815364528105
0,165705774042007
0,162898760429444
0,164596435598286
0,164492059497231
0,161978419726406
0,162420144557838
0,160809745054579
0,161203928648048
0,159826420235923
0,155756211237875
0,156133529009375
0,152746580446109
0,150968406364126
0,148636377806222
0,15139793556705
0,153714738030635
0,154329413923588
0,151806655021833
0,151464028218812
0,152503432251109
0,148304602839873
0,144025082640845
0,145502377848396
0,146936354066599
0,146450624699085
0,145885746461148
0,144243456588714
0,144346019773328
0,145552789008519
0,141132009697102
0,143362657799486
0,143901264656139
0,141808200596074
0,143329174765905
0,143009302833825
0,140615296074268
0,139950550959289
0,13839546498124
0,137564373367773
0,137686160270741
0,139107899586139
0,139919492315746
0,137088161838927
0,136785230759564
0,140017855456698
0,137561704752913
0,135037236163672
0,136633218765799
0,137808564837939
0,133244244605115
0,131772522828785
0,13648768485066
0,137716582921157
0,133112032308002
0,132194990367946
0,131311833553069
0,134342226213678
0,134771506394352
0,132303187364539
0,1321405019364
0,134677058633677
0,132995027970046
0,133648463819586
0,130328672107773
0,129645841107869
0,132905858949011
0,132028734425652
0,127927121760605
0,128393973173404
0,125727087990248
0,123659455623895
0,126312195791232
0,127189504980825
0,127485689289842
0,123530502686716
0,124865758491264
0,125602325630114
0,12495953105214
0,120470457428831
0,126687601246183
0,124591212023027
0,124880027999806
0,120660960997084
0,120629694692913
0,125204241650611
0,125132305044166
0,121219749327651
0,121636703009163
0,12125930050986
0,119709616204422
0,119162912951778
0,122074435032451
0,118619855599064
0,120820293265315
0,121497224755294
0,119717572688264
0,122876326225394
0,122004668214986
0,118740820427138
0,119337080627201
0,122147881145392
0,122314037805135
0,119902306297305
0,120494553804277
0,11671672904274
0,118858067662709
0,117253275430061
0,114165971430605
0,120483269083926
0,118922279977107
0,116138659584793
0,11743066426821
0,116713091665045
0,119058959549599
0,11601941409614
0,1190448886884
0,11410749421176
0,113032516496929
0,116357504424929
0,117777370276148
0,113415796401181
0,113780338772766
0,113884116196576
0,114273096168359
0,112678888101965
0,112802898498191
0,113509856826816
0,110838789883833
0,112366677198639
0,111414895711423
0,107824773632516
0,111598486126641
0,107528498093763
0,108336915112537
0,109014615687215
0,108935479145649
0,107750302671773
0,105499491987747
0,107022266619813
0,109025359219886
0,104284327021625
0,109617366303586
0,106392415580091
0,105895527582421
0,103312735497584
0,107335377179657
0,106962096891406
0,102337290152436
0,104552164176826
0,106386374135546
0,10405479543759
0,102827058940828
0,102187464784631
0,103912762091873
0,0992406818866784
0,0989541931465669
0,0986175660752114
0,102116071433217
0,101004566834661
0,10368329108115
0,103557841840862
0,10045773796207
0,0978599256090762
0,0999885049362507
0,100051281525013
0,0968994225779665
0,0977960544587798
0,097863485538818
0,0968569925035682
0,0990146436857141
0,0959837850712358
0,0975410492571917
0,0990115337721803
0,0952354754074367
0,0954472818942775
0,0959966329008817
0,0943374121812123
0,0926173523747635
0,0937120616252065
0,091821128652279
0,0911591603229013
0,094477925513382
0,0919636511315201
0,0908451285017749
0,0882951042271944
0,0897005179923087
0,0910766204938878
0,0924839546842559
0,0895133366581618
0,0887474205767779
0,0864775364950766
0,0881580509833729
0,0855370926475112
0,0883826202714902
0,0858603984023544
0,0850017228324064
0,0846712913709564
0,0855184974712368
0,0825662145983345
0,0836758104623127
0,0839123015822501
0,0812842379637728
0,0816927429789207
0,0844259171210005
0,0783150102768056
0,0786941127944433
0,0828243560324102
0,082510567893436
0,0785939626976289
0,0816138090329528
0,0773743037034766
0,0816355373656449
0,0835687040639119
0,0807296733734738
0,0773760422581761
0,0763450806748173
0,0727249616672293
0,076134093974906
0,0767085715862266
0,077339113498515
0,0748937013346539
0,0774418133581728
0,0762605689771054
0,0775729100829505
0,074705008781782
0,0777126486056677
0,0731303642992934
0,0780888942298986
0,077722098530389
0,0744987516373114
0,0746291825347951
0,0750010895639728
0,0741331305453524
0,0760801531327869
0,0745540623356182
0,0743818747410572
0,0730663760925544
0,0743393800142129
0,0718547457595113
0,0737992175685536
0,0701913567870324
0,0696515230888211
0,0699399172817044
0,0714550904518834
0,0727808806434401
0,0717781468037946
0,070738673868029
0,0710190632231919
0,0668556203681498
0,0713794546528939
0,0730644244397825
0,0708047808981937
0,0689095740582552
0,0698956290604775
0,0669169125227145
0,0695489764817641
0,0694390696584818
0,071347832232481
0,0683911120974288
0,0704585629035427
0,0647303809039208
0,064038959727353
0,0663883266528751
0,0648634531250902
0,0627856159121582
0,0683446481897296
0,0684186622584599
0,067726977046931
0,0669993943171469
0,0697954660653523
0,064318906148388
0,0650164881097997
0,0638101467520911
0,0656915679365902
0,0657045723880963
0,0654385762734373
0,0644076397372886
0,0664684273762257
0,0649640661798602
0,0641987811470453
0,060903580989613
0,0657829746845097
0,0655594873668558
0,0653076159215105
0,0655384374754442
0,0640839051650967
0,0616087326854412
0,0645590468070431
0,0650924013276565
0,0674475416235364
0,0659997289058951
0,0655984828738089
0,0652229949729085
0,0676388293791078
0,0658832736947033
0,0648699412155086
0,0619952357371796
0,0634194680011539
0,0620072246773784
0,0641586314491659
0,0624778230728349
0,0646715602141968
0,0622120217420523
0,0636007309351421
0,0622371418434026
0,0664303968200935
0,0622343747122439
0,0605619538212417
0,0594143428091591
0,0599477497296643
0,0595539265710713
0,0636090274993995
0,0596774912261756
0,0598288467478013
0,0566809703331771
0,0587833279596308
0,0579929523153562
0,0602729487988532
0,0568018171540544
0,0620147826715484
0,0600906215619969
0,0586617968824864
0,0590176489195174
0,057809078820227
0,0579234916174975
0,0586698035674049
0,0560562011333616
0,0561052624581762
0,0538468549677316
0,0561652205649519
0,0548476957357451
0,0557101507999632
0,0591764797694574
0,057513308088852
0,0535201635973249
0,0591053655143256
0,0572218423746136
0,0577683062971315
0,0573430319392605
0,0582544658772093
0,0527381998232175
0,0573402197959441
0,0554653206937361
0,0543696727572728
0,0554430943657234
0,057629723096523
0,0553699388592766
0,056153527413939
0,0571461880980167
0,0559595257805423
0,0531329507093928
0,055988965027987
0,0561021232762649
0,0574308213731861
0,05486283579743
0,0567223478296319
0,0533519629014927
0,0579878481014762
0,0539476977070117
0,0537517796471874
0,0554396693063648
0,0527254176606873
0,0514505039971132
0,0539967155231865
0,051430794589835
0,053776462421326
0,0517037319435731
0,0541498303553883
0,0534710630216105
0,0553199830684179
0,0524357992827937
0,0530208283295351
0,0492811974155206
0,0512369267906421
0,0510346246336512
0,0528829979937656
0,0494423384727982
0,0510318289337488
0,0511128756741463
0,0513025460152547
0,0468614063854633
0,0507787358002001
0,047723962512482
0,0481335301018382
0,04766521026824
0,0512827336295872
0,0476605464663025
0,0476081757422598
0,0461758530767682
0,0488053949636578
0,0480232299103409
0,049252630715713
0,0433573183142266
0,0483462572579049
0,0478102644493616
0,0480495113859187
0,0487753646644447
0,045211271714642
0,0449686091795603
0,0465293682764596
0,0458379138364537
0,0488210636516753
0,0452346391525987
0,0469598189206313
0,043915109627479
0,0464133719412436
0,0463235296245909
0,0441952712840241
0,044555135526539
0,0471027035926531
0,0453026860072606
0,0471449004229024
0,043415452447112
0,0445312556769956
0,0448726624215794
0,0426489931400917
0,0441118541801103
0,0454300549929667
0,0422999893278984
0,0446066793570985
0,0439137556379669
0,0436438930081396
0,0432556841372404
0,0453694364037313
0,0412189709682337
0,041469300649073
0,0426547304011392
0,0451276109901836
0,0427576756189059
0,0405112527370433
0,0402460358288314
0,0420857770536867
0,0396403621456435
0,0415742343918123
0,0406108617729202
0,0392441676372825
0,0369978182275641
0,0399368133786913
0,0376104660854309
0,0398346423058593
0,0419541250397571
0,0437002165882149
0,0386810296463176
0,0410892268986247
0,0394786012572928
0,0409403950704827
0,0357885590695607
0,0368144451285794
0,0364668663616857
0,0390450944375074
0,034374182313979
0,0389888183281027
0,0351109044903754
0,0383552972596115
0,0361058303772795
0,0384282012714793
0,0370568174108713
0,0387649876434417
0,0359085216191009
0,038295345147257
0,037613372938064
0,0368268292929734
0,0385503865581057
0,0394289123168607
0,0345857913127582
0,0387540658381046
0,0363997015306877
0,0379190593723685
0,0362464047997556
0,0381515330304152
0,0371687540086536
0,0395977299691938
0,0369711736584018
0,0385755420649897
0,034471721473521
0,0377589871834618
0,0342917226421641
0,037865486467072
0,0355605238951997
0,0356866993400047
0,0327324956529255
0,0366586316201826
0,0321726407761892
0,0382319234033235
0,0340352552425694
0,035037926404816
0,0256680807365159
0,0278946915027271
0,0329221941585728
0,0401205002588942
0,0265581701799343
0,0318278682795126
0,0293854119090249
0,0309429594173929
0,0323944524726233
0,036125925588915
0,0262210541439454
0,0321414859634025
0,0299393215222561
0,033775324994431
0,0311726658466067
0,0359398924861836
0,0349971942985796
0,0390398355189162
0,03044976088414
0,0317859384506398
0,0261400166519112
0,0345208023820816
0,0238720112573951
0,0355798676968972
0,0223865956017165
0,0348020740638749
0,0210513984261529
0,0355734941854732
0,0230188742998738
0,0395819281702526
0,020347424022105
0,0393330309420458
0,0159011559461827
0,0410933705533163
0,0158112271600324
0,0450611314155107
0,0105306895112653
0,0506864603284612
0,0131480783606451
0,0518027934944368
0,0128314555943866
0,0594462087306684
0,00754736829535123
0,0583797705386812
0,00990964157391543
0,0646649645252234
0,00788403713914368
0,0608908205655732
0,0129112033721287
0,0591239925381858
0,0204121827407472
0,0473122402134275
0,0255247821441328
0,0431177750792882
0,034659350059465
0,0312183649013075
0,0419762416121576
0,0274447480389764
0,0445089797504586
0,0265980890080244
0,0417289103299519
0,0273220478382603
0,0399193658711942
0,0349217036395051
0,0329417209829032
0,0345122753057455
0,0326805758073709
0,0363482204455991
0,031345261055602
0,0368904483486761
0,0299218586032116
0,0302538917051238
0,0327848931801649
0,0281749701145053
0,0314258600612225
0,0309896062872037
0,028804021560332
0,0289908734786696
0,0288054115322359
0,0310085274807954
0,0293228285774282
0,0327654611632441
0,0297953311627059
0,0307593211203357
0,0304235485243233
0,0305664721426578
0,02903858353921
0,0313284758713701
0,0294397234887742
0,0284832807340875
0,0315512799315387
0,0328340178658257
0,0310078202617972
0,0313731710307962
0,0296492225487688
0,031249450014189
0,0293334041729748
0,0307729756619037
0,0313311524715442
0,03200538283901
0,0301634552154944
0,0317630052404285
0,0277975047763392
0,0309339277287641
0,0294963865085215
0,0322915057096917
0,0309745552017041
0,0313159433213244
0,0281213297146056
0,0296200820709699
0,03058910244106
0,0315720841408699
0,0315242407977584
0,0272645628178535
0,0314758577224104
0,0335064203543064
0,0303427874389598
0,0331764541091184
0,0309577693371054
0,0301480565498231
0,0304244965932532
0,0293183078549911
0,0292326092532861
0,0325209870991846
0,0308702910770229
0,0324065363297294
0,0318966523810332
0,0284630246711918
0,0302275126894908
0,0338015782917027
0,0302139358980153
0,0295905329748064
0,0302992230990525
0,0316382905427341
0,0274075561249708
0,0295784219349543
0,0284803181090925
0,0322349629462236
0,0273850823800604
0,0310812658732261
0,0285448807647069
0,0305243658748725
0,0315826557333321
0,0288934715322577
0,0273962094660044
0,0297747784623162
0,0302442977488154
0,0315079569778839
0,0296492581984657
0,0282521404690939
0,0322676729224579
0,0336492970218711
0,0291135625613561
0,0310667376333771
0,0306602673694906
0,0308244417616241
0,0310146469951545
0,0320335298550314
0,0302452126424006
0,03161228192527
0,0288104524983214
0,0337087419641418
0,0292965213791477
0,0313195111264073
0,0313154801563971
0,0318631223556788
0,0294107207818183
0,0319024667540066
0,0309547084154216
0,0344445293607606
0,0307383652649561
0,034350450591564
0,0302800944740272
0,0304994521585243
0,0307654513412747
0,0333734617831367
0,0307432167152569
0,0339947611135748
0,0312849977904101
0,031684900022561
0,0319968581149789
0,0315173317453769
0,0312237097545352
0,0325096459402564
0,0317083632970558
0,033412435321364
0,0323854074906278
0,0331232953136207
0,0317414131858165
0,033279146260549
0,0305488223240173
0,0323078363667968
0,0329060640421038
0,034153069403405
0,0326314764931669
0,0315476755143342
0,0306137905895292
0,0325288305834419
0,0298488186971581
0,0304306470627433
0,0317273346651713
0,0330761447375447
0,0279459659874239
0,0333695726260052
0,0314069191915078
0,0337317469286723
0,0314819155026534
0,0341997112148747
0,0318748347284185
0,0324617138962798
0,0311145097793337
0,0311322521865182
0,0327159127051112
0,0332006663197905
0,0321528216520536
0,0328645422320197
0,0313267504859896
0,0320761618470354
0,0321549873261035
0,0332733288084903
0,0303350701578937
0,034057790865294
0,0342532364338047
0,0330439885411878
0,0341816405466335
0,0331533074598514
0,0329223037015342
0,0367926559563064
0,0342632017913768
0,0354258549342489
0,0328542511350742
0,0364976523490703
0,031920221641593
0,0346766010114095
0,0347769136801847
0,0361755594078638
0,0329026000278451
0,0341529575253786
0,0317876334087586
0,0315629983238873
0,0317140142833477
0,0335593227307445
0,0324941978159712
0,0333915130151669
0,0308035477088383
0,0350825393834502
0,0311874877507257
0,0315855657823431
0,0321474433518718
0,0329123358200193
0,0325933223180454
0,0348541392267696
0,0312910770544567
0,0319947526412618
0,0297379183936579
0,031887574172851
0,0329294335979176
0,0344938500721202
0,0301461749824422
0,0317305739365024
0,0289977782019811
0,032979449331616
0,0326640133448148
0,0312461966388134
0,0284277645026574
0,0311353985768398
0,0300930899123664
0,030624361251214
0,0312351980373893
0,0342185515681059
0,0313644637201675
0,0343683561553169
0,0313704301979198
0,0329521379204954
0,0306869481833642
0,0331670290988914
0,0309526467257746
0,0319387324621231
0,0313849474194578
0,0326579815829073
0,0315932238948011
0,0328704638077856
0,0295094966523972
0,0323838773191834
0,0322098116305626
0,0336318772611697
0,0305391901466695
0,0305201640613746
0,0306941103532503
0,0336885400373594
0,0314108503529152
0,0331049894678493
0,029269197632876
0,031908606888521
0,0290542978219174
0,034437580161558
0,0309185502348245
0,0307462528469246
0,0310243578141695
0,0340677267773185
0,0294363624689073
0,033210809905171
0,0290227972208413
0,0315676163517256
0,0290887604249787
0,0319888937643555
0,0318295691122975
0,0315610172673922
0,0302976311396054
0,0308743751478477
0,0289350788463042
0,0311811037887483
0,0270238917429803
0,030247849907318
0,0292116677928048
0,0316329518195648
0,0297845983142919
0,0308052567736945
0,0294872521427709
0,0326059626991003
0,0284618690228218
0,0287784882192505
0,0316840303707352
0,0341227651164325
0,0299660590214026
0,0301617294812577
0,0299119848695931
0,0317866614349825
0,0315177624007698
0,0332489912095089
0,0273579210222579
0,031106778139007
0,0285807289791514
0,0306431093327547
0,0285691635224639
0,0281409608035568
0,0282941599094672
0,0310915595464995
0,0284476481550789
0,0325424980897929
0,028300969636807
0,0300065981748779
0,0290942541520871
0,0285396544413559
0,0275470387623058
0,0317821743357107
0,0290450960369473
0,0320975317615674
0,0331728275030106
0,0317195149534772
0,0280308358169219
0,0295737712096447
0,0297624657739414
0,0289937058058161
0,0301950958021579
0,0308253695832809
0,0288001215558133
0,0290233216034201
0,0265567568151472
0,0301815831962371
0,0263345570253479
0,029916240728343
0,0271404047915335
0,0291918756939445
0,0263112859411312
0,0289161951689561
0,0265026912620077
0,0283485098843841
0,0273117302164168
0,0275648024428223
0,0256682016399385
0,0268396966381556
0,0281982184038082
0,0276274431833791
0,0335436509941335
0,0288284981543431
0,0289860849737396
0,0254762725993153
0,0269440625690519
0,0269619067563928
0,0241500991627581
0,0268584543456202
0,0263083534765105
0,0271772148998591
0,0279976459149716
0,0254321953364648
0,0236478754913485
0,0259456938923573
0,0259911848553336
0,0272205480765304
0,0221489930568947
0,0267665114450978
0,0254229489811125
0,0235490498556773
0,0252303132095628
0,0241312778764341
0,0258828939797083
0,0226769098605316
0,0258072348157869
0,0246690724996092
0,0297990387205512
0,0364653053992378
0,0274255379302578
0,0257741173291836
0,0246933131091336
0,0309719439494441
0,0242297928918664
0,0271996182661033
0,0209979375341296
0,0253704202578006
0,0241879073310615
0,0269420031335692
0,0233872631063312
0,0272993825544108
0,0256943107403303
0,0279738253551066
0,024329466450821
0,0267178795574781
0,023316133763313
0,0264099193259434
0,0244301088082573
0,0271592706775345
0,0226777122278974
0,0232155502253407
0,0233957617430899
0,0248203273453932
0,0214165116192963
0,03713835881317
0,0271543100042523
0,0294719918666224
0,02638209455433
0,0262127419306668
0,0186559166369726
0,0286025514515755
0,0245146602480531
0,0260478404949602
0,021590955244215
0,0242782931991405
0,0218821817107231
0,0245341837717294
0,0241468588599193
0,0256274943498316
0,0208760007328803
0,0262514424633473
0,0226893743164823
0,0250414035421623
0,0195067522403454
0,0251551703568912
0,0197669423360834
0,0273150771525598
0,022724424119085
0,030559802789144
0,0181416689991583
0,0291529654500629
0,0414334261247839
0,0257719942447777
0,0271777606572698
0,0211539896023557
0,0246248557459779
0,0228716730983287
0,0243613395268316
0,0223737356122104
0,0248880968365652
0,0233486095276406
0,0259666993085765
0,0230391069193481
0,0240990473791904
0,0248505419916559
0,0275455398006676
0,0234321150559993
0,0243200094520358
0,0224345326203257
0,0253202258140327
0,0214732122639188
0,0272663311598059
0,0387138380972166
0,028138873045625
0,0267362554849263
0,0274235668471544
0,0143702780904563
0,0483950467079541
0,0275421669834395
0,0300443398081568
0,0236662709010941
0,025943376353037
0,0231729585530557
0,0259797026537379
0,0205835987576416
0,0240354448044322
0,0333442377739934
0,0238256958429922
0,0303992997156999
0,0221507291567047
0,0245863133386174
0,0219712840273219
0,0258352308527618
0,0214490870652457
0,0251337558331945
0,0224765018730579
0,0249397809555355
0,023034591777999
0,0212271344601975
0,0240174292531373
0,0193525394680537
0,025270491780835
0,0296040872833989
0,0206102311923871
0,0248155467910301
0,0252097912193056
0,0183030049585683
0,0270211071802296
0,0459230125532499
0,0207987513337837
0,0284383722622112
0,0176623601493686
0,0293701531324522
0,0241370014612683
0,0269815932582637
0,0174534326378119
0,0261449978403805
0,0199991180324865
0,024328752482155
0,0218929812469327
0,0241514010948267
0,0196233013882553
0,0235072931778433
0,0236095932858998
0,0255541857372704
0,0222830695251939
0,0228555127142874
0,0273067388777617
0,0200167099592588
0,0412620612363522
0,045624351506092
0,0355903907584193
0,0366132407651394
0,0278265202074674
0,0248063984075938
0,0220293398960356
0,0249351407842457
0,0221757766633451
0,0280837886915048
0,0204606095115533
0,0252620426067073
0,0239258067169433
0,0268337687415051
0,0184671351540341
0,0248618364143847
0,0198823609475977
0,024302329573201
0,0172311782678107
0,0271303508770651
0,0175282802103601
0,0314462271834176
0,0131876154743279
0,0380787488637403
0,0241417866900197
0,0360824239726184
0,00555030931890457
0,0650301079515305
0,0420340673681634
0,0288228593866899
0,0311879772402109
0,0235501427699286
0,0271202066766275
0,0212344309110415
0,0225921213981594
0,0303328328247567
0,0222047518047787
0,0241402231505363
0,0221874189026823
0,0253562995145859
0,0270192701337636
0,0201084533060659
0,0239904749130662
0,0584874867937072
0,0305889731085391
0,0336649365514643
0,0157490325625707
0,0293262287512901
0,0520074980907183
0,0236921182556813
0,0309199827464262
0,0236678168674905
0,0246652216905901
0,0235016350050149
0,0251394532858142
0,0244240121022402
0,029399348843561
0,0260012488639087
0,0213290845143753
0,0256754240586671
0,0203379056258796
0,0328416461046366
0,0235848566690722
0,0358726359423396
0,037742887909019
0,023125098862238
0,0302079159826932
0,0271958411230166
0,0212431184635549
0,0263064970910438
0,0250260064678369
0,0221897127639926
0,0341280784234303
0,0421291273734151
0,0245814990362707
0,0449419320087195
0,0358575999738069
0,0238814907896649
0,0331756235952451
0,0319158977043566
0,0415282155788893
0,0165238630172728
0,036292737717164
0,0578582959536627
0,0367944065286991
0,0539283731552085
0,0196745382423744
0,0366612872132463
0,0195871463423489
0,0357338340962617
0,0108729010019976
0,0532425270998917
0,0182923216001317
0,0398074514369219
0,0141838525896839
0,0471231126297595
0,0330008693294779
0,036079222463757
0,0283112634562971
0,0287282031598218
0,0204729198989938
0,0477686567960305
0,0266658818713122
0,0219734378547966
0,0608044682577676
0,0517037437069862
0,0574529706262727
0,0356121573168561
0,0195525736282854
0,0755379688481146
0,0263985061883414
0,0382533379592949
0,0224112478689876
0,036855250265016
0,0217518585629876
0,0307240624128736
0,0665575430120472
0,0386049584452327
0,0264898269223147
0,0367886362413696
0,0191929044575145
0,0653189129018505
0,038415594001944
0,0361210416558949
0,0259878417339889
0,0429793044389839
0,0107645468429708
0,0871883758846159
0,0414544173434215
0,0523177391392916
0,058965555969439
0,0486505459756961
0,0457398390533856
0,0405017273634979
0,0338601933992743
0,0509431595310383
0,0577936838254354
0,0436088837732386
0,0229592023318611
0,0533144356269853
0,0674831677497844
0,0311762579139997
0,0472627700840529
0,0337735643999711
0,027103747740329
0,0677158791358501
0,0985612629253143
0,0717887499334595
0,0426056027584516
0,0375029401120109
0,0715328311037791
0,0420805915747668
0,0392497689387714
0,035444798907112
0,0357984409813926
0,036276452681174
0,0329417431336343
0,053626175880777
0,0374904632712305
0,0471096054542345
0,0367682606775798
0,0396353536653139
0,0578692596601006
0,099662160747589
0,0877412189212734
0,0484964002515377
0,0938816241998211
0,0679911854730365
0,0617815995594501
0,0478108641407589
0,0438521924611828
0,0592896967572643
0,0504810796083613
0,0508996581379445
0,0390774289278287
0,0814693937416758
0,0576718213487394
0,0663583515814102
0,0833992046291524
0,0553269949622626
0,0630273033978573
0,0300780569141638
0,283730036647313
0,0758692986571947
0,0941169347967742
0,0625986142965018
0,0841068053784829
0,144135883071126
0,0844245407184574
0,0681982144702043
0,071901186244852
0,0672501369221831
0,0819949528315744
0,0869787167026084
0,0853263498591209
0,0964196899516497
0,0896160250218849
0,0742067904071776
0,111443401026839
0,155848050195103
0,157840613467437
0,120651450544097
0,0947995865224465
0,115344487505795
0,120496795051503
0,0987709764096383
0,110210057941903
0,094514741655139
0,115116801314172
0,172532118441168
0,11913609846965
0,121558537271713
0,111159954622384
0,161661465391739
0,103468246760572
0,19468784861459
0,154756576966328
0,150789109951136
0,126936190672803
0,136698976978517
0,137466173078087
0,130607833209547
0,17743416918432
0,158221207976507
0,148129714398723
0,148985359180559
0,143669396698641
0,150362899548536
0,151514962573889
0,160298453397222
0,149226570279008
0,207486136886032
0,169478692082928
0,351712665259338
0,190270330204905
0,172005657786088
0,160712007666029
0,159882448418911
0,209919448529556
0,185346010300015
0,212669669141935
0,200054067819502
0,16344976470058
0,16639865910826
0,154348539706784
0,165173171615614
0,153475230895634
0,173782455434364
0,147026871859338
0,203462741330566
0,151745123161474
0,208618492339116
0,230440529402472
0,173011179041385
0,159874671422322
0,15814269124153
0,153824947171281
0,159512335984845
0,143981207261302
0,157992566109987
0,176180885891943
0,144867566023507
0,156052406440934
0,136327949481616
0,172013278182368
0,177783742735178
0,145084965889421
0,149528229293871
0,135321428545919
0,148965898702004
0,12663185034932
0,151653863734556
0,197061353164405
0,146788724939305
0,136747713276917
0,132140709735527
0,132847186688578
0,130153093451533
0,132834126819582
0,140195114318444
0,136238527939405
0,129214022039325
0,137679883179405
0,13066348313485
0,127915674412531
0,126418316741406
0,132985925576398
0,123838477321407
0,126514479043022
0,125427593203591
0,127917197926701
0,123743631660326
0,118426630701647
0,129116667360736
0,126810938615587
0,127611852364196
0,127196966156231
0,120289796140648
0,125133879431324
0,123392152687499
0,123072454109778
0,125702646399988
0,12446031237986
0,121347813505173
0,11955071327569
0,12059971496717
0,123051464185233
0,120403252546797
0,121097661471547
0,119234362650805
0,117771909711223
0,121504298616619
0,117185208382101
0,128114068392171
0,106632592633856
0,176449781826098
0,141930840405425
0,1209445275428
0,121999625802053
0,111200122446118
0,114275376397491
0,106082715671387
0,158688994764495
0,142035570704636
0,118062576710206
0,117099373778963
0,104638137958092
0,123165824352374
0,121925163512677
0,103626984364254
0,117456126168722
0,0914073141458717
0,152036947893345
0,178417348075896
0,175969727545115
0,205785902502237
0,136808245222587
0,101385001732511
0,116087408747337
0,148664311467596
0,104358698100822
0,108919667232283
0,0947463504675948
0,150033442652727
0,117043620872672
0,099183008745617
0,102904099596672
0,095195094806891
0,116188022459599
0,133718135602951
0,108994772028184
0,128746814609869
0,14677158718747
0,117207218549526
0,149434733125866
0,183100838316686
0,140003290835292
0,0951192272178533
0,102431558496583
0,0972525477468218
0,102316156372292
0,159888018844263
0,106071245194226
0,119118647337277
0,0928249266933224
0,0907447772221859
0,0963526150148074
0,11596634149613
0,108750626390642
0,099310360306204
0,137069373223706
0,0886153726733063
0,109858722782224
0,112183582513161
0,145599459633373
0,149798238957584
0,108535765548546
0,0845214442276287
0,128561331650479
0,140099005313751
0,106657617236381
0,11055359546278
0,0842431107214984
0,0909456645477453
0,118868470110746
0,0931917067153221
0,105881518388688
0,112686572658871
0,127520120482026
0,155788562620317
0,157362928807938
0,153703053375053
0,107167612705203
0,087347339722592
0,0896322959434988
0,0902149915589936
0,095173945645215
0,0807987914242835
0,117861216740285
0,10248180401272
0,0875555272123595
0,147925296587155
0,103473595468349
0,0924374540597372
0,0947144538165441
0,0912959585213594
0,10439547469075
0,128402704438313
0,153445227289422
0,124292332151589
0,112820524492619
0,130419756297627
0,107128423630495
0,113161078789679
0,10723036810337
0,115174117211389
0,113644619861476
0,129778802588426
0,125573066219502
0,127126823280467
0,126126687791666
0,128040203400588
0,154399200356855
0,175355693896979
0,134710059148691
0,17667643467482
0,172784351010931
0,20750398289046
0,176030513226485
0,165289403217279
0,166910096093808
0,166911255836979
0,175438826134442
0,171203211348366
0,186019088748386
0,219790703002352
0,181471845062971
0,189692061653936
0,185432376526616
0,19624818581808
0,193497130845557
0,229744059780621
0,217780561270473
0,266205114446911
0,253915324015766
0,229670314220533
0,21500890296887
0,209395527086091
0,220092373751929
0,214755171360889
0,207517056150004
0,209906736132206
0,207952531697453
0,243792779101412
0,217793221060398
0,218918616334101
0,213282533338816
0,215778027653609
0,21768476042456
0,218527263612858
0,22052636625409
0,224908349763505
0,221625250969018
0,222347148562626
0,220982706620887
0,304359662712221
0,252446592875744
0,231427887557891
0,235578770601889
0,245129752194814
0,238875706483399
0,237159861337522
0,254410717455488
0,251964866715184
0,245338584573662
0,2474236003772
0,244733502241886
0,248232100389859
0,262222654110437
0,282845354575658
0,25210053183241
0,260202925327271
0,248302402006792
0,281306141566136
0,315638996049901
0,281284484373918
0,282149770525461
0,274450131460865
0,267350996767055
0,264399331961403
0,262132353723067
0,265927597098844
0,271531214568132
0,26972241017636
0,265172620506408
0,262734061327626
0,264273975600041
0,263336879389995
0,264974409761956
0,286951537260059
0,264227326342508
0,256687962102685
0,257782123076168
0,261761546917725
0,257060821211265
0,282198386053136
0,275569846614887
0,258129379783372
0,258288503929592
0,268115345529392
0,276710146687748
0,270280821267637
0,248913906803932
0,252337594233671
0,251167510296562
0,255292119835552
0,251779386992723
0,266191867198061
0,277559955993744
0,268163509996539
0,260767231325798
0,259677730631815
0,259991725487755
0,263448249864229
0,260783007850851
0,264820138548644
0,26864972299144
0,269479153005705
0,279147669441
0,272681338013893
0,272239111347313
0,286492370638355
0,286187698964176
0,289621619629698
0,278135305290153
0,275928618538235
0,27616329373272
0,277505383484377
0,288417791334697
0,278838672970751
0,274869127692393
0,274319906477015
0,270207152424337
0,274654191653603
0,303409378001724
0,277781355813503
0,275379113379624
0,272489189900651
0,262270478004058
0,265941816180456
0,260052490387554
0,25782531183704
0,256715482089148
0,262783185999895
0,25148299394082
0,253966590153703
0,252395774263703
0,251245463414329
0,247322643275058
0,252395575980808
0,249889456729395
0,248191609531679
0,243717039444775
0,242140576288642
0,241216302426535
0,243440814271007
0,24641902544005
0,244317879737075
0,254139886855601
0,264064717482502
0,259824797917446
0,251567125853353
0,247047950377123
0,249239743127659
0,238716760546785
0,243280444307631
0,237836138174046
0,237656159165057
0,239484336267423
0,240025078428959
0,234976950878448
0,234384942533475
0,233374703328502
0,233053681701937
0,229876984847148
0,230808578255104
0,225198925508688
0,225744855594373
0,228061592507155
0,22451679622573
0,222911045606382
0,231157362416762
0,224218203109605
0,223951227407752
0,225330819074055
0,22029669662625
0,219608749104521
0,217179248075235
0,217052391268793
0,221479619813659
0,21545701320641
0,215794835628043
0,213771371531662
0,217007264048765
0,212140209103898
0,210902888822232
0,214961695789641
0,213159931032099
0,211445824387095
0,209032983238092
0,21025899682964
0,206675380851338
0,203146355611423
0,205383062232291
0,199087452824726
0,200601019087716
0,199826368160597
0,196570645581467
0,193785500208014
0,193604526646554
0,189469138328255
0,188406186491244
0,186284474858317
0,185326267686971
0,186719022185439
0,189288408967917
0,183915590146846
0,181464082677094
0,180754231908155
0,180635702433682
0,17991572294758
0,181120886759858
0,181750487334803
0,180875571993688
0,178834635648874
0,182086379500839
0,181918458810718
0,18087981237659
0,180040223759814
0,182778501772515
0,183487564262545
0,182540629234889
0,183649836058367
0,186431761539532
0,185038080861441
0,184876295763859
0,186714938727373
0,186657994556384
0,187757206702235
0,190564102619161
0,186112252944396
0,186888609069264
0,187728503293289
0,188144784016575
0,191636114319028
0,193755218511151
0,189031398477781
0,19119586440562
0,190906008336495
0,189975711658188
0,189332547034195
0,192526636152176
0,191268201833486
0,191343596526204
0,189730658847655
0,190441281020683
0,19112317448127
0,189715578395123
0,187672160391188
0,191296431464444
0,189339305023865
0,189135551417472
0,188831796962827
0,189037848809264
0,185648930590436
0,187580109585907
0,18780413588572
0,184096129811658
0,182783478228776
0,182922439591243
0,183427366853659
0,18240721000609
0,181475234333205
0,181820445092347
0,18034261630643
0,178205912113926
0,177394174019964
0,177718042180996
0,17462753885054
0,175316562060826
0,172827137964153
0,172753786853137
0,171506457200769
0,170484990214172
0,168351017106395
0,167680919364157
0,166836117985297
0,167150457373454
0,162177401704259
0,160061058365298
0,160571809829324
0,159546040454323
0,161277309451353
0,161558964759165
0,156265492852444
0,15916190183595
0,16005170537738
0,155911255198076
0,157696082794661
0,158810055372118
0,155226659056101
0,154888415349406
0,157509399206233
0,15805833589066
0,157993068613447
0,158633340271867
0,156793617077713
0,15943113649674
0,157438470644172
0,15560175170937
0,154713748724951
0,15534626773859
0,151741387634456
0,150229371608181
0,148339512947821
0,147042737920723
0,146591137644401
0,142171720394268
0,139932611146578
0,138359184778222
0,136070411530524
0,136175325327876
0,132692337078533
0,13179286027433
0,132726285512833
0,134579648586529
0,134801349708563
0,136488805616256
0,138394220177804
0,139012962688812
0,142588181640467
0,147406770402559
0,154897950527089
0,161812713866295
0,166055824079117
0,174392012161586
0,18185842726308
0,190857580610557
0,199515464847673
0,210322087828183
0,220110831682422
0,230372118807917
0,245012995176444
0,256017673803765
0,268341775093476
0,283292206913745
0,298743934607167
0,314998280461531
0,333371928330374
0,347406851138363
0,363411255888121
0,382567709240092
0,398929195911235
0,416083524034443
0,427403897758479
0,44032582529146
0,455024868674436
0,47046049057024
0,478834463478206
0,485214654998056
0,494317192013392
0,49578438369613
0,49860724800062
0,503793610753599
0,499115358008188
0,495577517846337
0,498501539065499
0,491150174648992
0,48607907259533
0,484647995228513
0,477083591629731
0,469166429978317
0,4642987828251
0,45688355643993
0,447679515722772
0,445981345587503
0,442210586719999
0,439587191590161
0,432035852699394
0,434668158417486
0,437067378903449
0,431976995923513
0,434540864922269
0,438286370404461
0,438585212536107
0,441784950724865
0,447816575040038
0,450207187763046
0,455661873743329
0,461621531986298
0,465235701823095
0,473384477861892
0,477056048297438
0,485749151999654
0,491135453870503
0,494938353370622
0,495224771850686
0,504485607654941
0,509181382110966
0,512115293104854
0,516369201849583
0,514641471263327
0,520162041403527
0,525669152358618
0,527931385382461
0,530523457800682
0,528769186796718
0,530817971358162
0,532893439492753
0,537512779540273
0,538245724822111
0,539817070503671
0,546041577464963
0,555725226175143
0,560678046578928
0,562630121594496
0,563533471805282
0,564769650604811
0,574268133553183
0,576854048148786
0,581398156635484
0,586330613521635
0,591647818548024
0,599185198992841
0,606184396282295
0,614371580358196
0,630296982047401
0,642535693194635
0,653366551722753
0,674702925188183
0,688146403106679
0,702018243110996
0,724801709324199
0,74524122218706
0,769404815447461
0,796196461851882
0,808051348950448
0,823542234246937
0,83990953694782
0,853527844100102
0,855075138655479
0,858999717517254
0,866848770711386
0,865952143885229
0,868507092728779
0,856631542732004
0,854641410701721
0,849160467398883
0,835321880929639
0,828279339890846
0,811074945302096
0,808766474223686
0,811784242590801
0,802732323079314
0,79663919199616
0,808223233444805
0,817629140753262
0,819329530763167
0,818854381228176
0,831567628929024
0,840007133523612
0,847388779503334
0,86130695237255
0,873829131715799
0,885056946448246
0,901718096258994
0,909902229432847
0,929278925674539
0,940114849977976
0,949524508713956
0,963305561957685
0,977088679022751
0,985477402588014
0,990603459614288
0,998633741092152
1,01705104832098
1,03242645039403
1,05243619403965
1,07858740999798
1,08675900956581
1,10129631106012
1,10646861602514
1,11513143902682
1,11159026646445
1,12214921707689
1,13704874388023
1,14473391231844
1,1629510864838
1,15455039909208
1,15649866766961
1,17360184524628
1,18845279989883
1,21195266513322
1,22863905264613
1,22033721899316
1,18893060206522
1,20073951323966
1,20933684160812
1,20794840320911
1,20882564873558
1,18517291266464
1,17216295962475
1,18796563878862
1,16669632784932
1,12295129845919
1,08899306517798
1,06609065652167
1,05691614970275
1,02815721718172
0,993028583249766
0,969584309947716
0,937790092491815
0,904343924748147
0,884308428127712
0,852858532441274
0,827554810765117
0,812248509657117
0,790721238824356
0,776481075394648
0,754106101684269
0,73911657595065
0,734129815400531
0,718649964958384
0,7032909744772
0,695442798867592
0,684656892510787
0,669958795793894
0,656205994966919
0,641431914089429
0,623275723760304
0,608771463826906
0,590545675042671
0,569990520417454
0,54714831663923
0,534581434493081
0,516588304137551
0,489553945445963
0,468527146571589
0,447049075935389
0,422704329634477
0,400890010664367
0,379318700715604
0,355334699562656
0,338581125241188
0,315507309165064
0,303805385925669
0,28813198120885
0,265200838272171
0,252524431727929
0,242773752942695
0,225316846324384
0,212368165367949
0,20115520955496
0,191131038544614
0,177089218671863
0,171779131060185
0,165876818531806
0,16014904370598
0,153568674210417
0,148952391466943
0,144236089337589
0,139194823664171
0,13428116668526
0,129349859159277
0,127074181773844
0,124158515403488
0,123064709764932
0,123929397343809
0,121843442439268
0,11969637913862
0,118657693644492
0,117576093029132
0,115933087833889
0,119469470738167
0,118621550694123
0,119689203804745
0,118670007999202
0,121754990341187
0,125272805101108
0,127367105193792
0,128451300285156
0,133599397804296
0,13509695302661
0,133944151495942
0,140272436695989
0,146562183307969
0,14958601499974
0,146770417150691
0,148796168935907
0,155507217920911
0,155165200296981
0,157592279336668
0,155078110065297
0,155349009291502
0,158153682946102
0,156773010560989
0,158699188241321
0,160368121471565
0,164704387031572
0,162708230346875
0,161061537966764
0,161715635555901
0,16117586271431
0,160327559940019
0,165327407402787
0,16265118422024
0,162294937762096
0,163284419143754
0,159301345832621
0,158849013242168
0,154722736169394
0,158150425599041
0,159346338148648
0,155359403706965
0,160375604328816
0,152593380839196
0,155830040023585
0,150723177308482
0,149643095159541
0,148098047338904
0,143582852852782
0,145894811744851
0,147974491292502
0,147871910514331
0,147582674356157
0,146594957812516
0,144482377761628
0,149482445268244
0,155028841421519
0,154196560955721
0,156009288870779
0,159636253792839
0,162639752886411
0,160933120589089
0,167426979495729
0,164356332544888
0,163807049491623
0,166672122525906
0,166498642049149
0,163249664814778
0,162956613594973
0,165472624426546
0,158925330704684
0,154733867805216
0,146406766923872
0,148411854129279
0,147554799830848
0,144937219774065
0,14653767698936
0,138257934630573
0,138523617559644
0,136061612536957
0,140738358551469
0,13906335769672
0,142893793651308
0,144968804202301
0,144399221930374
0,14844282150449
0,143089524030257
0,147593127174903
0,141425675241217
0,140378827700889
0,152379638792465
0,149669477814657
0,148607704847669
0,149794274688534
0,149372021091486
0,152123824209929
0,153029716340016
0,152668004645292
0,158647336742293
0,153041715505833
0,152255269005216
0,157554990127596
0,158205916930924
0,156703193308082
0,157130365686799
0,157917570746729
0,159756143176018
0,162727771746809
0,148842349060949
0,146575201843922
0,159705819237875
0,151455071588902
0,157632634666434
0,154491954910625
0,155148777811387
0,156030183072297
0,156724744445721
0,15590080717468
0,145084778210955
0,149185361648108
0,147467536227763
0,145710504681781
0,142013632908418
0,146954639966181
0,146058956906831
0,140594268230966
0,141397585173736
0,128214424070932
0,137456689764843
0,138094343012813
0,131759807173206
0,129031032517172
0,137423146387885
0,131229826080845
0,132625164928098
0,129812055220536
0,124133218749908
0,129866227776319
0,133702906723696
0,120289779080784
0,133103793019292
0,120434377734127
0,129581843523821
0,122785693018967
0,130229421454685
0,130044173778309
0,12870892247125
0,132388726936844
0,126070762712282
0,129899799555075
0,130389164723611
0,122834566682735
0,131438062014583
0,126008602601777
0,133965366412564
0,137205391101378
0,148392426544965
0,147737772927381
0,14720016176278
0,145647307823798
0,144026308682283
0,151922917245651
0,147354890031074
0,146700755305938
0,146497175579177
0,165211092713659
0,16257099890094
0,160824190441188
0,165170432573455
0,165389046974052
0,180873581929982
0,178492573593999
0,182083419257103
0,189738404126687
0,193332610011575
0,198366237122638
0,200775878209722
0,215214421080361
0,229037382863661
0,211993708314814
0,216517619327378
0,221696763232111
0,224429331990012
0,210580249573153
0,219626378002545
0,218683002057801
0,229640505721835
0,223117232667297
0,221806908472807
0,223871406613929
0,213237038938774
0,217112856821297
0,235693670571587
0,22506947461377
0,222788787426278
0,214491503113224
0,230761755637479
0,224535061891192
0,223918343614807
0,233805333339304
0,225899710308194
0,247703627384834
0,250078605463656
0,240969802317125
0,226213776712245
0,240832388874525
0,229722334887477
0,232372519675417
0,229360404755511
0,226165682710398
0,243122894945092
0,221181761972149
0,237276476559129
0,224768639924462
0,234391554022081
0,225801893581361
0,209774314817895
0,219552684690416
0,206582606620901
0,21360754915509
0,212029587087748
0,219106794305792
0,21704800081196
0,200098402716411
0,19351943691301
0,203866098979825
0,218296462285796
0,222964182590532
0,231722144597106
0,19847588796157
0,212376730801767
0,213423987625904
0,218635313234244
0,214222417862769
0,213087048511315
0,212491670193122
0,20592178196108
0,22705668952543
0,222435491716117
0,200084739007838
0,243833872666462
0,213865100145021
0,231962893168519
0,229865024135735
0,225567501973444
0,228648835917254
0,214623068330741
0,24924572904458
0,233049571136938
0,257405498101522
0,260697076430631
0,252442328204207
0,274243715704208
0,236071947820207
0,211917170114933
0,275005292522554
0,237089845106729
0,256683819601783
0,291006005575792
0,289743080541317
0,263560570017164
0,2799889451557
0,272227252347307
0,261142153528908
0,28085526597299
0,313194165746514
0,305867182833701
0,299212208883608
0,2886389463091
0,283396346275448
0,301974550663285
0,300779665593541
0,300135313801326
0,301863947226689
0,266389277300494
0,266711057154551
0,26287205230593
0,356355735397814
0,295485998059008
0,275686259905181
0,283109405954744
0,293330117306248
0,2758739765187
0,260887689879922
0,315269172812079
0,311166858803635
0,261890635091217
0,285130369431708
0,327992254764376
0,265861001655352
0,284375593093032
0,338289200834945
0,313782739353897
0,232177687276922
0,234072497559404
0,273786700288779
0,268091582106412
0,250806270634165
0,267971651394287
0,319844174548011
0,244984419033446
0,292932675835494
0,243117121010652
0,184235557188416
0,242244620487291
0,353231698437815
0,230651015937094
0,213172797361431
0,270936839489976
0,365186465586863
0,271969963350604
0,265599589362045
0,390346461665374
0,27420273731935
0,302800204749802
0,425056819101499
0,343567394332356
0,174570905154889
0,0670473803406353
0,372608107015084
0,284448403316996
0,286021164490731
0,368343112273998
0,370853720502293
0,212208002579397
0,662542196555724
0,161770078550842
0,317794741488392
