3596
4000,36533379555
650,420452594757
1
2
2
0,0584156459749764
0,0481731897626375
0,0681357794832482
0,0443386051245738
0,0641409000948183
0,0462902766738935
0,0667587507262855
0,0407891254605251
0,0536893465544337
0,0492984075841657
0,062763388686732
0,0436911985406188
0,0553297175430885
0,0487779994828749
0,0600736734596891
0,039083849523958
0,0629865730880676
0,0517321002305902
0,0615224581641321
0,0426808335640444
0,0569942579768414
0,0418003867119029
0,0493290481231044
0,0470369619329201
0,0569303917745709
0,0449496003812334
0,0627396213810365
0,0468703601964268
0,0617569293108536
0,0415713378721208
0,0592370227592962
0,0462822161138779
0,0655578530806747
0,0489471243756433
0,0512388676490965
0,0417503944298435
0,0609559820485452
0,043193692587209
0,0545287240775464
0,0396405191246831
0,0631148237729148
0,0565795277263934
0,0581168462172899
0,0477588843140077
0,0603785695994454
0,0564381524256737
0,0566613846621418
0,0522123705187264
0,0607628451527644
0,0453768042041046
0,0617976463518941
0,0417418608108522
0,0651123033080199
0,0501799543429141
0,0639668475120884
0,0595677702724992
0,0685731384824772
0,0479298390836693
0,0648697416253834
0,0393241589573035
0,0791488499704833
0,0685835752420838
0,0668838032196058
0,0434683707025141
0,061718849628068
0,0551526183020759
0,0595262644316763
0,0468520988009935
0,0566938410351488
0,047518551555098
0,0592519228583139
0,0734785702200487
0,0763535087160871
0,0469875153013613
0,069518013287196
0,0519745489174844
0,0581553069227317
0,0432073329186485
0,0451271340829077
0,0490348766410902
0,0799476916155846
0,05285099304411
0,0582672999613885
0,043186045840159
0,0602809298073813
0,065609806902943
0,0540209485646995
0,0573266819129295
0,0844090644997053
0,0512837157820653
0,0568480930131983
0,0443295834536269
0,0529216397618651
0,0456680632127742
0,0627881382077227
0,0458588614295779
0,052006645009529
0,0447530134056798
0,0533654798662079
0,0417138947403965
0,065059100864844
0,0640820109804757
0,100262591467125
0,047225587212371
0,106659532291642
0,0662953561994779
0,0562828262101104
0,0991659049220662
0,0819909946928852
0,0525378949119804
0,0566002005832979
0,0463867843688322
0,0604716081714602
0,0498286295103342
0,0540016480957802
0,0691228473122867
0,0947890913208551
0,0507868419535035
0,0607007851266338
0,0456621876780352
0,0394601640738091
0,0723346156531629
0,11015369797074
0,0537744018379763
0,0666999873045537
0,0469754227662431
0,0524101913735569
0,0827374604321964
0,0949346228604428
0,0560835291329831
0,0619199319144527
0,0486818988714377
0,0507580068729927
0,034991292374623
0,108698987572999
0,0633662908188433
0,054104837578539
0,0294083111516825
0,083130270566144
0,106632409946339
0,0804535134053991
0,0497779979528123
0,051622327280072
0,049652636411882
0,100235259833265
0,0638825182879333
0,0589231875101083
0,0681228567532533
0,0668304831892967
0,0459518051663393
0,0538788598958051
0,0366180807633453
0,0819146845194495
0,0582562536297853
0,0367984432644465
0,0816342394088764
0,137714721437076
0,0727998889987637
0,124400731401829
0,0585923315999955
0,0725901488830611
0,0566189604733549
0,0543771863773488
0,0396362702091799
0,0468813215726398
0,0294761759569912
0,0676512260650674
0,0715638160293962
0,0587209748606413
0,0506364442854171
0,0986635832733633
0,0702555470801974
0,0684584273908946
0,11121049769593
0,0811668111640683
0,0449429535554215
0,103823299554389
0,0697039881388361
0,0472045103870407
0,0597466455555595
0,0931527679965384
0,0521880243548577
0,0657423155112245
0,0411643589734101
0,0598133517816179
0,0667732914875624
0,0687606316360245
0,0529193498565769
0,0570120389046519
0,0300260058200957
0,0749857734710637
0,107044683172047
0,101934061437096
0,0502408073384558
0,0584799680556749
0,0191592919374323
0,0906813775619612
0,0906572133876255
0,0631388570655702
0,0394995958732517
0,0450592744768338
0,0454325946070657
0,0428749180137236
0,0483049530961515
0,0438439017143085
0,0245504845698854
0,101559253801983
0,0737267612730324
0,0656264807149952
0,0457946865855196
0,0639276464349326
0,0355599207621741
0,109892163105077
0,0838982266209649
0,0585617546894117
0,0529164772302866
0,0500635129788137
0,0641892953993111
0,0827704541909381
0,0395093484007576
0,0574341098422368
0,038302474353275
0,0558817158914875
0,0388332220578642
0,053176719297052
0,0405255240239571
0,0546924639037354
0,0428529061008343
0,0585450439364513
0,040929106984075
0,0625861140589097
0,0530676027637814
0,0580569178415659
0,0477513605163028
0,0500480364903413
0,0530741836248462
0,0846452174906481
0,0494699964004183
0,0585042422152468
0,0454449754125629
0,0529926048013382
0,0396867990741657
0,0516430499911467
0,0455711770833046
0,0545438304189655
0,0386982791241737
0,0952527185248593
0,0564040087571938
0,0603047080225863
0,0302895174715609
0,0829041069688197
0,0642487535216996
0,0619982239493162
0,0447776288314544
0,0555011912611283
0,0286806893007189
0,0523791822380186
0,083538636792792
0,0738975381225232
0,0420166485052394
0,0703898344947149
0,05638913342814
0,0648849687880318
0,0437563995609858
0,0456353945619444
0,126267891769294
0,0862545005664208
0,0332121459694999
0,139127244256124
0,0722081577065517
0,0740219321401782
0,0413555930672048
0,02038756308466
0,133839776071734
0,139706084289682
0,0535820732029621
0,067230341090811
0,0632047687029289
0,0556160669679893
0,0508372178253294
0,0616625731638101
0,065530460433664
0,0802498755255636
0,0995290555173765
0,132865888989525
0,032326034249369
0,104815682643791
0,078353551904631
0,0667947501795569
0,0504754333350139
0,0566043675305857
0,0377880503982731
0,0805584128976109
0,0561023990543777
0,0867152805990691
0,0554456574648425
0,0550977989251964
0,0782956544881201
0,0725576217656295
0,0410844345901348
0,0716112990651577
0,0608232167224202
0,0575367042255652
0,0571690118586507
0,0545013923745983
0,0623972699904664
0,0539728350783669
0,0350521238026804
0,123446643450545
0,0694045076543059
0,0630687977862972
0,0862997968232354
0,0655868131695198
0,0457869670715789
0,0568504644094311
0,0422211780324695
0,052914032142161
0,0404486143895512
0,038106115981964
0,0741640503627159
0,0632144445996623
0,0419837228207447
0,0550855348491834
0,0362247696364348
0,0491000998849046
0,044788462312094
0,0518325017551582
0,042820504373174
0,0518755880714329
0,0319175504714821
0,0751264086454428
0,0838433304275187
0,0410615425552473
0,0842052187481789
0,104079954796809
0,0590618619866413
0,0508397349099268
0,0409528409595144
0,0629660053267282
0,0410658850953101
0,0495036488109899
0,0402859971075848
0,0572534515027176
0,0637814411806837
0,0591802119406793
0,0449571010420745
0,0550393988658257
0,114741287482652
0,143771693974414
0,0729373014118092
0,0658698354481915
0,0213574761137958
0,0990547874298427
0,0786150615907784
0,0968052831935055
0,0853557291199776
0,0581785670207112
0,0484236951505839
0,0484552490598924
0,0504449628462757
0,0482772880809829
0,0486403300832407
0,0534730891239182
0,0542267430948514
0,0554522774104815
0,0532679718811682
0,0442121002894505
0,0444183216358257
0,106565755059054
0,0714109363110553
0,0653692299312877
0,0595195601357077
0,0420486893103786
0,0837477179357931
0,0824888107913522
0,109382585075897
0,0996742996453709
0,0874098713513803
0,134679651994739
0,0637028909265331
0,0711003758911966
0,0444183632027971
0,0679284248280496
0,0563834047994423
0,0626867969564322
0,0526726950570501
0,0621088080219488
0,0511995549383034
0,0754295039784316
0,0480617522807274
0,0647294677970151
0,0472830111514414
0,0886408446473177
0,0576542465282635
0,0703672576547189
0,0467427130381283
0,0918340672039084
0,111973893694488
0,130754270282667
0,0769162529214054
0,0928593994209936
0,0572699396075292
0,0715436850047507
0,0720756455391219
0,0562602185280116
0,0713804768845823
0,0730063905555169
0,0905993648488671
0,0964448404195265
0,0877654278259582
0,106303054084168
0,0526266230189275
0,10849045372951
0,0678332135309757
0,0965686355607511
0,100435510154795
0,0974550439128247
0,0490598369091417
0,107804122319331
0,0871386449749317
0,094428681435599
0,0998396705529134
0,0842098567270315
0,0733032831483383
0,0722382847366121
0,0765401415970232
0,0722897186561243
0,0801423891455864
0,098762146804759
0,079437641783629
0,0917692003880341
0,0761841909041231
0,0892018292795532
0,0976585487763657
0,0984088915329195
0,0785438577631187
0,113464596250364
0,0699002308627594
0,100745344820465
0,0565283359347689
0,119908439506674
0,0950728992383963
0,120563963989048
0,118331408588517
0,0980464486056825
0,0927852650770832
0,0980955398870853
0,0881523015413068
0,0940703257301113
0,0898362667514928
0,100486123766466
0,0942388860733438
0,0999247269224572
0,0973717331446669
0,102801068232294
0,0930725772451452
0,118012458734072
0,0945826446267924
0,102723680588458
0,0922435021820207
0,105942388377175
0,08330792952786
0,145925078753437
0,136975118166214
0,155780958282374
0,14621268493886
0,1243592138483
0,112344121969499
0,131370404853213
0,112357183284658
0,119886543710902
0,115678397682934
0,134714403083011
0,11129388326127
0,138064804107451
0,116117518747313
0,136290530793399
0,114913662763512
0,133002615737317
0,133561407661022
0,155436083777539
0,119501364452863
0,129538574875915
0,130348413530379
0,144179141112713
0,147173750247836
0,145752213230389
0,147774280023679
0,160268662672864
0,140941866541175
0,139655359446961
0,128343570467932
0,156447733902928
0,138862901230389
0,150283647638949
0,138870962424408
0,165356679860718
0,143907249365576
0,156046246060938
0,133843171023569
0,16028930424626
0,148789477443531
0,169290470189062
0,138418295510567
0,170603744845578
0,15641806035887
0,177182470642705
0,16186577539121
0,164841751347347
0,15137905769635
0,170122174533876
0,159791992663328
0,172298302163091
0,163924172863903
0,177818529782614
0,166635158890129
0,19004503833911
0,163851630118988
0,183001830142595
0,169985208665776
0,19513160783013
0,171228471064736
0,194952268690977
0,188167330203448
0,203679951025489
0,181949129233829
0,220468609064405
0,173436320064258
0,204015105305962
0,184885693711765
0,211614106147709
0,197841262910736
0,222546884605919
0,181833334940725
0,215732974760891
0,199398311595779
0,205229508133026
0,189723352329772
0,226000681670128
0,198428138152161
0,222076969068253
0,220577707303904
0,224052549300889
0,201567892217925
0,227963778898038
0,212489122695544
0,239999400993732
0,208494045559142
0,235670875904827
0,212027392643812
0,236371677265599
0,227385295181844
0,245557465723203
0,222926387916205
0,231412321905952
0,231902971615431
0,248515100988951
0,234944402473338
0,243600108980878
0,226106166341983
0,255613304026891
0,231273791722029
0,244196290036081
0,238631412709123
0,260155716502074
0,24971662000918
0,250378116946105
0,221313591405204
0,24047799676418
0,239424696054402
0,249800416763249
0,251603034965215
0,283105966947242
0,246298868810993
0,261798892390275
0,261409966870672
0,287754115299706
0,256857131240892
0,273800905011786
0,25967629642354
0,282202377385074
0,252496336987168
0,283741024457901
0,252097830324766
0,285782491359361
0,270570394308744
0,276771867667472
0,268687418950936
0,291909970574929
0,2716465932746
0,300888207662454
0,263462551644506
0,292366563224582
0,301211105392166
0,296476276665302
0,268022525843383
0,307940362366572
0,283498707734806
0,298960162686566
0,279640089462746
0,296070481476563
0,28454016425982
0,304587076624074
0,276979771860482
0,30975911690403
0,268520781959942
0,315070846168378
0,301613142797987
0,314171845180707
0,296639307210935
0,305841315528628
0,301191782226549
0,317949219393134
0,300592599826685
0,3159770643637
0,294887336615069
0,319592833747193
0,299817430595171
0,329261103638165
0,306115521860868
0,339293335893553
0,309546877391744
0,338908496151714
0,30750388404411
0,331394034852407
0,295055570838882
0,330509118482494
0,305560690879229
0,335476516412532
0,307413240766796
0,316492784065936
0,30464387613148
0,327815755450488
0,314997518594364
0,328816968132484
0,316509321032702
0,333082497907066
0,32066172967547
0,339131948751126
0,322317116385238
0,32725622261715
0,310830581630745
0,338789585843186
0,31569826349727
0,344637219396961
0,313164680273603
0,360501202383892
0,327053011027638
0,343035717951336
0,315612905169562
0,340138420972797
0,326229706390933
0,334254632348012
0,331684516484
0,338391717929139
0,334330789135137
0,346460388700554
0,334081711990905
0,34392677886075
0,341306158739901
0,345962044590885
0,334768483264342
0,353201587741606
0,340113148538958
0,337163505200691
0,331396053963603
0,358327766328597
0,338990609913126
0,346907175967708
0,330384191302072
0,353673203185645
0,335631635544799
0,341604264979516
0,341054079297944
0,34358884788705
0,329659024620954
0,354397176476823
0,339992626538168
0,353127847725924
0,32493829914205
0,340982153539268
0,334911316462644
0,353071542545643
0,334014071792311
0,360666290510362
0,335541020048911
0,364555436135377
0,339425507287848
0,352749191716607
0,344382726716882
0,353373502604304
0,342141533604854
0,345953393371652
0,329148772321082
0,344387063183744
0,329933574460564
0,357351825622238
0,343102202624386
0,35012017722375
0,339568422340089
0,352564667025583
0,343580925243821
0,35219229547388
0,339315490617648
0,332072733243634
0,336734057389741
0,345634733645995
0,336782557903539
0,351088347338149
0,334853471236655
0,343736467121253
0,335108139200713
0,353499340547413
0,334171384208699
0,357023065547638
0,3303029637715
0,34463057221408
0,326930571956705
0,351780914702051
0,328240973569127
0,342267029337605
0,325551062350299
0,337469539306709
0,326867518537656
0,34570930890794
0,326783562364957
0,342411319439337
0,332767853492815
0,343376015693935
0,321479355426356
0,337607262653704
0,328596527997265
0,347380153174039
0,325398051274752
0,334747960050122
0,324700418851726
0,334007281874825
0,320098521445148
0,33357410226487
0,322135814450115
0,332856237478475
0,324251439294166
0,332029392637211
0,31893830792743
0,323928397942223
0,319197291527209
0,330544200041552
0,325024452603779
0,326543950544848
0,301306387935413
0,324541343568088
0,322770618603078
0,32562013786234
0,314949766700976
0,330973480599697
0,313330969029662
0,321770238778242
0,31205071836222
0,319641898030409
0,317971788413627
0,315008626580987
0,305294799928469
0,3183939374091
0,306450603818252
0,314626164521634
0,306370716411828
0,320352997960394
0,306856831503818
0,308806083284579
0,318508816646948
0,311432163781155
0,301130338804475
0,311195894422026
0,30077237675858
0,325262038149975
0,296120067398652
0,301519478535184
0,296297213473891
0,308271483754121
0,299381543309592
0,300650193161998
0,290306503300837
0,302771642885894
0,284704754845851
0,301586385416931
0,296339967936659
0,30062996676757
0,295543440840447
0,295952573049611
0,290273376006756
0,300248747630688
0,288151703539732
0,293605073834528
0,287222231691983
0,299347898420913
0,28345247534646
0,289710017283297
0,283115136615586
0,297826892515238
0,279107064801256
0,286778382950627
0,279007428067085
0,280574567667697
0,276338866821176
0,289867220866562
0,272471362504058
0,280308462242132
0,270524540576734
0,272022347890451
0,274265468020655
0,284502268272116
0,267388450220926
0,284317190293677
0,265924887925019
0,282213722717975
0,262257052283789
0,270930488791848
0,254080535493437
0,276051883750208
0,25467034216937
0,262391952936662
0,259031073193676
0,281767872373241
0,260603839504174
0,267954069113704
0,254679806637479
0,25871249777072
0,244762110555851
0,259690445202913
0,248809855958728
0,25959981297005
0,244295024874804
0,257727348132962
0,24319482088821
0,257355466943186
0,243752459363591
0,250261369115394
0,24747819039421
0,253218080388348
0,24908167718701
0,250861778234678
0,241989828705712
0,243284745698599
0,239402101429894
0,24077479952019
0,23093593246969
0,242346374699572
0,230846768332635
0,238851267182943
0,237528959612852
0,240333103483456
0,232332025167181
0,236419078783309
0,230732364462605
0,235216126967773
0,224952660287285
0,229755362376001
0,215271606234595
0,222551546014019
0,224152026057546
0,221623179516042
0,221645307360801
0,225370206009493
0,213009214665393
0,224453540741768
0,214194422178597
0,214863297031162
0,211783424712492
0,219448165810464
0,215490791710847
0,215944281995859
0,211407433946236
0,208447963511276
0,203320520466507
0,208277392440008
0,19726089966474
0,212248927624544
0,200394175982044
0,212511284279248
0,20053718499683
0,205651016249564
0,198129456564172
0,202433525981735
0,193927873400237
0,202039454594737
0,192974339392789
0,205149665682677
0,189119367369487
0,198630710248087
0,188711173690138
0,193645505579922
0,190412471004442
0,198241803792144
0,185790243737203
0,191536337035232
0,180552617858017
0,192084595427342
0,183552980702874
0,191941086786184
0,183193010595559
0,184699473141145
0,17693577123567
0,185459720627977
0,178844786918538
0,186277317514658
0,174387488134309
0,175282267914676
0,170198526160896
0,174313197181719
0,171695314203721
0,171061088930898
0,165019039296476
0,175250841169753
0,167465218449579
0,18140202625137
0,171131013934981
0,168820243728809
0,164839142517206
0,168356898805869
0,161470233051287
0,163732901002588
0,156437772224641
0,167377724487951
0,15679015351504
0,158838077985224
0,154768796067623
0,166742577817465
0,158508913397219
0,159679583695904
0,153326651840414
0,159270904383812
0,144544320445478
0,154801466587851
0,147915290893819
0,152906748092458
0,149860025437745
0,152861844117202
0,145082978477193
0,144076750270497
0,139689504914606
0,152514161140276
0,150122456688501
0,14937408478859
0,141860757663711
0,146391335642007
0,139220015298987
0,144671050729471
0,133283062010455
0,140131847184701
0,132378472655652
0,143730873126142
0,134195513138527
0,138207754757457
0,132982026889393
0,142061591299184
0,128518472035425
0,141059582734788
0,134921585695838
0,136384940835607
0,128234079787302
0,133493612426983
0,127155720547106
0,133339076595016
0,12828549762608
0,137753773080057
0,129286748973485
0,133573868629964
0,126209233390522
0,133629040892579
0,120472926516196
0,128013339809257
0,122641222847612
0,127748956633415
0,120636859439741
0,123082017439262
0,12487375023458
0,127552041725219
0,115558299118054
0,120946187257718
0,114685663699415
0,12171553347903
0,113785183859507
0,118014557962536
0,11096389061148
0,120250156741814
0,116776741103472
0,114405039328341
0,107092732317672
0,115336605904562
0,110782874651183
0,116899388615842
0,113173270079921
0,108890200109848
0,107041408273234
0,10974728220513
0,109483878755288
0,109599307931234
0,106934873390813
0,107072776792467
0,104056942635605
0,108468041837348
0,104488110578399
0,103552226088375
0,101095738429801
0,106237450672631
0,103691655236922
0,105340886084842
0,100511957588778
0,106658262804595
0,0957200198186976
0,106951390819851
0,0999685073748921
0,1066614810824
0,0960766408530953
0,100953219933153
0,0994462766799264
0,105159226921088
0,0971710830065462
0,103765343168755
0,0970940165189555
0,0987773448218265
0,0921254191563251
0,0994587504615162
0,0945538261136847
0,100152330860797
0,0941620392998257
0,0936415200461104
0,0903110036297688
0,0955595408428658
0,0900486031113094
0,0944261558830773
0,0933424340847164
0,0925282350280653
0,0936067918310586
0,0952534439294512
0,0873060841795229
0,0946354158036602
0,089294882430484
0,0919826798771657
0,0851846089952016
0,0890157873815652
0,0865502038919157
0,0915306609198243
0,086968570754065
0,08707566365468
0,0752893122857487
0,0805887112529011
0,0838408670911761
0,0878847165422081
0,0856034132998579
0,0862866516029115
0,080071700812105
0,088706046674844
0,0813347111592803
0,0829590813888945
0,0803112303405156
0,0853020061903877
0,0789037814145813
0,0795408272176172
0,0814250500919197
0,0805353117147454
0,076441741369784
0,0871296114355393
0,0769035585546479
0,080793175773892
0,0751229050565933
0,080884564625983
0,0786385173246662
0,0816404358325007
0,0800608796299223
0,0844107209472609
0,0838788283192954
0,0788846308915839
0,0785147489003607
0,0842716439133359
0,0786969002890336
0,0815780481063187
0,076810908879361
0,0829189408918053
0,0777588360137174
0,0814111605872454
0,0768269980418729
0,0793644705204423
0,0777958341398319
0,080009708953922
0,0759549367147027
0,0854269691816758
0,0780195430195823
0,0840875305640136
0,0807343648061877
0,0845677379507734
0,0811619373519173
0,0830272442607909
0,0786931121925609
0,0829056432160881
0,0815293031334596
0,0840753510815972
0,0800084881832686
0,082822401919304
0,0838831199075409
0,0887431265299284
0,0814289899184044
0,0900609636911736
0,0819347539613271
0,0891858263559153
0,0855071174485682
0,0869628810400045
0,0855466883595394
0,0896985506369999
0,0858997850638631
0,0897151254885352
0,0893157788429426
0,0935702108913941
0,0910159592670485
0,0996455483561187
0,092577050450614
0,0932992235210061
0,0906572258603008
0,0978125944995205
0,0896257724567712
0,095823749053413
0,0957398670805799
0,0995985574529657
0,0978570839852683
0,0990764372755461
0,0914848586489131
0,0996957317359758
0,0951154122379901
0,103968370838754
0,101159838646577
0,102397270689875
0,103416052586206
0,108615023528686
0,101839125032821
0,107713669635902
0,102948765192122
0,109820676764233
0,104729077598913
0,110187903122523
0,107299909573524
0,114471740478899
0,112174428529943
0,113867175031647
0,111238101119122
0,116983964745723
0,11350796282946
0,117579705304961
0,113742970827067
0,11228205224195
0,112757845183502
0,116415111860824
0,113496033524753
0,11449274619134
0,114017116501578
0,114712432287152
0,113703889026144
0,11834665978009
0,109846170869111
0,110100782880819
0,111241979721679
0,116587821104276
0,110700966496717
0,11139790988544
0,107995357232135
0,111261427905576
0,108333327359822
0,11414992870868
0,111639825885688
0,110311705894349
0,109107497499681
0,113106306821542
0,109927028265826
0,112770572113375
0,109284627705502
0,109995076440025
0,112079208419322
0,112062032240126
0,108001373973521
0,115367958123442
0,107596781838662
0,114748384715392
0,110818386753464
0,109544590245203
0,112119921888366
0,107621826557974
0,107573317171447
0,11532017377554
0,112117414679802
0,114830355469199
0,112414116802729
0,112055231890405
0,105449498817056
0,114174433477484
0,109252252564545
0,113224475060974
0,107968016254451
0,111631602037042
0,110751659438727
0,11059664688551
0,108152124331804
0,11037648620951
0,112038885013287
0,113098830405163
0,110474515926008
0,108812637972945
0,104584798032921
0,103460501303009
0,103361888705419
0,105426521557447
0,0982246073579872
0,108285195621653
0,100670664374286
0,102216207758368
0,103121745687209
0,102811941902409
0,100438223225774
0,0994008372768976
0,0940512645718949
0,0990248540585289
0,0931554517820538
0,0960478491036484
0,0943370956491471
0,0952826824923436
0,0932979922771189
0,0969477150112991
0,0895281413065811
0,0901520792524172
0,0890229912039885
0,0930909838717312
0,084922955446417
0,0865118747553619
0,084128636435013
0,0872886859849477
0,0858917463525377
0,0816965412076074
0,081401685361165
0,0869267845951018
0,0843228190441823
0,0795941386494777
0,0766040623966861
0,0814155977164086
0,077795995859184
0,0819514997282462
0,0789615929413505
0,0814380012763359
0,0766933120178155
0,0771503422378885
0,0761804473726315
0,0800653891347486
0,0744953364203905
0,0788145903067963
0,0720701548506291
0,0728429925528657
0,0746788158778701
0,075827186504518
0,0745930129194096
0,0761436143703584
0,0676788328149407
0,0752436315827121
0,0739478529951441
0,0761595677023474
0,0720770311292881
0,0769115865792605
0,0757675067478705
0,0744038332963727
0,0724875484019714
0,0724167884725041
0,0721541113968132
0,0745316127304883
0,0723311744404874
0,0695065136320342
0,066764876446065
0,0713626376078839
0,0685536308330758
0,0678698893118995
0,0696128611492462
0,0692493445580789
0,0656275268865281
0,0669157452604675
0,0641286968426413
0,0647782179206972
0,060054645099583
0,0662166223236888
0,0658760356377296
0,0680015390176857
0,0625755560159638
0,0664974936898035
0,0640812628186174
0,0637664074409747
0,0629302757837642
0,0644302237227716
0,0604162197330333
0,0612134260685255
0,0592276085346204
0,0638999789397742
0,0634500661718213
0,0646917354094972
0,062146108288983
0,0600513687836893
0,058268505905478
0,0598320349642045
0,0593203675027282
0,0642792914844846
0,0601671774435501
0,0625325358263313
0,060837049270419
0,0583275909154699
0,0599757822253312
0,0624849284711721
0,0587968860704303
0,0648555140012054
0,057940805856755
0,0608722492851875
0,0582894808079407
0,0605813424835072
0,0600227023596045
0,0610979827538795
0,0596636437613035
0,0605079567162569
0,0583831800235864
0,0614785524413962
0,0589262382885232
0,0612796800552774
0,0580759350685666
0,0613677986420794
0,05985193144042
0,0592275785760868
0,0577776983896588
0,0621546788394854
0,0599487104294684
0,0585149386597477
0,054747861298685
0,0581122306682556
0,057438998195872
0,060895965164763
0,0578000725513139
0,057881218011477
0,0558789064986879
0,0559476047762225
0,0570606703648557
0,0590895826311443
0,0535179612029858
0,0560649833064109
0,0548715983216871
0,057192731219657
0,0541538865983207
0,0524159422662409
0,0563958951848906
0,0561300748566846
0,0542172162657074
0,0540358467760892
0,0507880216802903
0,0552345072093494
0,0524110049648252
0,0505442534654651
0,0516789957650224
0,0566827324733833
0,0539790244045293
0,0535957435680149
0,056367983433824
0,0558604373068564
0,0535760327772832
0,0559445717846481
0,0486709313524623
0,0550065546623344
0,0563423374717947
0,054171085703967
0,0529596917462109
0,0544169777256295
0,0528733941871683
0,055937333568168
0,0536502135883968
0,0523280230245569
0,0519683983761434
0,0535055312683234
0,0515177074085088
0,0575786121077411
0,055026867552978
0,0521967358030669
0,0527660037331741
0,0541754098348085
0,0534173989949814
0,0578839915090174
0,054906875080034
0,0489772547411005
0,0481414992258275
0,0526708687638844
0,0535347709770674
0,0552488503808689
0,0510599895267872
0,0525631087667104
0,0520498913054656
0,0519050244173845
0,0498616055528893
0,0497438753452318
0,0508760052633121
0,053431119586499
0,0488178430222587
0,0488824284950329
0,0506211813324916
0,0501304249849561
0,0473501835871336
0,0473548665980637
0,0471283570481876
0,0503062071243302
0,0460554949866664
0,0492890698069797
0,0493135550794346
0,048380989126822
0,0495265539951614
0,0496273657525141
0,0480881409678803
0,0458248915943517
0,0476260778654428
0,048585061458677
0,04608653277138
0,0477534482530047
0,048870122715339
0,0479979555931497
0,0438106119321432
0,0450104285808593
0,04469553207398
0,0445255435901111
0,0451906455378958
0,0454874934495368
0,0452699304305012
0,045314184817356
0,0464337317983626
0,0495233320771221
0,0476962306201075
0,0469087038055204
0,0456204668204095
0,0475768463336761
0,0440520910200934
0,0460771530642551
0,044158853360825
0,0453783925832316
0,046563571824434
0,045461961116252
0,0440473031670864
0,0491698627307253
0,0447071916623626
0,0461133279249896
0,0461155883948757
0,0452528422474187
0,0429329852428968
0,0424172562970942
0,0426112039910064
0,0430707467431284
0,0438471382489461
0,0451283695844797
0,0423036794092468
0,0414043331885279
0,041445806906961
0,0432272650042938
0,044869991121776
0,0425547622672112
0,0414627580974356
0,0434022710322381
0,043971904750397
0,0433178270556568
0,0400224177538454
0,0403960415908928
0,0391386807637559
0,0393649265339202
0,0386774177021604
0,040466613006101
0,0413836534684578
0,039546168075042
0,0366331734696706
0,0395450785695738
0,0404178614994869
0,0391665990506331
0,0370126616418446
0,0395741462457404
0,0414303113947806
0,0389137514140711
0,0371542438445071
0,0375579683417678
0,0395855910599173
0,0405555938761248
0,0376004914441525
0,0361844113086355
0,0343989300768353
0,0369094383186711
0,0350217176544824
0,0356953223131131
0,0363317315582158
0,0373856879229664
0,0351382903863266
0,036742310474203
0,0375340883504918
0,0360915419631393
0,0364180577340827
0,0370998984888737
0,0403964031658001
0,0404002251771639
0,038715065794666
0,040355528985907
0,038252659426775
0,0382066241230799
0,03917444151767
0,0408531768105882
0,0346017878151974
0,0361276087112376
0,0384908744728247
0,0361614767668019
0,0354355008360325
0,0338354047933511
0,0333660854969072
0,0368150697206057
0,0369513424377413
0,0363363037298296
0,0359961922255266
0,0360135350853653
0,0349054199311719
0,0338563227540511
0,0343659782055325
0,0380616100349923
0,0348071195920847
0,0367513221193458
0,0349066491527382
0,0335457555871011
0,0361137382447646
0,0343836807956412
0,0351092209457597
0,0345495384806482
0,035109378492504
0,0319020341770992
0,0279043292910139
0,0339262428354037
0,0329561429478844
0,0322768188805334
0,0334638382786994
0,0360643182639557
0,0357571418887812
0,0329987453229485
0,0340631036120887
0,0325550642207051
0,0296452629633121
0,0319046053302842
0,0338981653705426
0,032884293351728
0,033150337186919
0,0329441857276581
0,0337814601568982
0,0336633746791541
0,0338593272222265
0,0312869813723172
0,0319281023881613
0,0328445227898631
0,0322707798478207
0,0346667639700542
0,0328412768284189
0,0326831029669341
0,0321923360137564
0,0325250282517526
0,0325533848837263
0,0335936786755998
0,0323859790456243
0,0353882910064932
0,0344598385089182
0,0335862656765876
0,0355712018994603
0,0340849378534059
0,0327977520996899
0,0339654000322379
0,0321318377441196
0,0329491152103451
0,0338105505721552
0,031683894694254
0,0316653043653317
0,0336630540635451
0,0325232975256434
0,0309910088862628
0,0312645916638591
0,0309310412700708
0,030500034157272
0,0297559337428868
0,0326785632261324
0,0298066195393107
0,0311728053389532
0,0325655421742583
0,0300108138704684
0,0306148242489158
0,0312740787915492
0,0318517132139505
0,0323558576405016
0,0321771375381032
0,03087591865428
0,031495319950434
0,0297415659956952
0,0291024338861489
0,0283626569144256
0,0281589701516235
0,0290112821179577
0,0277776126142166
0,0293698548355403
0,0289036512280873
0,0268125150607918
0,0276251394879635
0,0302815594528855
0,0301905735850776
0,0301003345340067
0,0302122442203971
0,0297491700124709
0,0298344735042264
0,0313604821215436
0,026301329159931
0,0269092216594348
0,0305582608268573
0,0286136931237088
0,0297269055204772
0,0302975737117912
0,0305031220616873
0,0304921936791907
0,0305914779032378
0,0308372965168846
0,0305976521445147
0,0298063078808975
0,0293302566108848
0,0322527718169696
0,0309949683492205
0,0287885213417391
0,0289851300344654
0,0310668763187814
0,0302900534233751
0,0280229268677205
0,0296871888147194
0,0301357341135252
0,0291337664259046
0,0308896283972344
0,0284009634745518
0,0265335479958202
0,0273506117548803
0,0291282293355936
0,0289761013227522
0,0287699946050016
0,0268446507403629
0,0283645785750641
0,0284060865202799
0,0287177854488838
0,0294641708776561
0,0291525238542433
0,0261746238203535
0,0260764392894576
0,0282755226453745
0,0286894133572119
0,0234714201713982
0,0278994927408747
0,0301453566635075
0,0259081974679526
0,0258349704721161
0,0253995008941587
0,0260919751470524
0,0235309809931169
0,0238529023023543
0,026876679663944
0,0259229988803572
0,027442638520173
0,0226234765374228
0,025639548193493
0,026768923587882
0,0262542412811815
0,0271751483885425
0,024484406890296
0,0232743086404295
0,0256886576996163
0,0254630910118267
0,0264236746656379
0,0262777998479688
0,0268228058371031
0,0253404383552534
0,0257933247767486
0,0254511233218949
0,024346755241884
0,0260805799748685
0,027714544925313
0,0266661484432927
0,0259696603975003
0,0259566075759144
0,0273160243132154
0,0248009736786358
0,0243080603067263
0,0247266864938397
0,0253634090064882
0,0255658684540591
0,0241347087354318
0,0253754465348196
0,0251938728441504
0,0242269230779523
0,0254728892350364
0,0240932587139752
0,0254691146341028
0,0275262050509748
0,0252796007387255
0,0233011018128022
0,0238622445840778
0,0244726102750633
0,0234816338249902
0,0223466185956092
0,0243211952784531
0,0226888302303234
0,0229994651020925
0,0204327528376676
0,0237336139367544
0,0242206860723181
0,022508535296798
0,0226783341489442
0,0253676635634875
0,0231464747008388
0,0206841487933464
0,0232216731526278
0,0235103261702086
0,0210220639858372
0,0209229355653576
0,0220588401021678
0,0232300172063679
0,0206340146404646
0,0204937138545912
0,0210894795439685
0,0221813208555152
0,0213947224290776
0,0233395278472013
0,0222823285746022
0,0231888790871649
0,0212112294416725
0,0236298691176135
0,0221140990954458
0,0205403810724075
0,0239439353209328
0,0250182377447545
0,0216648037594325
0,0215755385683704
0,0220270061499266
0,0230202647037394
0,0238177952622934
0,0249947848926521
0,0235705946922821
0,0237792905161226
0,0223443470881245
0,02591253857567
0,0234217549518809
0,0207639224004779
0,0238388741681719
0,02516244804786
0,0233446356220832
0,0211960305022148
0,0217253929152408
0,0223765226947241
0,021777356076217
0,0253252749841107
0,0237110396525918
0,0223495191812842
0,0138668389929303
0,0180961656762793
0,0224036568695779
0,0221361131180825
0,0189846000702256
0,0206813416541592
0,0213396188711874
0,0179206609113321
0,0161770354906614
0,0214385700587435
0,0176099239511395
0,0194386739168367
0,0193913505578323
0,0160895782575487
0,0222177597866613
0,0242409544308672
0,0236192650963022
0,0227898402270236
0,0198956752292998
0,018387344222473
0,0181863521931448
0,0235662648699951
0,0185749677698245
0,0196017845787481
0,0193926311229029
0,0190006472228641
0,0152870706146305
0,0169596262636723
0,0185975174067609
0,0224293646265859
0,0124282987361527
0,016407134147028
0,0136689818345003
0,0187006975747096
0,017422081126053
0,0292466102909779
0,0147122946158232
0,0261900985390565
0,0085102423992576
0,0269776033219169
0,0179564178948724
0,035423102748884
0,00963190141708966
0,0262962254891992
0,00968783465984794
0,0428587069934866
0,00934602562431809
0,0336376994762684
0,00894142920783389
0,042673527503959
0,0173458519735225
0,029179875772744
0,0145653849126508
0,0343135236335924
0,0183113503435567
0,0266967807338296
0,0282385266367765
0,0234296972912115
0,0261022524646469
0,0230962431129791
0,0232301820572858
0,0215237776859146
0,0255641295243724
0,0240874508580815
0,0207654867271271
0,0227188665625076
0,022107179237819
0,0248433918009559
0,0186441539705602
0,0227433397290706
0,0200156614572515
0,0214314347086555
0,0198463784656876
0,0194929360086536
0,0186489391026917
0,0202838383340764
0,0180507078056534
0,0180009422876097
0,0170680414877887
0,0174890169362111
0,0175418774962883
0,0216139774838052
0,0189211418712539
0,0199722916799477
0,018096843999869
0,0190315756527424
0,0185327825392111
0,0205552677348349
0,0159378309713259
0,0199298780528662
0,0192304750985423
0,0205278383062588
0,0195211178179528
0,0213080035030383
0,0182240470682023
0,0188088342069452
0,016661768822198
0,0197535057218274
0,0185361276829172
0,0204689774244916
0,0189866626327524
0,0203122831953019
0,0175080403998045
0,0181737982128502
0,0180534408886753
0,0191896854746151
0,0187742398819074
0,01952567657892
0,0168720140048579
0,0176444294129882
0,0176152992396118
0,0197620321822968
0,0174730205586016
0,0156913882477589
0,016245151341131
0,0204895394473687
0,0186794645625706
0,0212558945943892
0,0186796086331051
0,0182617183868521
0,016610596395375
0,0195005626830753
0,0184851635989168
0,0187779762407027
0,0181928810805085
0,0190630962234451
0,0199572900218089
0,0183489709014744
0,0159054558063735
0,020298872827614
0,016692599763641
0,0175299930819146
0,0195721215441261
0,0177713029652741
0,0153690445822027
0,017424645684822
0,015088739584591
0,018044731637921
0,0154179836311278
0,0185279406048416
0,0158348147177611
0,0171194686499005
0,0171923331745945
0,0164326903504304
0,0154652398560197
0,0160745938247004
0,0174934822782305
0,0188355655040665
0,016466586379532
0,0172827890898539
0,0177404890788607
0,0201048598761427
0,0168134978310669
0,019378277564975
0,0175961646113941
0,0174309601458524
0,0200511152431655
0,0189878982183969
0,0184121629551121
0,0183748535916284
0,0171560477864833
0,0184516023718128
0,0153922967231011
0,0172159599682388
0,0178737048675787
0,0191095102158778
0,0167353344081824
0,0174892907249155
0,0170131418941498
0,0205076449174414
0,0170814313604551
0,0183083567028928
0,0174495001641664
0,0184758086654552
0,0186183317370505
0,0193530892601438
0,0162386886068568
0,018632988211944
0,0179601887320577
0,018999382355138
0,0185806882884871
0,0196344856494794
0,0177547671650583
0,0180292676136346
0,0158461452405046
0,019569900891647
0,017138736849712
0,017833588839569
0,0171383935651502
0,0170463608228782
0,0166823058216535
0,0192106444807991
0,0179634384671551
0,0178142142898672
0,0169741292690336
0,0171480851931447
0,0149972928188777
0,0164369504113309
0,0169196147033598
0,0174823689391125
0,0169634093157145
0,0182874316725431
0,0141952577941726
0,0176052296979475
0,0167190095416034
0,0173618144292319
0,0172279823523641
0,0200705923189646
0,0146740797834374
0,0174595349964683
0,0159284208404345
0,0177372544749979
0,0174015299871801
0,0179018362640028
0,0177914940975666
0,0191994753153098
0,0172482449044708
0,0167354544755977
0,0157501269879838
0,0179947797972238
0,0147618772872266
0,0179649963164736
0,0177981017802541
0,0197184930637187
0,0174950814149614
0,0173297042646537
0,0173255039901975
0,0201310855917196
0,0190418317244735
0,0180794334418112
0,0158389768592375
0,019674923203795
0,0163145692217942
0,019084180671834
0,0171064712477011
0,0184825737259961
0,0169372479221299
0,0190844534393407
0,016662059562656
0,0168663922039964
0,016486665922064
0,0182578058633295
0,0177397723149281
0,0183688450770707
0,017967249354064
0,0185784095901735
0,0160885207918487
0,0174107920519672
0,0157420675235249
0,0172258587938078
0,0135953449442223
0,0189942725517421
0,0156907939660878
0,0160322969425997
0,0158262297063996
0,0163423538456939
0,0161403834002061
0,0192744224625327
0,0155383135740571
0,0174332127368316
0,0156713740253362
0,0173075787534747
0,0141566237995087
0,0164563397664883
0,016562983133511
0,0168359998266987
0,0140132260917539
0,0157869725864943
0,0180598606181463
0,0182133884638351
0,0163272284048075
0,0182251264827456
0,0161007060845254
0,0167089026930274
0,0168724012024877
0,0159227183079311
0,0161353462315022
0,0182475975627841
0,0154554660632082
0,0170923347775422
0,0145454226421884
0,0186142147105836
0,0152025080236855
0,0164480057664597
0,0177490999313552
0,0175239173212796
0,0165898689680222
0,0172431095304546
0,0147633280487722
0,0181185433487893
0,0164344123232339
0,0170864110121957
0,0141821495041676
0,0177185961874493
0,0138729364243938
0,0198105205816269
0,0163650861886582
0,0158794058809516
0,0152860644039939
0,0191429185556869
0,0158768306185195
0,0179037028323227
0,0140666740826671
0,015660828413145
0,013990629756002
0,0166073186699832
0,0172319217709819
0,015898713437691
0,0162502268131758
0,0177169502654694
0,0146343101289643
0,0172486770441067
0,0122688254207227
0,0135233401437312
0,0154295836552679
0,015878349276233
0,0138461416657816
0,0152340509041838
0,0145947938104488
0,0166462217886389
0,0155338920271461
0,0153687081576284
0,0189834697603229
0,0191542721501481
0,0152517208401802
0,0148288513673538
0,0150112368997006
0,0154527650452551
0,016033768517987
0,0176123000757533
0,0139146085128585
0,0174624627361864
0,0135546048791215
0,016990244483522
0,0138522457708756
0,0149255188041964
0,0119372321138144
0,0139843895124698
0,0135655217355766
0,0189072629017475
0,0143459758232218
0,0153776432917759
0,0161518927011175
0,0168941421123863
0,012905882932258
0,0177950486978613
0,0142817953795598
0,0187370498684901
0,0202023607297329
0,017864516623002
0,0131320724782222
0,0162159010337613
0,0152197165844311
0,0167836967194284
0,016115210139216
0,0165378264404732
0,0157053549090573
0,0155542634063419
0,0135528362498361
0,0146305333554878
0,0132057620585297
0,0148750019933197
0,0134422041423877
0,016386025888366
0,0150736484827493
0,0151199251462246
0,0141662608810518
0,0155850265219945
0,0138613748077252
0,0149159732184432
0,0144128098446773
0,0150081654956644
0,0156400973202621
0,0162112034590184
0,0212926152760945
0,0162837701233576
0,0147116648181125
0,0133916658903632
0,014909098603989
0,0138655409173871
0,0135390197473919
0,0150638596320369
0,0145328873907004
0,0130006728611224
0,015543664243813
0,0126315528250893
0,0105379250456264
0,0142472657868227
0,0144804110154728
0,0146901434221567
0,0104427870706138
0,0132645528533714
0,0128364317291016
0,0156604159438757
0,0152005547618884
0,0138389928860047
0,0144468743602151
0,0109226169617768
0,0143123686971275
0,0114375489812722
0,0236918974655701
0,0241297777172071
0,0149348779344394
0,0153616807654267
0,0157640084637134
0,0189459686630386
0,0130256772978828
0,0134255635547719
0,0112189700814568
0,0136730572181451
0,011124116581117
0,0151770163365074
0,0124461204697473
0,0170783805439779
0,0139168930421483
0,0149133464858887
0,0119393024951046
0,016112671341553
0,0151597666105522
0,0137918814602123
0,0122393203580416
0,0152166649174075
0,0113908251235597
0,0110554595153332
0,013868741778372
0,0133213747439335
0,0121657893026413
0,0255444844809823
0,0189514867630007
0,0172389733796302
0,0147844488733581
0,0152883593356366
0,00952350648662465
0,0166767408218751
0,0134672898141048
0,0127304084914515
0,0102605977604622
0,0137932249791081
0,010800460247082
0,0135569127923282
0,0142367080383093
0,0146544992146782
0,00919199027053351
0,0163653175109692
0,011614413360646
0,0128672003635881
0,00891230650016069
0,0141371913643477
0,00875025387368268
0,0166667954501188
0,0104116871364669
0,0205583919400686
0,00719701119207265
0,0217783735583657
0,0297290881297969
0,0160503463984183
0,0151291901202752
0,0111090609234937
0,0138884311059345
0,012327055360303
0,0129279952764655
0,0148680204819734
0,0132903000746609
0,0106404794368138
0,0144603079964291
0,0112262759754691
0,0128337915957131
0,0138741704761077
0,0145507597989118
0,0124123095440208
0,0114315503602788
0,0120759915128624
0,0119890942578594
0,0109656091539686
0,0190075717768364
0,0292767462005184
0,0174174279029499
0,0155777468031822
0,0146748545275267
0,00851904064695371
0,038517370672519
0,0174206306419065
0,0220759029707102
0,0103619663550518
0,0172540158485488
0,00924408860150384
0,015292845373491
0,00897356658526877
0,0173420349878976
0,0205275714580349
0,0154685489099421
0,018138743643105
0,010931110284856
0,0128651744320933
0,0113282863923987
0,013531484105785
0,0108521004783635
0,0137428072281518
0,0140360637428972
0,0134385501669413
0,0126260937066122
0,00998982430577974
0,0129971251642702
0,00630941439789509
0,0176125688879898
0,0157475680510504
0,0121270846840862
0,0128281850726721
0,0170780937608048
0,00716233081159133
0,020649342788125
0,0322326109174383
0,011544609711611
0,0158731544253012
0,00629887131301666
0,0184606448814784
0,012934703155306
0,0153928271834294
0,00733967285816978
0,0150158948979269
0,00810139820484203
0,0130833208582951
0,0109298696964182
0,0141647535299833
0,00750296789250983
0,0141577044860664
0,0127163291973973
0,0150854177883243
0,0095086671564057
0,013165715716907
0,0148129267927573
0,0113201030906678
0,0345947301798794
0,0347335513621512
0,0313073397893669
0,0250745976477595
0,0210421077807273
0,0142786703686469
0,0138159465514903
0,0136356079244282
0,0129248124418541
0,0169145238860118
0,0125046087231442
0,0130517502323352
0,0136781252311835
0,0146784666833276
0,00860465721655989
0,0131001334454675
0,00971082950192808
0,0135324817362801
0,0060560843547636
0,013732001885466
0,00639092019265116
0,0176247968244409
0,00364775304305087
0,0277081896656797
0,0143324098215063
0,0237642343309527
-0,00280043091596132
0,0612340924275788
0,026758997024035
0,0254216443529536
0,0182191739515629
0,0142204272245708
0,0137417718944538
0,0110805423463325
0,012281077034653
0,0176749897878854
0,0110295500119829
0,0142727000456056
0,0109599939294429
0,0163892233810654
0,0130382161637479
0,00810609322089054
0,0212372638694576
0,0490442561431944
0,0198425642956099
0,0240268748235225
0,00176455955375824
0,0284737323007579
0,0401226010817394
0,0129851314699312
0,0199108336301928
0,0125317237101183
0,0141024417855292
0,0124862447636588
0,0130581165848141
0,0128097654470946
0,0195877085865871
0,0147337054033271
0,0135398376705766
0,0131514257811521
0,010870969797289
0,0201625547439753
0,0120510497576327
0,0256730784258478
0,0262763441216305
0,0102503582067895
0,0216159035257062
0,0154397258247626
0,0134782544284929
0,0131281868886046
0,0131428766121202
0,0103914009046514
0,0264123136665578
0,03051501186414
0,0148493804224939
0,0355578956529633
0,0253088274810539
0,0137562775940667
0,0214353313454091
0,0199788972443357
0,0337970163002837
-0,000200308862773177
0,0347820517271581
0,0390983724276401
0,0349425119713887
0,0389327292709678
0,00928925727480635
0,0214704166050999
0,0066269219827963
0,0218227799623707
0,00190274783663552
0,0425593693233401
0,00380531735842683
0,0293131606355651
-0,00068584466613033
0,0396530723550748
0,017051419292973
0,0269880954799986
0,0132887085326584
0,0158776575484827
0,00678916941743484
0,0406542332040835
0,00908571112793746
0,0168697412917134
0,0488076759336274
0,0421891845176504
0,0519103887588939
0,0196192958640378
0,0121286415730848
0,0632160447555987
0,0129136760297465
0,0275612775026683
0,0075122809299421
0,0268925409949886
0,00371849025685228
0,023943075905056
0,0567223441825065
0,0264450792596667
0,0161644407116865
0,0200294691944701
0,00756274067374859
0,0497629004928956
0,0220415154628787
0,0234194530834107
0,0101813758199049
0,0288344345772333
-0,00303260535558155
0,0924203169796827
0,0194976844900652
0,0515942681434993
0,0356490063637884
0,0449136151720541
0,0282736346840201
0,0297721592490853
0,0175204790603463
0,0420400309296068
0,0423319461475775
0,0294831491234709
0,00356404008310495
0,0482717686299135
0,0443513130957219
0,0201219224782376
0,0333283285193558
0,0172893606801273
0,014239567503597
0,059303880278993
0,0862241725048313
0,0566740122682649
0,0220185373091028
0,0255157014741566
0,0559273409839896
0,0220399180889686
0,0213692527946981
0,0156663788729738
0,0150777394829477
0,0151586381690803
0,0152390088421278
0,0366170249566478
0,0169989613274831
0,0290454090995269
0,0164722643377864
0,0241284995496325
0,0341914499032302
0,091634079763721
0,0626668927486858
0,0299597479843011
0,0763945015952365
0,0444581710075912
0,0421549766338681
0,0217716922905522
0,0220254641686412
0,0353478591999702
0,0279722386999589
0,0269890072528779
0,0156496878099962
0,0620567748157635
0,027694430533643
0,0496666866812804
0,0483989315584183
0,0301449274330332
0,0357612537221419
0,0185242685932737
0,267438491228005
0,0392232642721345
0,0720141652771577
0,0227803580992342
0,0706433534195454
0,101226625929442
0,0490537877265296
0,0338344511684966
0,0351961805979361
0,0264313453404464
0,0457322934181317
0,0449642898857194
0,0490716017427398
0,0546685368774511
0,0441692908455312
0,030861042985396
0,0718389653961676
0,114127824494474
0,120884145734056
0,0660936497434785
0,0452486806700595
0,0634134410898567
0,0668043138375158
0,0395415366678812
0,057304711174926
0,0289495084520923
0,0717689600824677
0,0996513718439403
0,0561186521767102
0,0549763742486567
0,047399345325692
0,0927327702748492
0,0307153885290562
0,13696747937543
0,0689774890641909
0,0832481658134523
0,0471649808509239
0,0641593753488516
0,0514619400913264
0,0508563893127825
0,0943184721768092
0,0731946647008594
0,0669034005422298
0,0610436781864894
0,0625528263058831
0,0599892424496924
0,0642375738509136
0,0704798007475756
0,0595802569442859
0,120294424736252
0,067480459042624
0,306011789470028
0,0858741465512013
0,0838766327185728
0,0634051660523566
0,0752683084338869
0,116743848683316
0,0865629794341705
0,136304175672101
0,0978841552222823
0,071728898846174
0,0718593604500472
0,0634568547704459
0,0714947077869143
0,0617351755485307
0,0790499653333307
0,0509800063888839
0,118707386512523
0,0513509872554455
0,132584667202248
0,117840227850308
0,0852580618415476
0,0602024779368963
0,071852261739733
0,0585062161768353
0,0721111987383487
0,0534749984219072
0,0748712523005175
0,0862876742237005
0,0650941344972132
0,0709771964850748
0,0485537758585866
0,0934442457382729
0,0841200694846664
0,0628337763702747
0,0703720223638131
0,0527073528143415
0,0712427267322989
0,0430261141783633
0,0843512516355104
0,111437906961337
0,0688543439994771
0,0629956976811204
0,0553868316198636
0,0548455140446422
0,0541357185871403
0,0532976237180575
0,0659368042976714
0,061823574984328
0,0564484787534073
0,0639787802117754
0,0548346835082553
0,0562671299567094
0,0539934078784506
0,0634776893802504
0,0533030866100408
0,0603081358669423
0,0529537807593273
0,0585873552414815
0,0532857093821306
0,0507894387231468
0,0575950447188241
0,0574357534906218
0,0604912773954541
0,0576509039143342
0,0532018091188972
0,0558498584072767
0,0519226704444938
0,0566474790910278
0,0544084885818467
0,0550512669631853
0,0553149270829364
0,0548439652127877
0,0530847484749096
0,0552063470305428
0,053400699407761
0,0518598889793636
0,0508212023385978
0,0532494317099311
0,0537476945738287
0,0528809993526705
0,0648069694721795
0,0413216108096198
0,13160650202177
0,0700291371278648
0,0595126144425924
0,0506820763513617
0,0538600843907199
0,0518841462246783
0,0452502838485608
0,106297434360883
0,0781487869072414
0,0544181100542953
0,0520109777466533
0,0442917705202116
0,0697885122228454
0,0584538004107334
0,0461238843171228
0,056642902577195
0,0299300233918373
0,121013074443266
0,10637977841019
0,15353857246369
0,142026727869877
0,0788839259019377
0,0431788884493976
0,0748145182037196
0,0921710094729394
0,04699644035966
0,0549957233975008
0,0363737904294953
0,104890274152666
0,0562071046264828
0,0470711327338722
0,0467899043537425
0,0384555471531148
0,0728547467340253
0,0845536494802371
0,0602435541001273
0,0850365004892018
0,0933178233519963
0,0672548832137497
0,113863553722271
0,125799944641891
0,090114950253997
0,0418542875383623
0,0504059518812789
0,0412404368944391
0,0566120119622066
0,114724025314352
0,0521636215142055
0,077399619733698
0,036558665283901
0,0432946473765134
0,0453219176596448
0,0743679979611538
0,0551538858484869
0,0541581038092922
0,0946631407635365
0,035581474544511
0,0709687327488989
0,061086487510438
0,110194635609563
0,0992080884422848
0,0619188519378848
0,031804766306357
0,0918634849396203
0,0900887377312066
0,0595649093705169
0,0691028238670734
0,0336251854937732
0,0479127941501408
0,0738659801545868
0,0397833522170232
0,0726892566454771
0,062057997841815
0,0832208637441879
0,113612088368697
0,118010322009075
0,107506789317645
0,0545177441803045
0,0357993784267099
0,038919480288353
0,0390866273116323
0,0472482974197415
0,0257342175524601
0,0833191153082211
0,0425331693028673
0,048284852267861
0,0965725289887698
0,0461871681692064
0,0379501594149265
0,0387423882899637
0,0310408613663867
0,0508140938608763
0,0710137809727708
0,0997040633023147
0,0591629998031813
0,0593924952956533
0,0668004884139792
0,0446869170524144
0,0470592322041855
0,0399198281091126
0,0419001502036235
0,0422107833482815
0,0596730590593209
0,0479268467901706
0,0476624043229999
0,0520850778942593
0,0444830964284286
0,0822761916053288
0,0832676242193341
0,0464018153289137
0,0984476087790064
0,0733531960637053
0,130701937296711
0,0685371274652737
0,0638593941026435
0,0572306098715753
0,0573437705330656
0,065085098402281
0,0559541235692441
0,0771873952564856
0,103117035173288
0,0620536047039482
0,0692749947074818
0,0582772830151581
0,0684850986623597
0,06448004838027
0,116323389454707
0,0836551258660441
0,155049588153432
0,115851685539546
0,102490858319803
0,0777322008779059
0,0702699961388055
0,0863470217108748
0,0779699374413003
0,0717863670584938
0,0689852289742885
0,0723372935858876
0,106446755087443
0,0744243457524662
0,0790922374461004
0,0706680420696248
0,077152606586483
0,070904708436218
0,0760834070340528
0,078749868901092
0,0796085384043874
0,0782792152725505
0,0778272591195409
0,0774438049031153
0,163587896111685
0,0960090326999348
0,0907764904972809
0,0813314495554448
0,0892004841431674
0,0817986805700943
0,0829511132950522
0,100345797467496
0,0962329327707101
0,0870881852009104
0,0869384019689089
0,0824668369142841
0,088551751709032
0,0999369295532435
0,118582862067646
0,0801919505029808
0,10692486181293
0,0745318187355068
0,133017380500422
0,127452825788138
0,116279033260275
0,113176295489656
0,101073641508194
0,0991436609166933
0,0913678503434398
0,0918385155345929
0,0939332470079057
0,100590460390805
0,0950655435179738
0,0963197407790646
0,0875042764267057
0,0947462873291154
0,0912696508179592
0,0942891028596907
0,123549113340087
0,0939127534880124
0,0926498069780311
0,0897787673617219
0,0945502621669228
0,0878759456856825
0,118272541348842
0,107316561690289
0,101495850035866
0,0992768847715869
0,108834449822877
0,120089577422624
0,1081552392207
0,0844017165531054
0,0924834339041416
0,0842118812622435
0,095757795517394
0,0862768662621584
0,104493346247777
0,115876833536024
0,102405666233889
0,0956120776686091
0,0907565535603139
0,0897641082646397
0,0908560764965312
0,0890603190027165
0,0914501371040004
0,0951804783579159
0,0964705660824577
0,100721943800142
0,0938700647091821
0,0971587133703005
0,10805100744399
0,111841522001664
0,113278545403725
0,0946607350767714
0,0971080606844521
0,0922352076453775
0,0965438062471339
0,10507063954095
0,0953819800365515
0,0896002660744216
0,0919825557507101
0,0856908760206945
0,0947473330557792
0,126760424490103
0,0965965029273425
0,100605096418859
0,089998961659782
0,0838850295942056
0,0858077057783317
0,0857705830913785
0,0850070336838939
0,0805380676529739
0,0873653935380378
0,0793046648991795
0,0807018843318513
0,0802740414886445
0,079116805336202
0,0777067156389081
0,0833637565217752
0,0781499928779122
0,0796798149903694
0,0764986215534606
0,078431396936365
0,0760364397682724
0,0781186073918185
0,0790124217238051
0,0785925797283364
0,0926821629053375
0,0993365043877762
0,0965122166465816
0,0835416250865747
0,0819371941001771
0,0847033408774484
0,071774527893649
0,0778290012593993
0,0726512945528617
0,0790520294839257
0,0775409715294584
0,0778076777143358
0,0753023800377176
0,0757667855037592
0,0739171524139993
0,0774447369736093
0,0735904240340359
0,0769914858407867
0,0733921776859858
0,0744693199816008
0,071156460343135
0,0769476099216601
0,0735596289686647
0,085508626326905
0,0775751749714403
0,0800796133212464
0,0800700205722649
0,0754088713717668
0,0778328783103125
0,0758126478501788
0,0759529088040923
0,0769873943158389
0,0737453189385567
0,0749469414526559
0,0734995746026042
0,0760516077628997
0,0733574304568412
0,0724795702872662
0,0718814481054743
0,0736274863078363
0,0725316374349122
0,0718322053952153
0,0698097930376975
0,0689423798511381
0,0698482333312994
0,0715786415639893
0,0647404345374306
0,0692589645181895
0,0670468429851569
0,065498703583937
0,0628670576093479
0,0651089472051105
0,0616402195969962
0,0629367821229147
0,0627805176667804
0,0648060245862621
0,0647893260141095
0,0655206388316762
0,0636983708412903
0,0617174977380296
0,0626192731806142
0,0619303851368796
0,0601709066515852
0,0636974530038479
0,0646754795112317
0,0618928098919047
0,0615738065293706
0,0637049265573134
0,0608438742480431
0,0632866492348043
0,0617915276666953
0,0633734246763893
0,0628057233459057
0,0632095668644867
0,0639992443210552
0,0650242945913964
0,0634404811779094
0,0647931820704462
0,0659360993216746
0,0657710272583624
0,0652476290121329
0,0660931025646241
0,0639649517946898
0,0651581229670259
0,0640149477351351
0,0657436576911336
0,0664250579271706
0,0690587056385683
0,0649205211068697
0,0663717736282998
0,0668608078581241
0,0667009476500477
0,0638764587013882
0,0672046978938839
0,0658824353130314
0,0671225091859518
0,0654768535500134
0,0671402940620756
0,0655246206842896
0,0643277680220951
0,0640077343130084
0,066603652060983
0,0651178990669785
0,0652744645333474
0,0649632648042898
0,0666431969690963
0,0648931619147543
0,0651052805659986
0,0647371920005818
0,0635250192717327
0,0623700036239573
0,0643634725066497
0,0618483089708974
0,0622087107781795
0,0626933858919783
0,0629969022485402
0,0626728993258008
0,0622789433674404
0,0625678182751004
0,0630240422870745
0,0601123900742725
0,0593492525931626
0,0587927085356312
0,0606910794452214
0,0592294289465391
0,0616006569680213
0,0587379249523168
0,0602262634086417
0,0585065369954432
0,0586364466712274
0,0594364632426612
0,0584552343114665
0,0585186380715213
0,0585589539859487
0,057713052173181
0,0589140459539617
0,0559222737032185
0,0567842762242966
0,0575915914306461
0,0553650728625254
0,0550585688393315
0,0562539495976406
0,0538765634403889
0,0544879124291145
0,0545217732764827
0,0564062732456796
0,0558741394378539
0,0547262347689336
0,0531933346120667
0,0555320847848326
0,0543664937751379
0,0563578948554572
0,055024095704143
0,0541525427136146
0,0535766191595401
0,0526542962670495
0,0525987324149488
0,0522116099301386
0,0519189835416719
0,051523391751261
0,0515934144029298
0,0501038241209294
0,0486427225979969
0,0499777139967528
0,0491329342091626
0,048680201166705
0,0487324442719447
0,0503914585484016
0,0516064935794662
0,0532186234594321
0,0515731244022296
0,0526321571167546
0,0549092537565825
0,0580502361322769
0,0612600398304102
0,0636350534517583
0,0654916848626683
0,0703437907441107
0,07202329166993
0,0759038647569119
0,0787692879807107
0,0830766603262392
0,0863176005488552
0,0896283893346393
0,0936893350942013
0,0965036887775559
0,098950568945918
0,101517057219537
0,105853358429595
0,10998994679876
0,114120976108923
0,117227132155553
0,119198157473486
0,122201042332762
0,124498263666697
0,128913243328855
0,129479916318861
0,131236907966561
0,132603051145514
0,137715750163857
0,139418870090093
0,138973000167229
0,139225824208859
0,141746071681236
0,139809253315267
0,140229245676754
0,141381809470351
0,141822649603154
0,143869867658386
0,14168806952995
0,13898593911891
0,142498241333143
0,143294745433041
0,142027340940909
0,139343343547665
0,140757975126034
0,141032477566255
0,143144435287511
0,142067949410892
0,145109987957817
0,144002674260108
0,144721035013444
0,146056784972117
0,146397946057974
0,148583379048739
0,149720782522021
0,150746946993974
0,152813980513803
0,154339705805365
0,156374775660247
0,159488350640216
0,16219263521639
0,162598399514347
0,166988262185758
0,16768049344524
0,170719131684496
0,171844245431743
0,176018587504608
0,17360823145846
0,176799888232915
0,178565970271044
0,176736245638633
0,177888840287053
0,177210701250834
0,177519877407052
0,177812285975006
0,177299324766331
0,177708555509673
0,174901370785165
0,177076717504442
0,177118495085889
0,179382081469974
0,178642382292673
0,180449066228876
0,18176652583883
0,186288244648655
0,190080304057904
0,192266870487912
0,193333957623767
0,196204273052255
0,20062483039887
0,204126168570154
0,207335097813205
0,212448398871676
0,215479227672634
0,219728646216233
0,220368422271383
0,227875869495949
0,2281039132521
0,229015333300525
0,237007380332685
0,240640453228645
0,246457133555726
0,248660361310317
0,250870236331274
0,255932557404538
0,262851524313827
0,268187058533737
0,274126987175976
0,279348378623784
0,278860694458212
0,283207333628643
0,285955823928668
0,286619027389638
0,291105891432408
0,292279676865353
0,29577917318383
0,295569466590055
0,295233199477844
0,29805063129091
0,295206326442998
0,292537811091055
0,293121695455796
0,290437799783226
0,288030431540959
0,287835044576008
0,286862744455921
0,287344956240373
0,280801256323333
0,281432811545915
0,280829057850293
0,27864783919158
0,274637061933392
0,280377873664721
0,282561094759481
0,281299913610705
0,281461958092785
0,283787955016769
0,284663585887706
0,285012137703751
0,290567341384827
0,295093870155482
0,294064614053144
0,296905000490797
0,296212001770099
0,301552363672075
0,304062549090509
0,304206996034537
0,30479426800496
0,309300341364062
0,306190152013665
0,309844332412987
0,306892410768934
0,305981252010731
0,307551813625436
0,304089391224337
0,306572587719214
0,304858416054592
0,306458219670158
0,308012404567067
0,298682803322207
0,300769515373714
0,301526808122288
0,300091029648543
0,296459940797111
0,297060411956148
0,298538445629704
0,291945048928931
0,288175323811461
0,287587831197508
0,284762725791856
0,276543675353531
0,276061096192072
0,276133380883488
0,269624959031559
0,266611412437267
0,262069333208966
0,256056135354358
0,246949273537192
0,242297107657713
0,232395753400822
0,226055610631499
0,217060146319385
0,213890509084635
0,205594688354554
0,195238278337223
0,189658689436428
0,181024723614669
0,175041301375395
0,170145841053438
0,16479468762522
0,158288827481755
0,156285390152951
0,155141280289406
0,150074550190242
0,147556107894192
0,148809131837289
0,14419657255854
0,142816806843264
0,142648333982824
0,138785305952306
0,138586145299235
0,136770565982888
0,133062327454413
0,131008816685007
0,126047036251461
0,12383204342984
0,125069137430901
0,122770198955133
0,116210725477376
0,111222319914183
0,106564068341606
0,104214358238528
0,102217284859497
0,0969357594688576
0,0939046789815018
0,0868584354826241
0,0855784146844818
0,0791151123697362
0,0749199973956877
0,0722898980763047
0,0696828793872238
0,0652978520167947
0,0637759301741033
0,0595910893120227
0,0547069113890296
0,0509387882689177
0,0503774107813748
0,0480817100449031
0,0474871220836622
0,0462203322004813
0,0443320243997153
0,0406007392647348
0,038862086955293
0,0408157886720209
0,0380823192060802
0,0360605773510473
0,0354419353931644
0,0352790605409341
0,0361390785387505
0,0353215414402787
0,0360578163914515
0,0325813082738296
0,0337578552002288
0,0357613229051605
0,0355412160988504
0,0335265439142522
0,0364346176572861
0,03474515245113
0,0359286844808811
0,0382192290653345
0,037099882144731
0,0347528613384155
0,0376969868880482
0,0384390290733617
0,033004018674824
0,0347566782111041
0,0392614536906971
0,0402954796577661
0,0355835037070476
0,0374927563929453
0,0396336826666178
0,0373333777848129
0,0399379510570111
0,0344358155529879
0,0361515768264165
0,0388996247378547
0,0345268753183728
0,035910643778005
0,0382724903311114
0,0413511732590668
0,0368793488029896
0,0426129414905649
0,0417329173768389
0,0343554220757441
0,0353452278365767
0,0397479040312322
0,040186401184063
0,042879508133118
0,0428183444675442
0,0407939306614587
0,0431277933203549
0,0411861079238652
0,0411309086053357
0,041764696182063
0,0418244942689416
0,047722091583086
0,042740629593383
0,0456301907298745
0,0412269413761108
0,0445724633375541
0,0426377392578813
0,0406837572757396
0,0436631690714947
0,0397654773774026
0,0459875665521246
0,049894417952266
0,0425164831481737
0,0426015144100782
0,0460934327694941
0,0517735871571494
0,0501807506400138
0,050957339596376
0,050640077690991
0,0533225066759198
0,0498220990249987
0,0554815726737841
0,0548474802873214
0,055783464035816
0,0558895003460793
0,0568807986369926
0,0561767290637952
0,0510273665271346
0,057256647082626
0,0564571497022264
0,0554269364893987
0,0471941621339617
0,0465561201732048
0,0521321432508469
0,0517817356513504
0,0540529694967991
0,0463161043449216
0,0488234470755847
0,0417578608164509
0,0461092284060737
0,0483021147796608
0,0500328508618625
0,0493333830097639
0,0497758367572556
0,0483835099872314
0,0454207538309585
0,0511990298323127
0,0429830238063483
0,0432106192787191
0,0478431597029783
0,0439126729024258
0,0422473986164073
0,0422659358592491
0,0445315475882025
0,0420847750739743
0,0481447751271133
0,0421356449975911
0,0438019621328964
0,0404782367429399
0,0419928427549593
0,0452792517671606
0,0408826823886423
0,039056618334039
0,0446366854113968
0,0435673095175933
0,0421722253922202
0,0478835937735271
0,0368802371061717
0,0274990459246994
0,0427708229191765
0,0410295137721423
0,0435336548381602
0,0403398697985535
0,0461929478290046
0,0401132243995708
0,0419844913247041
0,0391590166979641
0,035849061195765
0,0385876655780508
0,034515324042401
0,0378484807315915
0,0341172092364535
0,0338571054591706
0,0378931579199952
0,0329829445431668
0,0385146754374188
0,0259924119910583
0,0343113146621169
0,0389919224732114
0,036767169432352
0,0262380928885224
0,038185524267892
0,0313883751953766
0,0350725153525522
0,0364972057669123
0,0303149939809528
0,0365171239819467
0,036002842693467
0,0228271021893587
0,0406751959395225
0,0332008105459791
0,037931608266847
0,0283723112851486
0,0356967386245415
0,0382014445797461
0,0407227996685477
0,0366016710177849
0,0357698343696275
0,0349256364639825
0,0320778474098165
0,027356293793513
0,0383761614098394
0,0335135031643949
0,0348336833793239
0,0372627213885648
0,0491569366800583
0,0369620400695598
0,0354922019966902
0,0446372320946265
0,0382024948379406
0,0421272202101729
0,048894069372302
0,0429734928734212
0,0455348512045001
0,0538683803328616
0,0460595791845189
0,046816288918961
0,0487869190773577
0,0518650774274139
0,0584914660089678
0,057413012785493
0,0605688296044077
0,0576198947013146
0,0623837931173102
0,0574708935392292
0,0704990794892152
0,0740055888844216
0,0744639916003377
0,0661470082334857
0,0735817208449801
0,0731615559450253
0,0802662436293297
0,0678512506879718
0,0810141773568797
0,0639177737075416
0,075449569187772
0,0649240647851645
0,0627813423977415
0,0762571909424748
0,0654107327261921
0,0709869854663962
0,0786186367197329
0,0543270461955048
0,0553225040012328
0,0603831078986109
0,0746494323937975
0,0667304371093532
0,0578264011181278
0,0664749884237963
0,0608689533475338
0,071139946496957
0,0750714050309962
0,0631489876631811
0,0575343079760116
0,0597029888885439
0,0588737226745889
0,0688719091880761
0,0641141761205096
0,056090905093892
0,0798644150752119
0,0578069199393102
0,0669258828663483
0,0517037225481701
0,0669007723283754
0,0618843603830131
0,053139570256715
0,0643182465262444
0,0455346486291887
0,0607751649327488
0,0597729776693222
0,0505913548603485
0,0612871664698417
0,0556102373718577
0,0551784480261654
0,0497415219042009
0,0745400384486504
0,087625910869401
0,0655720670642457
0,0423327615719635
0,0784960386769772
0,0649216000154193
0,0724549422598333
0,0639911039742525
0,0595331262476524
0,0504840786591639
0,0611840926633561
0,0539337035629484
0,0496317032751894
0,0700554429304353
0,099649214355857
0,0660213606990492
0,0840886849700256
0,0774051324280371
0,0638988535594985
0,0645776392481241
0,0245693585704626
0,0534985859162177
0,0683603561525287
0,074411509598813
0,0873888803527935
0,0821470968929226
0,0967212338310262
0,0558191133314615
0,0362786301266709
0,062611329147594
0,0587008242906651
0,0729391477289337
0,0858952825251876
0,1093967302635
0,0823227587728472
0,0765425729182259
0,086977874540246
0,0812947295063863
0,09737880426125
0,0880476510651259
0,107202321709631
0,113111145843795
0,0957842498548292
0,0695724066727667
0,0873021219055501
0,0912233584103361
0,105211973977928
0,117020543279582
0,0768955378386222
0,0922447547058622
0,0872332794825528
0,102766937697275
0,0917384214047231
0,0690286752441821
0,0596754805560339
0,0680617480534915
0,0795656241459416
0,1161132776811
0,103178924030973
0,0711011318807563
0,0765296148018107
0,0930790717548147
0,129327695083773
0,117631863936539
0,116421257371465
0,0855166032504245
0,112138207932005
0,0694613996717558
0,0832147250312322
0,101158919023842
0,0971286197176
0,122263826742634
0,0652232088801438
0,0823890076484662
0,0329953433015922
0,0777303566797281
0,0826102938187514
-0,00110882449089216
0,0883461620099079
0,125758203140955
0,0477115675894225
-0,014193708383019
0,0550315851923366
-0,0196967825662113
0,0897188333602901
0,0679831548683761
0,226609268810119
0,160579671775806
0,103637259238757
0,101960650025659
0,0771392727116262
-0,0233758497078121
0,0111379517751441
0,139367761943332
0,0579306659619891
0,0874442729859882
0,112004962385018
0,184459561903533
0,0550503643643189
0,0608277919331579
-0,0299009941886393
0,0620220032682243
