3596
4000,36533379555
650,420452594757
1
2
2
0,0637193863436139
0,0600718492205499
0,0685723892257105
0,061606491253438
0,0671556163001205
0,0565548522511752
0,0681371520678715
0,0543937030830272
0,0563072669049097
0,0606052885224449
0,0680508318524374
0,0599897874915277
0,065841793025313
0,0581031306489946
0,06231349062558
0,0544556746346478
0,0591288584598204
0,061601526899707
0,0718971194765537
0,058709664238058
0,0582313318588446
0,0532837677481161
0,0509657873898762
0,0525392263169661
0,0610426103461322
0,0595883251386645
0,0636123335243061
0,0596533712503244
0,0692227187904695
0,059798766236295
0,0637708616843867
0,0573331773937421
0,0655556515064993
0,0520268032789147
0,0548545201444517
0,0545323882498364
0,0627936874094694
0,0545882493437687
0,060406543031431
0,0564097404522417
0,0717826798100552
0,061179838725482
0,0608627886433255
0,058655394018518
0,0624632509079691
0,0655752843251332
0,0602439078142286
0,0587859178463844
0,0636591345766847
0,0556891505567993
0,0670098682603729
0,0510708108560344
0,0709783410269832
0,0683091795584576
0,0655804934223734
0,0801889840311772
0,0759273441788199
0,0597388415572379
0,0632762370046649
0,055767576377427
0,0781393838115685
0,0844066506599194
0,0640956257145302
0,0576775426394912
0,060708009143748
0,0636760540936086
0,0550990960849486
0,0516783240485568
0,0566879927776367
0,0604813250071646
0,0620008574606705
0,0724336395410803
0,0906507795749054
0,0556859237068675
0,0751747707534482
0,0685162254522661
0,0643001910490694
0,0594078107536464
0,0498838581429897
0,0632262658327669
0,0832857369669765
0,0678657533680099
0,0610137703444471
0,053287287998115
0,0611551021524825
0,075901663423204
0,0578663687656492
0,0553353861133649
0,101442116201229
0,0607071949265332
0,0582911974860822
0,0539462655252097
0,0575882175548284
0,0502395428546008
0,0625534850483603
0,0563160007880854
0,0611722915123269
0,0538745345517514
0,0607553731752942
0,0487634353631629
0,0851723347823689
0,051105874824791
0,111455241656139
0,0604011356876136
0,114424175777576
0,0932674435621691
0,0479862894296786
0,121886734391213
0,0831806416352911
0,0678698476382666
0,0600268553146205
0,0582207096647673
0,06276872188783
0,0634275658210537
0,0580331233876657
0,079460616818467
0,10352058196373
0,0571665654743245
0,066449918412791
0,0517096272095206
0,0473183705234133
0,0685769643083089
0,122967320190995
0,0567990578298674
0,0826106861851097
0,0567697860889793
0,0657622075375972
0,0890728212958339
0,107092290742694
0,0558888890594243
0,0705408210943599
0,0512443092696366
0,0599144456042581
0,0387316319093635
0,121414621676838
0,0733250289797915
0,0589975387221118
0,0500172328691602
0,0745653350312174
0,131429641586095
0,0864871796237275
0,0567328717220864
0,0608355733285967
0,0534375655072229
0,118405581565299
0,0737012700155384
0,0584004842277199
0,0781129790515074
0,0867592018354524
0,0524609168185428
0,0608080112713778
0,0446562573520667
0,0861786999352141
0,0651528947148505
0,0534599543367599
0,0724265765829419
0,173483936411742
0,0707002063972405
0,151705522934513
0,0694674150156762
0,0806245668129543
0,066175997353245
0,0571126984622535
0,0519643603424258
0,0514760085612057
0,0461916732855303
0,0693742489473907
0,0961249531165341
0,0564952411782242
0,0681828200482506
0,102905404947955
0,0805250763020929
0,0570023537040287
0,120441957841587
0,100721303007646
0,0459163870026126
0,120628232235584
0,0765348766478064
0,0543092004922588
0,059007441145624
0,10326598076564
0,0620720437149846
0,0665251630210806
0,0490536133506852
0,0671108120848181
0,0731035511780816
0,0768457918781432
0,0542262452588251
0,0683951855862586
0,0391132849057927
0,0852769909365267
0,113613646463079
0,116765817484643
0,0609537496112034
0,0679286729112725
0,0315927452734841
0,0916873021116359
0,109986776819921
0,0628403004601293
0,0561252174290988
0,0551670383799626
0,0542060449156177
0,055330995459556
0,0500982429765128
0,0551076234094165
0,0287467897056884
0,101166795530401
0,084285567248231
0,0655662188862201
0,0583179926254954
0,0639648175305332
0,0595857926285244
0,101531650205508
0,109437313345261
0,0698130012942313
0,0673710199790821
0,0517027445210158
0,0774935794284403
0,0920755462792184
0,0528392482384636
0,0572695800305706
0,0541173180556718
0,0560964840148793
0,0486655440331011
0,055119874154786
0,0488815369495249
0,0583294389329366
0,0580875510351617
0,0592361090681215
0,0493405416719145
0,0649163696344894
0,0612760235006852
0,0684759384689144
0,0567742738096018
0,0526125499233328
0,0563311184584836
0,100657333419496
0,0578786856003518
0,0647063723357472
0,0538602772889724
0,0602563210347555
0,0476366531390001
0,0534234851555728
0,047406466701157
0,0524525303509473
0,0436956200270657
0,102453046737935
0,0674962042964141
0,056377138113273
0,0540565773257739
0,079602191265794
0,085657608791607
0,0601949278905075
0,0558384116416959
0,0517442802075457
0,0491173761710579
0,0549315894954907
0,0993566129237173
0,0717996228004216
0,0566027525767652
0,0761515492548081
0,0685851201064408
0,0556192450646043
0,0614809309794866
0,0429084260802199
0,13321755707819
0,100618315758479
0,0431411157232892
0,143187533090441
0,097284090234577
0,0780174655818829
0,0612082139215862
0,0234907906076631
0,160700381049156
0,138664356490911
0,0684857827231911
0,0730861375332291
0,0760720958770524
0,0715174130934093
0,0549389640705385
0,0745729413842495
0,0658849761668015
0,102827997049215
0,133167546361597
0,145189623888512
0,0471795781780825
0,0823167775641361
0,112813600661737
0,0609607402735386
0,0574447067484697
0,0536209567631857
0,0593803465289106
0,0727970072087359
0,0810511829221802
0,0840739666540059
0,0744712937735633
0,0535066023154947
0,0966127851327896
0,0772131058449942
0,0572558816491815
0,0738542904363089
0,0765925946542648
0,0592370143591019
0,0606981599123769
0,0549516575863023
0,0659055747939356
0,0576337710501414
0,0493019112746751
0,12535861099359
0,0836327796997868
0,0587312348988777
0,0956633192397523
0,0733720875632732
0,0573067718528584
0,0587862680908178
0,0492537127894703
0,0567837425412253
0,0477032904756851
0,0453807976278092
0,0817456257104754
0,0724073544891699
0,0503998835908445
0,0563212185197602
0,0483023089815579
0,0559359016377075
0,0460120821278256
0,0532853162549437
0,0502846387843704
0,0575038490776566
0,0478279977177944
0,0782367207062102
0,0974085215411879
0,0491789592097583
0,0744363693046991
0,126312149623755
0,0623027703662147
0,0574582044273787
0,05167933635926
0,0672320109996188
0,0446633208544552
0,0547265883736559
0,051201760939265
0,0637831249857805
0,08013260050428
0,0672605509060975
0,0521361512179417
0,0681059745212166
0,136105129950773
0,163016499056839
0,0840682021177727
0,0690008531131552
0,0422512841997441
0,0841078313066082
0,110046201400628
0,0860113556470751
0,0978213513840616
0,0653683484949767
0,0604071019341066
0,0541988148965183
0,0543978632738651
0,0536584624779349
0,0563256572443168
0,0652529923853461
0,0598398831202735
0,0631546388881117
0,0515421832891152
0,0600144282195981
0,0590305869281713
0,114355681990543
0,0768615248028979
0,0633882372084612
0,0631120402570234
0,0525618930939734
0,0831662912896866
0,112333118660403
0,0936943720914555
0,12689534140045
0,0929118925150219
0,139437042127445
0,0801964039607611
0,0689878722897626
0,0574845788368048
0,0744630889988798
0,062821420575304
0,0652246532323163
0,0592702824303698
0,0573158427072589
0,0579489112422317
0,0781918107510264
0,0572696471681147
0,0665472818759362
0,0556750387048424
0,0966068444875906
0,0767862948412466
0,0695117696242946
0,0653525100823957
0,0883947409958895
0,137136403014379
0,134602154964812
0,0942731514774139
0,0827742385970542
0,0763826534275376
0,0688336141185208
0,0804536628469656
0,0649795978629873
0,0758932856354258
0,0824152686999446
0,0979751218169602
0,10915430252746
0,0968432562719845
0,115121518151492
0,0703104566585255
0,103396056482002
0,0961338439689153
0,0911815653272897
0,115955239455603
0,100895046274451
0,0736646198393423
0,098414204150935
0,119398051942111
0,0995689456044119
0,107303573106921
0,0926807227287599
0,0771724570776139
0,0856386423565078
0,082465187633615
0,082599644670499
0,0940501425894295
0,105063866420339
0,0898856162830464
0,104797191451523
0,0825398814370277
0,0930811688859022
0,0996056028806709
0,101640433469292
0,0913513727999628
0,115410258925631
0,0836452601947384
0,097126340356582
0,0862111032375619
0,121479564575575
0,117665997355017
0,116599600130121
0,140441135194111
0,117174547781987
0,0995257603971586
0,111304828695464
0,0975434742805208
0,0986588004624222
0,0901196354947304
0,106519145845562
0,104065386716081
0,109465723904046
0,100419686618335
0,111566254484496
0,105387692743487
0,121526619453551
0,107438699069115
0,116112844400018
0,110623926919582
0,117195795163422
0,110495222947679
0,155786596999341
0,160234876379664
0,160318852890391
0,150131853175725
0,131436331531672
0,114126239056786
0,139790017394982
0,116865925048293
0,124744286524109
0,133735238779844
0,135372354898593
0,122445876623118
0,140726503681538
0,130703202575459
0,141006950748882
0,124101101123376
0,150407717101775
0,152657489211172
0,155771498378254
0,132764964193582
0,140759577886147
0,13813889198547
0,154962659653527
0,157529456252537
0,167226676950334
0,156954529782505
0,163006996391537
0,144766902429289
0,144188222438
0,146950084171524
0,162035310494607
0,149138033996861
0,157665822129745
0,1521819396406
0,157702927065124
0,158703004994967
0,167110713977968
0,148057142594704
0,17190363265722
0,165882350515258
0,173106428478519
0,157736117898502
0,185547100983596
0,178181871680052
0,18661100768581
0,180675037827122
0,188180539101113
0,173580865482923
0,187459616926722
0,186318695910799
0,196382498415642
0,174711769948114
0,180683218769672
0,17953461100112
0,193749237946366
0,180074295522643
0,185903176025535
0,172827554420125
0,202715733749128
0,184215611635143
0,202000849365948
0,206243960085206
0,202616824827335
0,211123477027213
0,218791840904895
0,192164404388656
0,213800441341252
0,198424010403176
0,214038043162638
0,216816715679011
0,226261055384448
0,20444519987682
0,230197605088951
0,213170729793301
0,205311801952403
0,208827224840445
0,225445355505556
0,209562440722198
0,23428278399551
0,224869210797335
0,236847641048937
0,217232204339304
0,243137986505624
0,229227311161728
0,238753979754127
0,220690182433307
0,239507951596486
0,233685361531754
0,246841073828077
0,243918151065784
0,260312191042576
0,238211918683434
0,256362792405714
0,258876594959566
0,260891874464777
0,243750058309692
0,256039947459874
0,241937616130097
0,245905897148221
0,238234420289651
0,263040061219119
0,253403598428083
0,266942236291121
0,256625319726358
0,25790439914843
0,247718196678117
0,270183229499024
0,252062757813099
0,264707195550814
0,254945562598472
0,279925933121234
0,260043061239558
0,283939360622328
0,265818175145006
0,286755947204283
0,269422198809618
0,28182045810426
0,270609119601107
0,292296766479336
0,266171966403236
0,2774551343065
0,272819472197878
0,299773329884283
0,287639386225798
0,281336288024933
0,290637506158923
0,290019862568355
0,275837589309371
0,291669980748702
0,27476466569122
0,300962203236107
0,298533152254579
0,300172311958027
0,282912863217044
0,312636401932606
0,288259237562095
0,309852701313252
0,294554531661512
0,293383161769969
0,299176294680093
0,308558277935852
0,291001364996831
0,306464320959967
0,299321645731104
0,31444520639628
0,295208899315327
0,317084455077224
0,294943483224737
0,317690770272447
0,314161792164419
0,321904310554999
0,317903271180027
0,315908447613496
0,312127050656894
0,328529042832069
0,320699030079329
0,332660929821151
0,305808796590462
0,325987094008504
0,312523519203327
0,334398634815811
0,319305906901544
0,322316880927879
0,310928469877052
0,33492660506542
0,317463593422551
0,323868566631961
0,319311449394508
0,330510535521237
0,323368981969254
0,334323639677243
0,324611765041237
0,344309142647567
0,313820508750059
0,331306077996376
0,319783436354142
0,352312574570027
0,333740278193107
0,320823918213619
0,30630644861845
0,348147897382077
0,322573428294346
0,34564191352707
0,339942587935092
0,340622851925409
0,333697716416084
0,340230329850851
0,319657900001185
0,342175718654309
0,329724755625864
0,363734809929584
0,340028309835927
0,354075711714199
0,349706052169196
0,354728199699364
0,336266652436463
0,357615926729398
0,346127234671112
0,352756644681952
0,339996287703866
0,355791798470957
0,335409031166914
0,340838283662899
0,341950312395415
0,355323099251226
0,336905285459672
0,37461752713744
0,342336805161464
0,350771392791841
0,347247335959626
0,356955713034682
0,350868764097135
0,351376206186645
0,338913137736037
0,354330188775761
0,342213247154456
0,354213811655474
0,336685271399549
0,3536192134628
0,345959405387037
0,361692867979378
0,338738375052297
0,352771642816261
0,339902520529321
0,352374021681071
0,333013606080903
0,353805393948082
0,338999131310948
0,355991941569675
0,353880403495899
0,346226960916869
0,337537243134575
0,352931682641877
0,334344572573913
0,355504517124488
0,338781695586044
0,348901878051619
0,337361237298266
0,34936301292038
0,339588033333295
0,352980529167574
0,336893692108579
0,34744670425063
0,340897934583528
0,353878725812101
0,337731696848335
0,342913934962206
0,326593404819104
0,34521619081599
0,341275059305368
0,351141800120382
0,342424536411109
0,354273086552235
0,336847232362933
0,354645308594231
0,337213571063792
0,337143972987761
0,327019193384887
0,35287047448116
0,338652648851276
0,338644606213903
0,344132444339655
0,344513294918679
0,334031290598665
0,343048571541968
0,333026492402059
0,348176705378056
0,331470880537955
0,337830808908106
0,324837816928522
0,342953694229455
0,331119730087853
0,341400171645583
0,336228925206145
0,337710933777856
0,328631934839688
0,341995433467066
0,331154537686217
0,337364515303994
0,335489858137082
0,337001168895087
0,313400686470321
0,329985175102435
0,318166168546354
0,336850898946658
0,321682849645265
0,330381867539437
0,314148274283278
0,322920233673816
0,314807525359585
0,328828478234543
0,322506796274909
0,334438325213509
0,311551642370542
0,331915223103986
0,318800838337797
0,333702222904715
0,318091685213272
0,322161533983438
0,315040269816974
0,32272006629793
0,302285334182984
0,306948000456374
0,308868411064672
0,322764481323391
0,314262831869083
0,322191516109421
0,31274111649299
0,31330306819425
0,303423870231133
0,318289846345926
0,293664702414936
0,314524242889902
0,299551672714822
0,317982166548636
0,302711101732578
0,314379792578173
0,292655896055868
0,305982125986034
0,292912193048397
0,317024239849555
0,287756354083605
0,311107061459569
0,309833047300141
0,299333123642844
0,291862689538381
0,300990554887822
0,29431393675438
0,302158253035847
0,289355589588786
0,295029142660771
0,288405170294087
0,300232506207429
0,280031650501391
0,29087094794371
0,277339610845028
0,287287190338078
0,287367155025921
0,286390685297561
0,27776191269351
0,285590268491047
0,277131015627988
0,289485468283282
0,276816225492226
0,282204665295782
0,278116073461017
0,280284064549359
0,275066136148665
0,279852343545338
0,269264399875028
0,275493048086721
0,268883015399189
0,278943416409829
0,269141725795587
0,269138628128808
0,257648564970171
0,267084764973373
0,258414735747258
0,26218086259715
0,257646777442084
0,265619895600638
0,253819032040374
0,269452996835596
0,255638840910136
0,262046508014615
0,255255171880046
0,26384996240027
0,246018051466781
0,259697306912437
0,257833675040681
0,253133650442102
0,241584844798166
0,25445315074215
0,24723450411494
0,254105914439355
0,244298289993483
0,252974562099808
0,242717150480582
0,250832667674452
0,234424829588998
0,253560842501086
0,233264230095327
0,245273750191163
0,233080013929895
0,239738399509145
0,235556800799865
0,236100167901019
0,226506733596219
0,236046572006443
0,229841183952435
0,229608321439601
0,223329816243623
0,229380938312035
0,220884355863198
0,227667856894252
0,224044547341936
0,231065024344822
0,218188776684073
0,221401827419587
0,223292842072122
0,225359413225481
0,217581492804602
0,225327225072205
0,212752822531492
0,217085238084514
0,212869659099931
0,216695940672917
0,209564936804787
0,215889596536302
0,20471275778803
0,210973210962438
0,202226133182583
0,210762420274731
0,194984402735767
0,209555105083808
0,200596769641364
0,211452234333068
0,199844901144458
0,208584964925219
0,19173118795475
0,202684595599015
0,192651626637279
0,199287280243461
0,188063947165317
0,194686800093424
0,189522270315892
0,194804037901117
0,189668224844122
0,196474875149491
0,180990495485656
0,194614531593531
0,181255895902956
0,195387716410106
0,178942777692617
0,188696540599733
0,178265587384648
0,181316523180563
0,180077559759817
0,184143504770433
0,17013374670448
0,184240961048513
0,174444706104926
0,180802454896736
0,173543590447614
0,176809305548574
0,168876886057532
0,173842136073442
0,168352697784114
0,168251891759598
0,163641266660665
0,173079796128678
0,161624202157587
0,171588596252671
0,163544508924444
0,168204359489272
0,163027818013399
0,169740785066348
0,163050948072501
0,159381265673664
0,155712708520157
0,161503003910796
0,145366692009731
0,152801214474438
0,15285187410915
0,162818376817729
0,151901730700282
0,159760984462254
0,158209860480286
0,16407156155628
0,144427179468276
0,156316482743825
0,150894257309413
0,148195984307173
0,140545179462381
0,147166602955131
0,146731097406089
0,144157215038339
0,137606837568246
0,148719745621025
0,140290004520007
0,144625125133658
0,139749367099252
0,144116918544783
0,137141440310655
0,145418069267871
0,138442544568302
0,140122799066525
0,134901635061557
0,144216644154759
0,130799272432231
0,141892779812872
0,13134757416191
0,137611430110455
0,128463876094598
0,138911272579744
0,130159342353782
0,137805810350981
0,125972816568313
0,133958106773805
0,125823458188227
0,130743994908266
0,125308819962964
0,131888864599889
0,128102929980356
0,131914039843863
0,125486559326806
0,129192652768689
0,121706999948943
0,128229010162346
0,12086870018812
0,130758876322914
0,117326645409406
0,122123420540181
0,11768906209636
0,122740566969879
0,116732726318353
0,122386940555652
0,114463084779944
0,119395334233297
0,116135067453556
0,120129537353342
0,116282363293436
0,114966678605154
0,111647852145967
0,119435208042796
0,109194475101716
0,119386282915815
0,111124862558192
0,112356662352683
0,108819860608495
0,112400764865861
0,10458449353661
0,108061212333256
0,110938240245025
0,109229385845448
0,103378342277426
0,105319223267626
0,100009146684422
0,110586281782003
0,102381649491249
0,109519222561072
0,1000418937488
0,107174024259871
0,0979233629671966
0,107543200641964
0,105681408476592
0,107960766287467
0,0940113877042977
0,106874951850006
0,0989347423537635
0,106064548508406
0,0953985783186328
0,103347176594691
0,0955007550892441
0,10571762159417
0,0971093171904124
0,102128819237914
0,0961046873032854
0,0991634851672646
0,0930476617657586
0,0994874649717773
0,0955164868167618
0,100692576970092
0,091918153215211
0,094049954999966
0,0891459717663085
0,100638690862977
0,0887540635688562
0,0967712134762216
0,0909151396077932
0,0914171029229351
0,0902634901564104
0,0967075772049783
0,0865188892647658
0,0910176297613532
0,0857607429220012
0,0930555376974854
0,0862051851426579
0,0976106128691749
0,0893246650520374
0,0913636630181126
0,0806078315211058
0,0893260694901861
0,0797750546733269
0,0864037247270591
0,080544387955115
0,0901728946502696
0,087166272361101
0,0864574461970962
0,081696886889277
0,0861586942092209
0,0795373932052655
0,0824138234832188
0,0825465127874614
0,0883555329279131
0,0798029750420605
0,0843427155375431
0,0808339940670592
0,0841640758424855
0,0834374021603751
0,0848537131631092
0,0774274018527777
0,0802298022021013
0,0794128044614359
0,0844908583722713
0,08115061302417
0,0832402812914915
0,0802356865580173
0,0847388833567121
0,0805599878769178
0,0817709888971651
0,0783244476089918
0,0840589007681824
0,0801230478900594
0,0844933869704465
0,07936151436721
0,0866640448402373
0,0804786230044543
0,0836757787928848
0,0793757498505011
0,0830714620578063
0,080692083908634
0,0860199024674206
0,0784627323944815
0,0883019895557041
0,0819637659178463
0,085959300215359
0,0828760533811146
0,0865224525624503
0,0810033346918783
0,0859780881601132
0,0830567248273916
0,0884745214969902
0,0837185438049134
0,0877176681625707
0,0845581407511353
0,0850957872844061
0,0851240932330172
0,0888652514863803
0,0890037350266764
0,0944852380055417
0,0839429295912127
0,0900925658503293
0,0878075764486464
0,0899833446913321
0,0880245688666943
0,0929706808838282
0,0885653014856885
0,0983760102515077
0,0924684432940952
0,0963159804572356
0,0926095851884167
0,0988749488682259
0,0950338849705436
0,0958052910469181
0,0949336667788799
0,10265376137166
0,0977738638385977
0,100013270885274
0,094297781801114
0,103028234199791
0,0973512716312796
0,104429463568406
0,0980494148734232
0,101987395709717
0,101030781796726
0,111887671545031
0,104022463063529
0,108341218838205
0,10710658120575
0,110926045334034
0,107391004138903
0,113166794269352
0,105713387476761
0,115620051619955
0,113486784464918
0,119077697708847
0,111555569615183
0,122523181194073
0,115340620790001
0,116630799383509
0,109643789765935
0,120231905170804
0,114220556903758
0,1177621800832
0,115424456273094
0,119088074052911
0,115575084840833
0,118856940876749
0,114846318520291
0,122476364679526
0,114208124866779
0,121634637621999
0,120231527952404
0,124290026458645
0,114411822902192
0,118449825971566
0,111513074245791
0,119424437929179
0,112281667572677
0,117213907209493
0,113863174840578
0,115813417755318
0,109417873645388
0,114868045173331
0,110768454996189
0,117345426931289
0,107295444885277
0,112250777739464
0,108356785266263
0,110630258981965
0,11105995798273
0,115587984723347
0,110997376997226
0,111620439459138
0,108838101152769
0,114882916580906
0,10930937952714
0,114943006998099
0,109973162978284
0,113348341735005
0,112591082113821
0,113007378215342
0,107004383815468
0,115022145620284
0,112522468597838
0,121685722220423
0,113580522146721
0,114962767369499
0,111694507367798
0,111664393327433
0,110370152906766
0,111667502024545
0,109886053897888
0,108943838586789
0,11007023851595
0,114136697013203
0,105978297085479
0,114171267117183
0,107512738659161
0,110982354810224
0,106425147044863
0,108854690698776
0,104643208427399
0,108721388296346
0,100911046433778
0,105050019717128
0,0972295581330451
0,102940806348095
0,0978626607446852
0,105194549618037
0,097926006027189
0,102567838742105
0,0976535898721769
0,0989539407888589
0,0944513527915427
0,0991531322042257
0,0947346196048866
0,096627840933297
0,0955057852881546
0,0939093703738002
0,0887177989197194
0,093716209262851
0,0880810464241965
0,088659279385659
0,0842012083249496
0,0900497935640234
0,0813584294828746
0,0901855350283138
0,0844419833123374
0,084061314017351
0,0813292013458219
0,0831320153066884
0,0770432609350409
0,0843542649695229
0,0810004866146313
0,0834140690316899
0,0772315135420253
0,0807434638545041
0,077987210449362
0,0819589948533347
0,0826855421196166
0,0823089963346874
0,0776666864163288
0,081857229676979
0,0759253872481962
0,0812531443056012
0,0729011252124888
0,0760647136617784
0,0728151209288244
0,0757665755015799
0,0734236530066177
0,075066813281931
0,0766185072108754
0,0756472193874844
0,0678062274506988
0,0767912241589155
0,0736067388902959
0,0747555103123174
0,0695803500549983
0,0758290352764649
0,0762258576213075
0,0754678729340054
0,0740484335426053
0,0716721250801963
0,0731872216623871
0,0779783085961691
0,0698979645519646
0,0728365583991753
0,0656828113897397
0,0681472458622068
0,0691148916419793
0,0674143973194705
0,0691044395352814
0,0704903165199951
0,0686396326125107
0,0709621594428482
0,0628723536427675
0,0680624073500489
0,0621017334833655
0,0690599427671619
0,0638363551833331
0,0702606811047662
0,0667522141970641
0,0670435282377287
0,0646830242596132
0,0657171641700728
0,061573745987539
0,0658301478192502
0,0619639270283075
0,0676638362451007
0,0650761104305515
0,0655020755005431
0,0626134051815146
0,0674128056325704
0,0611461169064902
0,0666306432829147
0,0611542589874748
0,0631534771373727
0,059157103341955
0,0651373529589473
0,0581179185079696
0,0633852376736201
0,0588746760920096
0,0630502344267169
0,0583886447511158
0,0629094001637692
0,061925626043542
0,0648206202502228
0,0584518376383176
0,0643785849549695
0,060249446078358
0,0594227064960256
0,0613045405970516
0,0637671604441237
0,0581521141570142
0,0587703664529965
0,0582578056510239
0,0657528333900794
0,0610815903289522
0,0651769966157165
0,0568117007081184
0,0602856995896177
0,0620016613304651
0,0612780577384341
0,0620075515804434
0,0615825829769978
0,060490843283619
0,0609452376983486
0,0570760431695008
0,0590326030015879
0,0590452232960548
0,0646542287459067
0,0590730687734254
0,0626912221595103
0,0541630503478026
0,0587724572804296
0,0545663988300162
0,0589075287702243
0,0531593031164318
0,0569768810979993
0,0541810215648489
0,0598326446818415
0,0543804829532913
0,0577722559056157
0,0577039456808485
0,055681608793158
0,0562026412660813
0,056974244656112
0,0531017164381346
0,059098667347375
0,0525894507372062
0,053980836286243
0,0535282845936124
0,056322883678257
0,0544086645837575
0,0553938766897578
0,0563614508300013
0,0564219041870986
0,0528681108697495
0,0558510217930406
0,0503886793687045
0,0585442678078381
0,0566996157070504
0,0572996302326389
0,0526624679752018
0,0568696719562665
0,0543998675822943
0,05675785266674
0,0553358086192296
0,0556665442264835
0,0526289744609413
0,0571192088889007
0,0516302392952574
0,0586078875654103
0,0548003425731874
0,0554960747303211
0,0526034169662272
0,0560324322302443
0,0531042425374961
0,0564563902281477
0,0540263387063569
0,0540292992495602
0,0508821721297082
0,0551258110799813
0,0522927036292551
0,0584311130652122
0,053218997584838
0,0553402421225836
0,0509801820790847
0,0506059334118873
0,0514800568229489
0,0536207551568266
0,0533654687032972
0,0524841628656829
0,0505219856306536
0,0508620103629459
0,0522732126271269
0,0552502675510699
0,0485072136720207
0,0509093848173414
0,0496509989910878
0,0534069651621231
0,0483580870019204
0,05102387974027
0,0499839758226803
0,0500908434958109
0,0516110326143739
0,0501122264633039
0,0482959272738556
0,049351928703809
0,0493974201073021
0,0501999254921621
0,0480279402281016
0,0507706497520774
0,0478997516102781
0,0484313257580039
0,045997135997324
0,048244488542239
0,0470805708549516
0,0477503528740349
0,0482964785409134
0,0480831402466837
0,0464047882134481
0,0475235765029508
0,0462930566473332
0,0526688050788144
0,047021534079969
0,047455117537582
0,0442495408103337
0,0484959013692987
0,0444396187718231
0,0477456846436064
0,0478546196538026
0,0516918465254907
0,0462477979348717
0,0470317747839205
0,0452995494889757
0,0498906137056102
0,047046706693933
0,0483742471890857
0,0477405608877004
0,0471540295746967
0,041937225946838
0,0425880596277213
0,0434503544276611
0,0456392024381633
0,04656643225552
0,0453824861733032
0,0439585568407352
0,0453991920917767
0,0433726670728112
0,0444766891207647
0,0444047700005473
0,0461042745303147
0,042748841452602
0,0466831563562255
0,0445808690357477
0,044904613928748
0,0415380461680161
0,0442456941714578
0,0430227791404189
0,0441229032939852
0,0431681722188916
0,0430456798129735
0,0403069663479779
0,0422019456813061
0,0408067841044472
0,0432500561610871
0,042185715201734
0,0420527795379264
0,0373735922841238
0,0419198325545093
0,0418483879467337
0,0434369241116545
0,0424131179740663
0,0412415734103602
0,0398288363049821
0,0448613327639356
0,0368980150175537
0,0392611124745365
0,0359103232824979
0,0375879497383395
0,0367397754944525
0,0378092959260366
0,0377042396595492
0,0414559986323021
0,0406982873371658
0,0408350521232928
0,0394418628098325
0,0401436565530668
0,0376686524194209
0,0408598284210721
0,0405380391032516
0,0411529867784983
0,0385488518367097
0,0420784935857962
0,0380771471547855
0,0403339703388158
0,0389770824443744
0,0417381464347336
0,0368626288072227
0,0393715034605422
0,0401058171390042
0,0393645828563644
0,037929659139187
0,0388315654669256
0,036916461993622
0,0403372394720104
0,0397985053030273
0,0362114078018834
0,0367625626467277
0,041093421206407
0,0379193143760267
0,0381292330035579
0,0379136773443283
0,0401222578566596
0,0356807547710683
0,0381423348854533
0,0378514881427108
0,0375300322735876
0,0364337972348933
0,0357849924146076
0,0362967586170802
0,0375722335312268
0,0356850996583787
0,035028940044523
0,0300427446561974
0,0371496515812944
0,0336867462122682
0,0344058679133195
0,0354882715252883
0,0363130564434398
0,0344845869704935
0,0369826926052378
0,035645090988074
0,0342654206020354
0,0337699419596481
0,03427211261742
0,0352953455425545
0,0355842270658133
0,0339876627410243
0,0363894993530753
0,0357290003246431
0,0358558152618011
0,0370926329137598
0,0357485414330159
0,036268115912524
0,036862648563534
0,0328225487513628
0,0372891125988813
0,0357951154762918
0,034388299585686
0,0356045896990834
0,0356679952691477
0,0359858740814782
0,0363322068655265
0,0345976245072332
0,0381109479793314
0,0350154363328599
0,0356693079660917
0,0356643142926293
0,0368903918872131
0,0331139105238651
0,0365579089820365
0,0349393084523168
0,036232699001737
0,0349070579512029
0,0364084386157217
0,0345551499812007
0,0358222458299413
0,0359875184670181
0,0348964055223485
0,0339700671343146
0,032723780354644
0,0343823749234031
0,0339881533037084
0,0347301369723564
0,0321647877167898
0,0320293454834902
0,0322294930262231
0,0314051363321676
0,0341505595461301
0,0329755459189231
0,0343728554582546
0,0325178430914145
0,0340457144107284
0,0346439837808329
0,0336610390748252
0,0329226633150839
0,0326039105035354
0,0297152221130321
0,032339496507813
0,0314229010355713
0,0290095470415835
0,0300016335146107
0,0330562869290767
0,0304217340834514
0,0340751342387551
0,0318940236643945
0,0313179202679359
0,0320966793023529
0,0318544196665738
0,0305757420637377
0,0313226098775625
0,0318171050394459
0,0302079650920783
0,0309127939460514
0,0340582605288164
0,0313946748218738
0,0322605465089769
0,032970933257094
0,0336786835558729
0,0333341602948631
0,0317097424623494
0,0316257648901065
0,0327086298844137
0,0294834354908921
0,0318643369611492
0,0341174198442437
0,0328970581308877
0,0320494671683084
0,0313563207714496
0,0326019783349938
0,0308383781959838
0,0309832069601359
0,0332021527215521
0,0308714609796924
0,0290075645063574
0,0328092168747551
0,0320325142581518
0,0319493750579911
0,0306616471447619
0,0308358975940699
0,0305853851148448
0,0292788858923312
0,0296324911573369
0,0310721516395167
0,0310629297754772
0,0295731253366251
0,0319303685714127
0,0315669651932557
0,028919634992001
0,0270768650051854
0,0308043817962779
0,0297634759770684
0,0267634147644943
0,0293547536466659
0,0295066409997923
0,0276786454244456
0,0283276770856975
0,0282913763947622
0,0299599690995929
0,0272237832066551
0,0253799168097319
0,0247158907714618
0,028158474954946
0,0284281357469739
0,0265957694815482
0,0288890558014202
0,0278279044801594
0,0287801955499095
0,0299808354877024
0,0273674194248276
0,0267660083814401
0,0289287840767319
0,0285429761502885
0,0300608185756056
0,0278992980458976
0,029345912146343
0,0266104386047336
0,0249948648462769
0,0292094534544225
0,0275286064118876
0,0277507672095239
0,029614998087928
0,0276810684310393
0,02844951006478
0,0281951810036032
0,0281407103820876
0,0277395014006431
0,0261929906075447
0,0260275689917094
0,0274135146614143
0,0279505725796072
0,0280469138285805
0,0271413278966723
0,0254339445192515
0,0259286798310257
0,0291549037269221
0,0273169905109979
0,0275854728618597
0,028871347573895
0,0289844972750132
0,028036087333719
0,027771173123936
0,027358366638291
0,025626316110391
0,023677682737563
0,0255430071173175
0,0238366672077542
0,0248310931384275
0,0225563827785612
0,02516685384378
0,0247231002782979
0,0237461826556487
0,0271972271159939
0,0282830342411513
0,0264482648259924
0,0230192892522453
0,0255683306018468
0,0256288325343681
0,0229635931254894
0,0247989716605916
0,0251809376434825
0,025238153390187
0,0228108547722632
0,0240518944666989
0,0240217153466707
0,0227541309228323
0,0231677303903864
0,0255357044488702
0,0243849844268898
0,0249142161601926
0,0223050061733727
0,0248161867194093
0,0244203634969415
0,0233783900982711
0,025295370545868
0,0259087468479016
0,0215759358568104
0,0241771919844577
0,025999214905914
0,024818946018721
0,0242100829080231
0,0266086189115078
0,0272619569876206
0,0280734614309077
0,0269188034206762
0,027317912863381
0,0252328346411568
0,0271356133214645
0,0245770307477516
0,0273870601052914
0,0266495090440746
0,0246693970323416
0,0215833129016657
0,0207922443545547
0,0195171353084441
0,0272507710496577
0,0266089130422194
0,026212883106458
0,0127868919883919
0,0182348971878009
0,0237671633960248
0,0223238169253482
0,0174336951588682
0,0237548771988001
0,0190435574179272
0,019459263136923
0,0184828773457149
0,0191627320591085
0,0150425215465999
0,0205195099363638
0,0196924032664349
0,0204275618077652
0,0208145929943607
0,0298038236530885
0,0244138381565618
0,0256252148131853
0,0209204169091271
0,0257076291434225
0,0164618514382437
0,028142948644513
0,0185404650479743
0,0211425633915293
0,018559891034547
0,0233150465778925
0,0172056938896344
0,0236743786370188
0,0178752253393623
0,0251883831039724
0,0138895645647347
0,018530132858732
0,0121636548618554
0,0169826632282353
0,0150321793539431
0,0278524745389799
0,0200894298244867
0,0278731310703243
0,0150745336398662
0,0178348302223031
0,023304483088714
0,032103690309605
0,0243673538873572
0,0155135455743673
0,0225742859133644
0,027873926097956
0,0328604647477101
0,0168351993478187
0,0293424056887013
0,0216654252285046
0,041206294617571
0,0109238799400301
0,0340857845901509
0,0191264692689207
0,0350029479303852
0,0171295619052073
0,0372367347636623
0,0192395705971185
0,0312250175582987
0,0243531693402652
0,0264337216863574
0,0255956953045689
0,0234053112549171
0,0253609023435733
0,0228994812297006
0,0237415885962085
0,0243818774397072
0,0224123331758991
0,0233268142166834
0,0229807150360698
0,0232821692546651
0,019670387453584
0,0248789403987335
0,0195885626897714
0,0221239033082628
0,0212506903544989
0,0201682926180101
0,0182355712789296
0,0210053602124141
0,0191811635281851
0,0204884985419782
0,0200364524427913
0,0223501142545337
0,0212010769053681
0,0226699924136708
0,0200716436667302
0,0193037029275359
0,0201618694008876
0,0200173746295339
0,0183153036920605
0,0218775556365586
0,0214147313086301
0,0215999223722453
0,0204089730297762
0,020644595829025
0,0194714409464228
0,021408660705872
0,0211377596442138
0,021308652736587
0,0195874647753792
0,0215156967301122
0,0202194994526047
0,0200926667354314
0,0198375372057387
0,0218848366806014
0,0208943002069146
0,0211874685823836
0,0210833021497895
0,019888405713326
0,0203607451579928
0,0216631905247626
0,0197404845806352
0,0194878312518131
0,0181590244305735
0,0198568822994696
0,0201644919722951
0,0207698570888187
0,0207043790517409
0,022051028473309
0,0193129484880092
0,0190515762488796
0,0180113270092377
0,0192286931058536
0,0215043194321358
0,0208167794714259
0,0207787521691567
0,0211341022748213
0,017837270397741
0,018903784736407
0,0217475046705059
0,0210948284278102
0,020001364694714
0,0224594911256119
0,0203572026701927
0,0165953432613235
0,0186473041905501
0,0192082935629407
0,0190945157370544
0,018506085987955
0,0191663762796933
0,0179415335467186
0,018210507035627
0,019542900003992
0,0177538818027701
0,0192517242548636
0,0176888413770199
0,0177241460639774
0,0193832137099734
0,0180776187904394
0,0187795451332085
0,0206132220152524
0,0194757229700301
0,0181631415780837
0,0204754342147667
0,0197177520262417
0,0187686248481995
0,0201034147589506
0,0189903816977806
0,0183312273452308
0,0183559936794997
0,0190475682556849
0,0205308291051092
0,0198366822912457
0,0173540675364114
0,0179081778172581
0,0192987879094213
0,0193228593909732
0,0183091469044573
0,0200515809140365
0,021487058883067
0,0205207563529736
0,0210907801515635
0,0199009495693793
0,0181448200944736
0,0205406362644544
0,0209802114466405
0,0199989928235473
0,0212774846267547
0,0199625489441419
0,0194295468287865
0,0187685509986765
0,0188556063153832
0,0203574078613166
0,0193634664513452
0,0186553100197622
0,0197000179037612
0,0187526024656368
0,0204546108814562
0,0196565990663713
0,0192166602215656
0,0202388897565484
0,0191217059917981
0,0195008371964345
0,0192613142807744
0,0202667830902975
0,0183959236644985
0,0166104921572527
0,0180685817850847
0,0193753260874371
0,0183061004080546
0,0174684536764088
0,0195303829079569
0,0166633562446021
0,0200138085667254
0,0200255030659095
0,017264616242262
0,0183356874537133
0,0198804771688994
0,0177664095657648
0,0185909966086397
0,0183434732868007
0,019272800489386
0,0202545736765865
0,0187698502786269
0,0194185314683211
0,0202419629813745
0,0177816915929672
0,0178847209888454
0,0188103563244415
0,0191908251908285
0,0162379008906665
0,0194791339172508
0,0201082120409679
0,0190047469265835
0,0191969189978396
0,0178144616525789
0,0191977262716823
0,0214412221092104
0,0203479626427885
0,0205255928449226
0,0197231306746811
0,0184106318822325
0,018787829200702
0,0190939251448209
0,0197996243858421
0,0198794271743613
0,0185979752656205
0,0208377931482213
0,0184467139609334
0,0190264489222149
0,0195380196809782
0,019262434009301
0,0193646913084255
0,0180834818303625
0,0179246109684741
0,0194830767765038
0,018379123157312
0,0186657826598584
0,018019480115628
0,0193221755780334
0,0180892485000554
0,0198409159423566
0,0171896802645656
0,0170544051797571
0,0188413103054041
0,018178836287219
0,0190586511265467
0,020374022054813
0,0185207645646702
0,0177189888743842
0,0173994935623062
0,0193197856191093
0,0181195049447663
0,0176235154670648
0,0167485804365778
0,0187187987662093
0,0150416217210524
0,016095345278638
0,0190842996615151
0,0205454619108167
0,0201154297788071
0,0198342204658789
0,0177683435460008
0,0190425391244031
0,0185825144158338
0,0173760266974835
0,0182472999700287
0,0190287954329294
0,0204239331560212
0,0186592937229626
0,0173786361394988
0,0212792205394371
0,0168431163287948
0,0170313811415298
0,0184716286384857
0,0178110633955709
0,0187946608012132
0,0173416840295438
0,0170704422749063
0,020737617749814
0,0173478947928506
0,0183670820545484
0,0187629466479903
0,0185862154389208
0,0170974688686773
0,0195658802284976
0,0190539701580974
0,0181774646775751
0,0188658285083761
0,0206842049425825
0,0176375499030923
0,0202901009947443
0,0180015239642274
0,016839177645505
0,0158729805439951
0,0168641023163039
0,0180188219807331
0,0179927303384869
0,0182824391255184
0,0188007432050302
0,0167933552973149
0,019670889076028
0,0140298064136447
0,0155011501452932
0,0164710922100864
0,0160800106471213
0,0172962097329673
0,0192858129061913
0,016150876467352
0,0177384485495487
0,0170881629047331
0,0174771916348751
0,0197847285410691
0,0191142364918824
0,0166714858705184
0,0163069252013974
0,0166956650994686
0,016775373054565
0,017818783143139
0,0193860739681997
0,0149506659632204
0,0168150921492017
0,0172787014305528
0,0171344360060097
0,014329528203106
0,0153774725652731
0,0157783291508836
0,0174036770302758
0,0137813633285194
0,0184121791696641
0,0169920012711873
0,0158729558261418
0,0170303287561154
0,0171831429809039
0,0152200015785988
0,0190924691694817
0,0172157588857962
0,0190296903332358
0,0217039782229798
0,0210331687790661
0,015413176219178
0,0180146619275753
0,0169591012483557
0,0186860808511041
0,0179757245933285
0,0179915787597349
0,0176708357505641
0,0168923346685159
0,0137585405643094
0,0174164340435762
0,0152660463285065
0,0166971647455653
0,0158896007100134
0,018275924887266
0,0159330528139547
0,016148768124038
0,0140574014407396
0,0187386915779345
0,0156796261877648
0,0153900281477522
0,0152469204685803
0,01816060043885
0,0163408541130811
0,0199015868365013
0,02304957710522
0,0181307415969215
0,0171113896719244
0,0152692465474263
0,0152208584072139
0,0167337331139987
0,0142813545816384
0,0171106590314159
0,0165476274332838
0,0153575730942564
0,0164404442438253
0,014742533823851
0,0145181930748069
0,0155605581642868
0,0155415223329529
0,0166745899508444
0,0137499328287078
0,0148930679698895
0,0163045333981896
0,0160342673812782
0,0169961863124948
0,0163487040378333
0,0161190711129831
0,0116330950058952
0,0149242134498872
0,0140294877493552
0,0286775696640244
0,0282615177891664
0,0174441238420391
0,0158338301442684
0,0176258532072373
0,0190213924791117
0,0141490638305236
0,0141515721689948
0,0135176467717196
0,0153721240528979
0,0133678688480374
0,0152137498857916
0,0159987340278868
0,0174670579158779
0,0157285665376381
0,0159874631780481
0,0143370757989603
0,0174697999930892
0,0157032074433862
0,0149735818101332
0,0150428722523392
0,0150481737102587
0,0147361057889016
0,0138181746926254
0,015380018705131
0,0133353908934407
0,016842974132199
0,0249619291650127
0,0210469240859125
0,0187266706194743
0,0176653653118431
0,0178157499982581
0,0124446716772999
0,0170474764151954
0,0154034624450395
0,0149409419896474
0,010229231435725
0,0153027237527736
0,0133434432924986
0,0140072877354917
0,0156110339529172
0,0165540195790826
0,0115511681749753
0,0139136418204254
0,0138438241106611
0,0148180672413272
0,011711536517154
0,0140771186469338
0,0107329394550844
0,0169325198185978
0,0129438782688217
0,0221511889549659
0,010688712635307
0,0277468781086428
0,031730932712046
0,0208828780048028
0,0135336364919939
0,0152450630392835
0,0154992778072648
0,0157753397606374
0,0132424979179947
0,0149024941715845
0,0140231579825693
0,0124321245717752
0,0154854728171913
0,0150075776143772
0,0130080845392432
0,0152298786221946
0,0165079139128753
0,0131356803747492
0,0138038248035892
0,0164043115982642
0,0143158897459858
0,0129238410988389
0,020984498771625
0,0329861172033816
0,0198081339170252
0,0201384046506276
0,0134254263726716
0,0134888139174625
0,0399188328717472
0,0224196224166196
0,0204253947823335
0,0137025936694586
0,0176359966409142
0,011601018785636
0,0179523461103983
0,0101016710595534
0,0199923387278071
0,0220419093784319
0,020372875782506
0,0178732200830091
0,0151592678430062
0,0123579148985364
0,012455127012907
0,0148408424920342
0,0126898822547265
0,0135161525244247
0,014124427651812
0,0136274239887659
0,0143629558136732
0,0130091509680843
0,0158118930875725
0,00925039825365038
0,0211553902216672
0,0186812733631524
0,0170063416822469
0,0132794818938227
0,0177912958660906
0,00683685531141148
0,0262699414861195
0,03153412002054
0,0187026482591221
0,0135748770047601
0,0106815870533101
0,0185085975347063
0,0173463559036045
0,0166818794072
0,0108719208423452
0,0145000239466484
0,0118492957017174
0,0140927429229776
0,0134450449164408
0,0153242381467689
0,00878571988486454
0,0144903812180464
0,016206458808563
0,0162225876270386
0,012953557882625
0,0165289928656935
0,0157006796893039
0,0151898033639355
0,0379673370739776
0,0389253807268704
0,0376541744763958
0,0249839573405209
0,0226892552881388
0,0141749369854165
0,0169498060448105
0,0135218861299751
0,0179071731018144
0,016006680341239
0,0159117211938108
0,0139847629665856
0,016330741475912
0,0140577244507016
0,0130115277270208
0,0123185559634808
0,0150459029905953
0,0103565052839058
0,0109061914307864
0,0133730123502984
0,0113934541843904
0,0139831791700925
0,00923437431471196
0,02845435455779
0,0214717252215883
0,0210516493471646
0,00678588944531219
0,063023006500375
0,0299763999748506
0,0318630534592997
0,0153858284893943
0,0202623812590107
0,0135583521917095
0,0133487704109326
0,0131450023577346
0,0216398396683738
0,013904172664729
0,0147448495792157
0,0115534681207428
0,0195800916611292
0,0146443092583434
0,0101049862460776
0,0262855149995488
0,0522384629136035
0,0265758633523145
0,0264051112674328
0,00274493842489001
0,0362423013619312
0,0393307298541454
0,0187400751425062
0,0217195449905467
0,0152780172990372
0,0166386386860973
0,0142867795797822
0,0150930811705987
0,014158329262239
0,0233067445906792
0,0160426762841002
0,0159824221393817
0,0135741245847017
0,0131547686564025
0,0201247323556918
0,0158222822754425
0,0312859754361754
0,0280182094163126
0,0140848532369137
0,0229938561586558
0,0170433777726378
0,0136769191214659
0,0137314001706199
0,0179399472341662
0,0109230229635103
0,0293860088043392
0,0315295010680749
0,0220186773790019
0,0354794581421992
0,0259159096783161
0,0164452517907102
0,0244843339130988
0,02323337105193
0,0326036839641928
0,0024648678744914
0,0468630002226789
0,0324060911337263
0,0505650750379621
0,0353551460854011
0,0181818423196081
0,0172074031651627
0,0169155766037484
0,0148804684661219
0,011417710077606
0,0402164986407171
0,0114417290622877
0,0268002622201265
0,0020009977500843
0,0389225494720108
0,020610574554745
0,0303761767076919
0,0139167286887056
0,0164575532869478
0,0104101409919027
0,0478301447285082
0,00924308193616697
0,0256813393693733
0,048165222846969
0,0529233666801239
0,0576565083067416
0,0182295556892119
0,0235729177737882
0,0544853213344813
0,0207194827997304
0,027139831217348
0,00832604191098953
0,0265702623535693
0,00542267160779023
0,0334208625439481
0,056922801577581
0,0268369004398582
0,0228704617249066
0,0175839311416295
0,0153897297767146
0,0505771519085714
0,0265468194175019
0,0237707290981879
0,0144910718529749
0,0264474175965452
0,00665497234354416
0,0950780948119439
0,0226305838130513
0,0631571463698245
0,0352022797751588
0,0557822594114317
0,0270390708897533
0,0370354659181375
0,0151890944534721
0,0485873163898628
0,0432129898516475
0,0319970346228659
0,00208892520106531
0,0586938954873984
0,0394307917562976
0,0292634553559182
0,0285995909535792
0,0184154776827401
0,0168138493887258
0,0713193439053941
0,0851359165485537
0,0657893820114143
0,0233503890601297
0,0329226994740619
0,0546613607168942
0,0276563706036517
0,0223293102545071
0,0159579389015137
0,0184811715473504
0,0157688540233726
0,0151246802273177
0,0348887753535962
0,0173778274047154
0,0339801700045712
0,0128268932444046
0,0298806505436861
0,0384544822164705
0,104023826295266
0,0580993563610766
0,0440994737651628
0,0705673080897563
0,0520358334505733
0,0435478866143735
0,0215226553115897
0,0231504597700067
0,036550742296122
0,0287236739168751
0,0250379444162682
0,0183412873302317
0,06674439102179
0,0271623440071799
0,0637369563799293
0,0455709495734643
0,0411216735092819
0,0290234264825199
0,0495679298952593
0,220877394044833
0,0534287672184067
0,0750683696125024
0,0250848352232805
0,0916665177536712
0,0899246631475011
0,0570367166262815
0,0329447796313129
0,0391465442994197
0,0280206661677956
0,0487633248906461
0,0487277647650247
0,053340614989018
0,0589392939655778
0,0485038296345667
0,0383076721057233
0,086607303644637
0,126324603628824
0,139505138429264
0,0625261067084753
0,051838181392707
0,0692098489400058
0,070822639037311
0,0432453075518711
0,0631481674926689
0,027154065120432
0,095636074042411
0,0882261384907135
0,0693954304216003
0,0506531205581819
0,0659565700904266
0,0847331698850318
0,0473321649629853
0,14687175493036
0,0730534484416095
0,0893401241226902
0,0446306894281613
0,0725290933954487
0,0527233481835226
0,0641106253732236
0,0929090744755479
0,0793136922629321
0,0748081063685147
0,0651358886889707
0,0637601117928318
0,0632534731813506
0,0703959445983545
0,0707048465255957
0,0711844984151192
0,119381729702424
0,090356951274881
0,31760664141935
0,0890760145230195
0,0966528337707744
0,060136562323677
0,0905797608810197
0,107704214170089
0,0974105356760307
0,146687960312645
0,094146046588648
0,0791945900958621
0,0697631146707586
0,0707820100604406
0,0679659242659509
0,0677632382627811
0,0745292045537387
0,0548797375257211
0,117274046664538
0,0532633238621027
0,165053935453912
0,105973064828752
0,0954369434850465
0,0611692525834868
0,0755042041725256
0,0557645146691752
0,0799953120044766
0,046877903122429
0,0926547448988559
0,077886480582512
0,0688856169080229
0,0659390236158323
0,0547839527496377
0,09853082490417
0,0857125460520537
0,0688590467398656
0,0664445853917377
0,0503253613924297
0,0679598869851711
0,0409357142436978
0,0975974091175894
0,0961681848138552
0,0707853300546569
0,0568710001716775
0,0528220229708496
0,0540081769380358
0,0551447986395971
0,0509958212466172
0,0678794123704706
0,0553518705162397
0,0554347201557214
0,0600935746161122
0,0522109744566587
0,0512171502382126
0,051780349823731
0,0593876394494894
0,0506128880761661
0,0557535807139072
0,0504384949392898
0,0541661753156241
0,0507229582941309
0,048318654667112
0,0553454512180437
0,053957349093032
0,0573325323841319
0,055675788935649
0,0508750745067387
0,0551620189957464
0,0489205734760108
0,0574781446470962
0,0530036735910239
0,0540502301601187
0,048864470436043
0,0511266002983552
0,0490615676706036
0,0505537909765986
0,0489123150543261
0,051647027432802
0,0465036751525055
0,0538579632986027
0,0513107502791439
0,0552387792755413
0,0586973730481641
0,0452827325131265
0,142492350869559
0,0602021156782536
0,0710918237939587
0,0437901865590637
0,0600059559171958
0,0466102266470042
0,0515004768221417
0,114188138750584
0,0770594461261816
0,0590564792083811
0,0530256737220464
0,0431855557718201
0,0766400624604132
0,0553896856933749
0,051179205805866
0,0536845573678221
0,0329524876408962
0,135140166010977
0,0969640857773596
0,197217000167374
0,136442412799209
0,0922974730110486
0,0419114043237604
0,0906653493653461
0,0825005615870094
0,0554335471746171
0,0545666403837808
0,0390770774219928
0,121670648552604
0,0569840987433244
0,0548347504113154
0,0484143048478335
0,0457720777329547
0,0879491082550042
0,0908537924037715
0,0666826699344268
0,102601862738179
0,0915028043838687
0,0813992136049031
0,126579423313782
0,143087122372912
0,0946354450217631
0,0505208252111307
0,0618026899504443
0,0453820783158578
0,0707864626759059
0,120882866687075
0,0576698811447693
0,0870224453445618
0,0376679193208568
0,0545406358832759
0,0436683926570427
0,0898448834337698
0,0552113537840721
0,0732573850751073
0,0991877786717729
0,0439968194876622
0,0840391392738805
0,0630244404262473
0,129358789464624
0,101141523224744
0,0704414051240681
0,0390520564563228
0,115303343509461
0,0926437059020026
0,0697307147657184
0,075030258059701
0,0349209011070286
0,0561796841739133
0,0742496803293993
0,0441451196679218
0,0834802482109199
0,0661884830507058
0,103669019374387
0,121657531933802
0,140500159457399
0,114876716983431
0,0567607454018184
0,0420008012294436
0,0419786399522119
0,0454967899094114
0,0468102169609768
0,0245037260561976
0,102264112874975
0,036251730215446
0,0583737636917367
0,091553206520445
0,0478067225740827
0,0388778791321849
0,0398124800605897
0,0327457142393664
0,0538118172576549
0,0741377694018132
0,11194068519136
0,0546038492871965
0,0749748743564366
0,0639213380084076
0,0481756934118898
0,0444870363830895
0,0437776892747132
0,0408300430790671
0,0451576070396245
0,0609339032560252
0,0471368837744859
0,0470680909202155
0,0531831781479447
0,0378516013657214
0,100129260230619
0,0759276078244443
0,0543612307261466
0,106709336289622
0,075629447347747
0,14652827268018
0,0693708517279964
0,0708126905570913
0,0558982468851803
0,060266666303529
0,0663098152478074
0,0543522302887725
0,0891518477593159
0,101763133564022
0,0652156833013072
0,0686779368427896
0,0596768500076701
0,0704352856537451
0,0677692307545444
0,127256574170767
0,0830463456891207
0,186702843223778
0,107441289708858
0,115678651405023
0,0757700834073969
0,0719012583782481
0,08989454882508
0,0792278507385285
0,0741670334066919
0,0666335283831718
0,0795376934127041
0,108017036560888
0,0739902694547997
0,0831975424006145
0,0686796463308806
0,0760344823089369
0,0712149692058828
0,0771250561537569
0,0782626660973089
0,0778129861576874
0,0835797419143621
0,0741693249258648
0,085000409374821
0,174423373875701
0,0913851000215793
0,0940659294309963
0,0776833277912565
0,0955748051586003
0,0780042799173164
0,0854922738747687
0,107248356592815
0,094815897909282
0,0889857710993144
0,0882491790381187
0,0843185229800612
0,0867829238007388
0,101560321984412
0,122803804578633
0,0790753588129967
0,110690616360372
0,0633015046368544
0,162817792504656
0,11944664235442
0,128187655120769
0,110293786522921
0,103752053346335
0,0958442106300317
0,0936469409138487
0,0887257844261825
0,0941266919590464
0,0979689899861279
0,0969793635379218
0,0976097725781705
0,0893792895217779
0,0942586662210938
0,0880043121402601
0,0967557492204838
0,121078563621758
0,0913201535149193
0,0920081381190575
0,0876477603329496
0,0941431543784707
0,0865730902139435
0,129326230907028
0,107245144545868
0,104634802679443
0,0964077820883043
0,113123670665794
0,119999390132839
0,112312089654872
0,085254723916745
0,0945036646830476
0,0789620702926784
0,0985835243185777
0,0767148335094179
0,113319570308102
0,116070624033813
0,103552074597481
0,091216535290666
0,0933926208309837
0,088360212118519
0,0914906117625945
0,0909462373489954
0,0894939938579104
0,0931955029301379
0,0918372265743813
0,102411909290074
0,0904513860751941
0,0946141152151003
0,109189575312827
0,11526784305388
0,11195582013194
0,093724130720985
0,0980214768614616
0,0893480088635944
0,0988973000923833
0,102439180801518
0,0972653144775819
0,0869835680903173
0,0953674322646009
0,0871777686976526
0,0981939893531471
0,129921930034572
0,0963078209917406
0,110047007124998
0,0859301631427024
0,0867774481617197
0,0877717309457895
0,0862309156983361
0,081076021364938
0,0832914348682345
0,089289097650429
0,0816591991994893
0,0816760378708882
0,0815714505692152
0,0801734376308999
0,0795537211348276
0,0842741801525184
0,0799337083518883
0,0811569859861393
0,0804884760300605
0,0769765099785373
0,0773997603380289
0,0806869463699685
0,0799408459700487
0,0778186664291723
0,0972389302522964
0,101825375181563
0,104831418194718
0,085499409846077
0,089137201684958
0,0847957033987803
0,0778474574131327
0,079895984666276
0,0735875894125114
0,0798593149877356
0,0768072792648029
0,077014044223281
0,0743866942153995
0,0773775589860873
0,0732732963556319
0,0768058365634389
0,073988557441286
0,0785374237603021
0,072416670423099
0,0739179572096946
0,0714950328723722
0,0782295107165965
0,0736071117988291
0,0861831798776341
0,0777505915547286
0,0807605198886595
0,076319503381051
0,0742117032595855
0,0751458446791613
0,0741008429960867
0,0763420464533108
0,0749799153590583
0,0725414807592087
0,0733573416902589
0,0712244733045908
0,0755007435967485
0,0686840299597614
0,0693948911453437
0,0701442386163325
0,0714835654312801
0,0696720379757963
0,0698238550523843
0,0687580807861902
0,0696849633830413
0,0678381243601501
0,0702741364811095
0,0629778854283294
0,0684730267731032
0,0660824883352293
0,064381401334316
0,062170584678753
0,0635085330692973
0,0600350208390342
0,0629591418439295
0,0630880020623952
0,063583131345249
0,0655723783209193
0,0649860474536063
0,0611739000191851
0,063572919926345
0,0603085947364734
0,0625431249893541
0,059545929372149
0,0624930122474565
0,0624092022820862
0,0611800952728578
0,0598218756001312
0,0625414431816981
0,0594369085141715
0,0617319320394293
0,0605586693395505
0,062272907561051
0,0597898673263536
0,0627535554391467
0,0630305436468163
0,0632562454324697
0,0629328633458711
0,063459010532409
0,0623361046273365
0,0640017488482116
0,0633706113360251
0,0637081087131308
0,0616494816750264
0,0632013023709901
0,0609441268444537
0,0629070905756555
0,0659379339550054
0,0673915710501884
0,0630085501789224
0,0629085133581505
0,0632304911307835
0,0638520201005105
0,0629903896740993
0,0655195739010433
0,065302756032316
0,0653562652168384
0,0635261035115617
0,0646660098383242
0,0618240393886366
0,0654301113623495
0,0611046059037195
0,0662303859575688
0,0633458662549737
0,0643083611206263
0,0641439680935566
0,0655550965773668
0,0626297708158151
0,0635223570421031
0,0616482257893734
0,061235043032283
0,0597992498101291
0,0616227772155462
0,0610149991691914
0,0609354536412847
0,0607272532800578
0,0615671120547613
0,0590565904916548
0,0603319222174456
0,0604791214707924
0,0625899096677391
0,0590134945470568
0,0587782750965104
0,0562212000811629
0,0585992479120054
0,0576429256115626
0,0589785195066553
0,0556218775718509
0,0576626506068308
0,0557226222824635
0,0568161129133146
0,0543214103180747
0,0552581885987351
0,055134657612745
0,057147441665628
0,0565354374226353
0,0558099308641358
0,0527411589683004
0,0555365792547122
0,0552956900960746
0,0538450184844102
0,0546883634346968
0,0529901668572167
0,0516765452713674
0,0517754193414674
0,0521667371490746
0,0545791571923541
0,0542160663648726
0,0534907615715568
0,0514143661345044
0,0541618325176201
0,0532383487368568
0,0547073956092735
0,0530513700371257
0,0530485408647926
0,0503902967390312
0,0506505983913373
0,0509447776510148
0,0518596722120819
0,0503207753459988
0,0495179502094989
0,0483482520995506
0,0487481017513512
0,0477615782507139
0,0490904360527605
0,0471345026150446
0,0454300777105812
0,0468682580491199
0,0481750449289124
0,0479240690856005
0,0506102313003992
0,0494986238298697
0,0489596324451563
0,0513898655707602
0,0541081990996057
0,0557017786125513
0,0589174398335667
0,0615221247669588
0,0643448997314851
0,0675906232294205
0,0719968900547323
0,0723021834423652
0,07734415555041
0,0800175140058754
0,0836797486125959
0,0869651531096498
0,0909181005084364
0,0946891013474725
0,0994058056672343
0,104669610749145
0,107615035835767
0,111605803700669
0,11863582512581
0,120816195352161
0,126363882894503
0,128574948736258
0,134903776507127
0,138186305821554
0,142669941333328
0,14292544695652
0,149646824630181
0,151224017480445
0,152475041498965
0,152499730463832
0,156534232162775
0,15328564270002
0,154961653019181
0,154224107241456
0,154081239409247
0,153434309080363
0,153531136657109
0,15041238074841
0,151610039273869
0,151668868179469
0,148937096739865
0,145734329435693
0,145608009226945
0,144556667817694
0,145803594858339
0,142371676169911
0,143784108995418
0,142603063354555
0,142346622694598
0,142342656470963
0,143328421340951
0,144557631064335
0,145733945841717
0,146128145083717
0,147559707575525
0,148714235256398
0,150731165578863
0,153552482880601
0,155690037958378
0,155482426561042
0,160077251338068
0,15969603483955
0,163034620629399
0,164150865071523
0,165487555416078
0,164162229162582
0,168977392850761
0,171987072032928
0,171872568376688
0,172493761663046
0,171024487290767
0,171905665226307
0,174434582484487
0,17360894972243
0,175512500828319
0,174904115979999
0,175124192497169
0,175555855937504
0,179935477472048
0,176637552087366
0,178825629282718
0,179398536653129
0,182798868010888
0,184922984202512
0,185311899067845
0,187253001482023
0,190433370661377
0,194209697209417
0,195391375809325
0,197221707127524
0,202252970061153
0,202531150940952
0,207419833249052
0,210734411326253
0,21502521128393
0,216036412254574
0,2188288746237
0,224293566931048
0,22944979976399
0,234894852812208
0,240054705300798
0,243627581654896
0,248936111825508
0,254880172190441
0,263261645797167
0,267216728727423
0,273012565138821
0,275968762478961
0,280451884739168
0,282160298117108
0,28396676633299
0,282168513638436
0,282382330852548
0,282583622696899
0,281635327113408
0,279459013035012
0,278530273531666
0,276358510668885
0,274331992993468
0,273422600429803
0,272122761419848
0,268287350764244
0,270424050998123
0,268830868647321
0,269647675555029
0,269511607807259
0,270764548207985
0,270300137546728
0,274090559408392
0,273932039039336
0,278743935749114
0,281028967270121
0,282793561270566
0,284279858923882
0,287023509246514
0,287915631722155
0,291965958179433
0,299004305316542
0,301427999896643
0,303042930098645
0,307036090206098
0,307021512690201
0,309573739722237
0,312013998777145
0,31596634654096
0,316525323519176
0,323597345591555
0,322866734053206
0,329360553693778
0,328196524999015
0,329051756157529
0,330350259094485
0,330031040356841
0,329842808943493
0,329029110312926
0,33525737756716
0,336075213418977
0,334712617894372
0,338150807209149
0,3350531005919
0,337705674773946
0,33238076021128
0,335152238103316
0,335340605045432
0,333002513466185
0,333077121400299
0,33126254276393
0,327651417743482
0,324201984658841
0,321323373889307
0,316704264439377
0,311837933588661
0,30788004632159
0,298160268446226
0,291105471388775
0,283520483475647
0,278268929913116
0,264862021216594
0,258378849540633
0,249412831859867
0,242622574939729
0,233979868586935
0,227315970742345
0,223345668990739
0,212259978297056
0,20440862196212
0,201211815098445
0,196693892719771
0,190146804403936
0,186067506949512
0,183922598261224
0,179624961337688
0,178634791557528
0,178387741079436
0,17011445474475
0,169054544353848
0,166400415873424
0,162902225147189
0,158941318418075
0,155814809830902
0,149997165109568
0,148166969657881
0,142347526877562
0,138955658638765
0,135365005241197
0,130188400038791
0,122617012475113
0,116594595835005
0,109893321267725
0,10565258729304
0,102443028194225
0,0948334959712593
0,0932007276084221
0,0853722142020307
0,0849226031737716
0,0789782036592306
0,0735292637419764
0,0685845305656554
0,0656152596219329
0,0611903376411208
0,0617916764123538
0,0574499431042069
0,0523664858411184
0,0481288583405557
0,0475500909383057
0,0447028759251399
0,0465934809173995
0,0449932435091116
0,0419328548258169
0,0401581400134146
0,0378358444936124
0,0360793163821692
0,035222414961409
0,0364784437119415
0,0360857425273328
0,0349169408495459
0,0363021659380776
0,0367726028637645
0,0345984325267298
0,0294214522208
0,034063904979302
0,035491279487501
0,0355706965168162
0,0340093405615268
0,0342709087243964
0,035149729358472
0,0346265594104622
0,0352307785861192
0,0370200191744651
0,0365697875384988
0,0375216660380812
0,0372872849738401
0,0354684573155694
0,0395214451090523
0,0417895396128428
0,0423589978572101
0,0404293489832606
0,0401245385665775
0,0438801937074147
0,0425040221041654
0,0415210517934841
0,0405050060676948
0,0428575456898979
0,0425246599002171
0,0396494281548836
0,0421265369310778
0,0426784827009713
0,0446513070998337
0,0423506362276163
0,0442017855695037
0,0421905092850584
0,0414310648317406
0,0403102505466
0,0407619529783517
0,0439759920764767
0,0495048489453235
0,0467376576240458
0,0427544155826558
0,0465138506909254
0,0430240534391565
0,0416627859780098
0,0437820180989663
0,040148554874892
0,0466467654508606
0,0426226021216999
0,0471812598256421
0,0449902705972279
0,0460407108017914
0,0419385777458819
0,0397700333811062
0,0425790530183438
0,0406722029130052
0,0483339736605566
0,0472989975344356
0,0388496729936132
0,0410181193208599
0,0428440089226486
0,0455718620259722
0,0451911665035216
0,0491675137000745
0,04971355587288
0,0514504720532759
0,0489741146126168
0,0491192383799256
0,0466092935016709
0,0519651680562589
0,050756765332825
0,0480178456145589
0,051562767286636
0,0475819656135372
0,0497730701255467
0,0473418020992898
0,046706840338346
0,0422444833178
0,0405952621321369
0,0439717962021744
0,0431671064494966
0,0479178577909152
0,0399147252514356
0,0409003497289662
0,0349486170827366
0,0409322410808583
0,0420211296081334
0,0469875921226161
0,0439159613104541
0,0425563603171321
0,0450458500064076
0,0407538958189083
0,0427269257119726
0,0388261989928419
0,0411322473848996
0,0449680590331292
0,0412326561155178
0,0431164899324697
0,040309584045933
0,0389422432954758
0,0419293879163087
0,0492796812528048
0,0413725870527836
0,0423013545533002
0,0405630493014992
0,0409066443535086
0,0411039634718628
0,046747479960802
0,041502706024932
0,0418324733975291
0,0454064281674519
0,045302669855713
0,0499160856083753
0,0404902081105009
0,0330239045060993
0,0423983084423541
0,039797855051314
0,0431223033013502
0,0381711738948982
0,0491900287170005
0,0430319660510595
0,0444927337110065
0,0426023090112166
0,0386830569722319
0,0383249134837242
0,0358476162360028
0,0369668868285043
0,0376786404142974
0,0365314809686483
0,0381186270392459
0,0423998192697519
0,0421736498124652
0,0251516676722744
0,0399625211654252
0,0336370781811915
0,0332359177975275
0,0339747249958637
0,0442704330060709
0,0330081020439089
0,0367035180530546
0,039226112810473
0,0309736969161842
0,0334285888765959
0,035370982959802
0,022406263352327
0,0351569326980317
0,031202675542836
0,0406105286593038
0,0299257109655777
0,0368772235442856
0,0340429904337683
0,036773830233938
0,0356879828362357
0,0327751288212213
0,0369518455634377
0,0376009785005151
0,0295625546649936
0,037213025353115
0,0344145662854329
0,0421638786955813
0,0395070878187843
0,0527075083006562
0,0381408272440495
0,0383038185709874
0,04628323108452
0,0409925669232952
0,0472220548290634
0,0460820978980266
0,0448903174394538
0,0429204856446072
0,0501132283872404
0,0493809579508214
0,0417313648683938
0,0423812679502089
0,0508458470707528
0,0579436211673902
0,0521529366416442
0,0547043179953337
0,0543013705205037
0,0663847009159591
0,0544018984500225
0,063250638061676
0,0678256294031059
0,0705654155972536
0,0560954584918232
0,061513562533487
0,0634303020984653
0,0762250677250794
0,0542077956443658
0,0824620834139759
0,0653047767991985
0,0662534565319194
0,0564429861104971
0,053801175432814
0,0579361865166124
0,0548723532587029
0,0633752760526027
0,0714053377591157
0,0551129028387845
0,0578936372547297
0,0553814941071441
0,0745139550216567
0,0626371380985339
0,0612944802504241
0,0631566947154249
0,0547399894076831
0,066482190156409
0,0664916487931747
0,0577170166944709
0,0610963961921834
0,0675458969208712
0,0531500335557234
0,0557146107049934
0,0674912248327903
0,0603827636795068
0,0739419152177945
0,0574616412447608
0,0692812215048754
0,0491032090101041
0,0717434400524194
0,0711693756461278
0,0594097703656295
0,0667286000956826
0,058082408505576
0,0601680726075874
0,0553858735958007
0,0615703694519519
0,0558879189521128
0,0424556826862226
0,0542937492614425
0,0471742065472171
0,076486764747495
0,0791604203660266
0,067245130481803
0,0407142645663626
0,0618274083725858
0,0466160107167711
0,0773240342427376
0,0669092735257575
0,0654219292878068
0,0586702373937454
0,0558689679952542
0,0629283717083723
0,0611526421708832
0,0400369275608644
0,0956602810655808
0,0660309002537213
0,0820288079437159
0,0807230981707688
0,0604453780388364
0,0516468536970191
0,0463447644944961
0,0555365270588414
0,0664238918291032
0,0842592817991507
0,0865783997079617
0,0693953091325173
0,100980833714417
0,0791517145954823
0,0426562758247847
0,0630763438364452
0,0569849562220166
0,0874013791663642
0,0859994746459914
0,0931433118565567
0,0859016069937119
0,0592345234441723
0,0891583914600216
0,0789283915780048
0,079070641219163
0,093358979450762
0,106581221770647
0,10529815746393
0,0852648097197898
0,0790268966393737
0,0922021477065822
0,080225420835645
0,111571833428012
0,107980160326248
0,0633919752445483
0,0742145470036461
0,0942355273122126
0,102372836267643
0,068411715684925
0,077132285135937
0,0960430870704024
0,0747340940991643
0,0795915669152909
0,105824170267734
0,116785673430719
0,0861824639935854
0,0454391949705139
0,060122197458404
0,134204239140348
0,111222920593828
0,100661627160052
0,0990717110240956
0,114685393376297
0,0646244668141268
0,0656645012236452
0,0695728982571587
0,0795586551635279
0,095402496813448
0,101829089650421
0,0877855235744332
0,0493394594186971
0,0826146685130325
0,065605230652343
-0,0142844175611378
0,118198573880324
0,110698805653058
0,0749644746680171
0,00664263791438219
0,0386048640709949
0,0931002952099842
0,13724141318231
0,0633977817219282
0,121681663036244
0,0636464821210696
0,0635606153741719
0,0214091891626424
0,088469655270872
-0,0162508442715927
-0,0656524325794334
0,133375645827815
0,0744483737748699
0,10492699346785
0,0912388834764841
0,230248304220415
0,266880312481499
0,129086048649938
-0,157594346138312
-0,0449654748396382
