3596
4000,36533379555
650,420452594757
1
2
2
0,0583636429402971
0,0572057019852147
0,0689869316257138
0,0611826576701125
0,0643999544418716
0,0589055606321003
0,0679580111433813
0,0505536535305408
0,055180354932097
0,0607654584459635
0,0663480562484865
0,0612543753647115
0,0563776716588253
0,0608096961787439
0,0657291141047531
0,0524257116462803
0,067256758827274
0,0643805003211892
0,065425785705078
0,0561361644170679
0,0586716020033132
0,0547701477345468
0,0558939379918714
0,0541747911041945
0,0575489016604789
0,0569691234772182
0,0636814808432395
0,0593024101840101
0,0659278682427178
0,0585894591063172
0,059621074900515
0,0487005082901806
0,0712961111597722
0,0612244098105704
0,0546007694400645
0,0590246226183885
0,0592469963590145
0,0643360616915017
0,065559530488259
0,0575929462541173
0,0706482913544383
0,0622203828960069
0,0617880134954375
0,0615563951044205
0,0648709991054042
0,0688032679420321
0,0583482136847903
0,0627662059851834
0,0642656715446561
0,061515417173576
0,0736046044009094
0,0489617747794876
0,0677297750816392
0,0673625358499936
0,0625660474093486
0,0801156577979895
0,0688205367141822
0,0571122905499757
0,0647351782013982
0,0526464411964006
0,0797517450436187
0,0861816035195311
0,0603797428094372
0,0566593277984816
0,0579291535895059
0,0681300691201817
0,0575828086933488
0,0578397870924973
0,0543620562368952
0,0585000233012959
0,066339405838303
0,0850612036674454
0,0917566258692623
0,0566576849252809
0,0714856582987611
0,066759804274614
0,0598915312592884
0,0613652786874063
0,0540273026871567
0,0745656389965403
0,0796441203659441
0,0662795083566446
0,0607096645274598
0,053190205563816
0,061148160129703
0,0837179625959771
0,0638142023478968
0,0592392789229691
0,099481869848298
0,0714931589366617
0,0607689269044566
0,0518756045672422
0,05930888529071
0,0576288727804835
0,0683306853029795
0,0530647704598458
0,0580792053455094
0,0537458836110286
0,0626125127765209
0,0497870139955602
0,0796502303185457
0,0531423749359565
0,123091245193037
0,06913700319257
0,121586183874845
0,093521881171669
0,0475988392220218
0,124520344581106
0,0846136349017341
0,0722210750717635
0,0541552847626775
0,0646918457711968
0,0669475883394503
0,0661536314591476
0,0554658263028403
0,0815184109386423
0,106904681340881
0,0659697961558337
0,0663240151276689
0,0565905591902686
0,0506238218909202
0,0783095152486883
0,128198128963795
0,0597949183180675
0,0804361249333102
0,0573622417024372
0,0641385278824629
0,0902823855912616
0,114026554552507
0,059033017260952
0,0689194349132769
0,0471791699718147
0,0645501109075261
0,0434180726360964
0,120589219042311
0,0709370985043302
0,0606807736056865
0,0576748155412242
0,0797643730986338
0,130969796096665
0,0905866541028417
0,0599867069760109
0,061535391619582
0,0564271429056589
0,115939276955778
0,078854823202766
0,0664438999933421
0,077498735376905
0,0834451499523734
0,0527492994928377
0,0597100432427458
0,0444488828116322
0,0903272922568858
0,0707002381370127
0,0446707419847799
0,0846441268625905
0,176807072962731
0,0591985930737231
0,149344006999426
0,0683630860847535
0,0822918665151807
0,0628891931891634
0,0584933090312278
0,0550045068315615
0,0559214740203878
0,0498099306135266
0,0757242880850281
0,106414410526447
0,0538436977163911
0,0609949987019808
0,100966796339024
0,0865337070097976
0,0627990709983969
0,139517140484094
0,105231906831474
0,0470541986408451
0,118292972459337
0,0760018852169589
0,0519329829766536
0,0629501579221096
0,105127874136395
0,060410365871375
0,0714497106060419
0,054336230537226
0,0687923201351406
0,0780239053889953
0,081197563490222
0,053186118503454
0,0687004780288081
0,0434572502526722
0,0903226591869521
0,112955392125691
0,123598255810028
0,0635077276640187
0,0699892889685347
0,0338575196929414
0,0892586561346129
0,114137626956666
0,0647649252047084
0,0563309646495022
0,0513626401807084
0,0500971367447936
0,0545037879202302
0,047614891693274
0,0569960136248487
0,0282818767726673
0,118270136707844
0,0908909947913275
0,068543799617378
0,0598122005736098
0,0679800487198197
0,0629037065749923
0,103058621317327
0,116658432984717
0,0623730898734652
0,0624850402914545
0,0502826596795821
0,0695063636767397
0,0933535658951013
0,0594607618790344
0,0562812968680014
0,0557455454261084
0,061909603267984
0,0452187704728383
0,0549521646665856
0,0551493336961231
0,0545457638747851
0,0504320921084471
0,0564137262892157
0,0533430966084485
0,0660427094458249
0,0632419645619656
0,0610644062341386
0,0564063706849308
0,0609585183179806
0,0604568436089604
0,0989005300433463
0,0574261115942572
0,0690974479673929
0,0531840259219373
0,0610410355023931
0,0482298869139562
0,0578528796600131
0,0494732780610733
0,0573614076586754
0,04310506428612
0,104623572459102
0,0715554872374334
0,0605144490498735
0,054040298762135
0,0817719361846782
0,0854112213842374
0,0592712991829793
0,0576770063337971
0,053171336333988
0,0514983117103143
0,0549467128230003
0,0993064144799014
0,0754593083727175
0,0594562157166798
0,0721776760159509
0,0749802389429958
0,0604272514533315
0,0666418690681308
0,0443999763818992
0,137343846195401
0,0963156917709496
0,0439030453785698
0,145075797388229
0,0963698805384254
0,0776402920373945
0,0683457169198938
0,0290569716745304
0,164569272290923
0,136406363712212
0,0710131057016414
0,0686637986421802
0,0756902235332817
0,0690908907395767
0,0596919186593052
0,0790046158829839
0,0651755609701967
0,110112213781503
0,131520238309206
0,146297223381111
0,0535454762329846
0,0877884193652944
0,105976775592563
0,0624019020153723
0,0667091385106914
0,059240614506371
0,0578910474196583
0,0832557566022271
0,0922783507885795
0,0796043209814347
0,0790034489774135
0,0575808660736588
0,10469274292808
0,0728175233658913
0,0562126726075121
0,0706930683753537
0,0769754742895913
0,0562696395738052
0,0591091135519302
0,0583826258970703
0,0684123903812601
0,0607490311848985
0,0581575174555142
0,126712227660987
0,0898345971147681
0,060963813299623
0,103444256133536
0,0751700128123952
0,058076247607223
0,0592960610117029
0,0529201646582907
0,0607762180319639
0,0550499413818203
0,0435637249325191
0,08615006498122
0,0752621518671141
0,0538374896053948
0,0610584872512347
0,0499052010806809
0,0555696710651645
0,0499432056491261
0,0569205500455663
0,0512390133810801
0,0580376287436116
0,049569164544103
0,0812661534104749
0,104403687405559
0,0479450258363674
0,083527537076244
0,131212989942198
0,0600903134889351
0,0632387116503095
0,0491943143109842
0,0658209979222516
0,049459231722038
0,0580033346315978
0,0557548135377335
0,0624154513299867
0,0874774146723401
0,0742976619722218
0,0560097627857511
0,077011391648693
0,127368515060458
0,160292775923857
0,082770556876353
0,071697838408993
0,050838425941191
0,0900607555954952
0,114542982187776
0,0863253778244445
0,112163229390741
0,0665170653881592
0,0648698984739153
0,0565919961815563
0,0579248859877943
0,0621572498373546
0,0615206585934347
0,0682604129022056
0,0632239123445403
0,0649293550971402
0,0592653660689272
0,0634849171087417
0,0574862709318004
0,120182742391435
0,0865712862653663
0,0647801558038565
0,0688285231716488
0,058651749671545
0,0856628447513631
0,124608784026035
0,108764141930109
0,130628806075887
0,100187569955172
0,145729387643194
0,0776213134312365
0,0787466328239729
0,0609420146726452
0,0778916611079886
0,0742004991698254
0,0750951302126255
0,0686520575400192
0,0691871244955019
0,0637101149361953
0,0882203609485397
0,0665164001247762
0,0719623745328694
0,0615523152534047
0,108754745589896
0,0832780574738558
0,0798275554512617
0,0750162546779673
0,0849594337896962
0,154712148679789
0,14593968227827
0,106107141207161
0,088782433477403
0,0796630096696836
0,0739153373128892
0,0940706348540805
0,0793660370663253
0,0916581220418396
0,0920020190875333
0,108103715057754
0,127408120757582
0,109576720901362
0,117989567287206
0,0777308726626128
0,114462923279676
0,111991552638181
0,107126795789928
0,128900770428882
0,109306234799091
0,0847510141687475
0,109892872190127
0,128248793938459
0,10640628193275
0,128474857472108
0,100331210919951
0,0866528538856377
0,0973073831051396
0,0961053334744852
0,0948129986722124
0,104761428631678
0,114745826267794
0,102348582692191
0,117189731856727
0,105578550914081
0,107664797814124
0,111841598588353
0,123650730999027
0,107649669903064
0,13566510683414
0,104589162090689
0,113272791566528
0,100612986733969
0,138600532690487
0,148088872498899
0,141043497816199
0,151564780829065
0,129003822090489
0,118200916898698
0,127880056320006
0,119540304085418
0,120432058640774
0,121163957792009
0,134432283349807
0,130554445477895
0,1309357104556
0,127056056004979
0,133171201567874
0,123103105528483
0,144414555792323
0,130686857235517
0,136994299882041
0,127852541329155
0,142226418816265
0,141432503086202
0,182603114679794
0,192962771512465
0,189632502604363
0,189083165610306
0,161984142897293
0,153417717195158
0,165251706854779
0,160622042503241
0,166434142422416
0,163852558224624
0,168952088142502
0,153077275847255
0,170271466346115
0,163800614695115
0,167379760507542
0,163614971250232
0,187146952138373
0,18084473326668
0,195810423572818
0,176649172705642
0,173688341562162
0,179414402229834
0,195302414296316
0,192584117077135
0,194376113201162
0,202788378258201
0,208537126781896
0,18729289344913
0,19318677318654
0,192084311391349
0,203904909067891
0,190720330463839
0,200027885318684
0,204114355190063
0,21019458070869
0,210199706171568
0,205715095386051
0,194535346870031
0,225724273968358
0,213055621472129
0,222834750465775
0,216027189472907
0,236907797829665
0,231317121157286
0,238850277340271
0,231519505642047
0,243537521132832
0,229457033124558
0,238916406506242
0,231777778362955
0,238204922465154
0,237233949415827
0,249757469128556
0,24064986970768
0,248806144223798
0,232289061251154
0,249560316814673
0,253213889852068
0,257126225282674
0,238835267605729
0,260659503237558
0,255323583485529
0,272589557751765
0,265592421380864
0,277715989844603
0,271099466811019
0,281701213067955
0,263700391573987
0,276917035941916
0,290152729148971
0,293094928500991
0,274405738620704
0,299223831291751
0,282633532600757
0,280049951365507
0,280873853965109
0,299518898058672
0,303983104614065
0,313419945085096
0,297580870718147
0,308662749375636
0,289676387875356
0,305026501293167
0,298369511079844
0,314734813295156
0,301057735707869
0,322556564169783
0,306272577446962
0,339401525261412
0,334528381949437
0,331373440377868
0,313576047233342
0,331984391978627
0,321279510629704
0,323415099841849
0,322142502008284
0,336486730217096
0,332712049696375
0,344002717820436
0,327664279400333
0,351522447695549
0,332539966383011
0,350114395998955
0,356374589938889
0,352252444533408
0,332047432821244
0,357723542837894
0,360451791281137
0,35291782412207
0,347552313143786
0,372021860613408
0,345380009603277
0,375612406165319
0,368921763334985
0,380328674587656
0,359290687304681
0,377766361202178
0,379239734902758
0,392881685719569
0,365734031090161
0,38817729078944
0,373677968452648
0,396419553069621
0,376807500488762
0,396910532450654
0,397125003998227
0,400140583116667
0,368263103782426
0,381635781594414
0,374932848122821
0,416697298742624
0,404650749104818
0,417929752651108
0,397252266306399
0,399818407527341
0,397326794871251
0,417831569511075
0,392162324250664
0,404218694019463
0,405580844605221
0,412368503331254
0,409838480930301
0,433097634139273
0,393769474802846
0,416446534316557
0,429237877228156
0,41671449393505
0,402544916767521
0,431237764927233
0,429397478017949
0,428859642966032
0,41399989403163
0,431358827838333
0,42163104313047
0,440576234245734
0,435934793323982
0,450893775083425
0,442849325541073
0,447202836418307
0,439564840038373
0,4592126413675
0,433518064539201
0,441953142545144
0,434772769888736
0,451133284902655
0,431833497726031
0,452990999018793
0,429174379401072
0,461717644249784
0,4570039565737
0,462493923162853
0,431218516650984
0,451654965477859
0,437287211371129
0,459870624628804
0,455711726346909
0,470172305614219
0,441089198222076
0,454877636688566
0,439978657598268
0,461316376553317
0,457328227303916
0,454702098478202
0,450898155813726
0,472763831070199
0,449632650077162
0,468735817598707
0,469012924885922
0,466644478028431
0,466875030582421
0,468196832242846
0,456074895362588
0,476263906462404
0,473730603844597
0,492292793739532
0,483493850477129
0,48084877561426
0,470152985559684
0,479910065669133
0,466553989447424
0,482372344781934
0,468565984825217
0,470575536028994
0,475557143967283
0,48250905194507
0,467154787550742
0,482396389986947
0,462819916409108
0,485965011505274
0,457203598200156
0,473207236807033
0,492926962806123
0,481138585511349
0,460377503680217
0,495596776700609
0,46406542273793
0,482937272476211
0,469158699717154
0,498493674344137
0,483571591292884
0,501492897359296
0,488283962163708
0,48971862228231
0,471933531266527
0,485221265851702
0,464106647352829
0,496797273992836
0,486225328135139
0,48633628763041
0,471470818933668
0,493111959138316
0,467275810100544
0,490655568668613
0,474941487327358
0,487240006911043
0,470836624589465
0,50540378851441
0,478910871703368
0,493787590002788
0,481873085550435
0,489732822522017
0,459513689247504
0,478049214157349
0,449446217176938
0,48659643268795
0,474092997732147
0,478334137484572
0,476717711579849
0,480616037759977
0,466571223937422
0,487634071374759
0,47450627951622
0,479399558560314
0,468279962644839
0,479077398336869
0,462161591988582
0,474237378338057
0,465930490386457
0,462411201956492
0,465114626109864
0,474777709578674
0,46875497927298
0,48951206237899
0,465830357987277
0,484833298701093
0,471858217022455
0,486235916296425
0,460934092086774
0,459731918347038
0,460755122340159
0,478225696061766
0,463425755169774
0,470970879041224
0,463568287472302
0,469608826923636
0,443602395212409
0,459496520108187
0,457880355065995
0,466432547727167
0,441449341059281
0,466021295962944
0,45232198431565
0,457560137673983
0,451547814172614
0,474667453430595
0,458792219889434
0,460558970200109
0,443147559246024
0,456769211661012
0,441854210413103
0,471749936327206
0,428932408511236
0,454878778454615
0,439444909138041
0,436117336120619
0,439063390564629
0,442279074635963
0,430338512057369
0,450316231778859
0,432171593900126
0,443773830391119
0,430567540181337
0,428252345076105
0,429876915360847
0,437665073380638
0,423562078369299
0,434429761325023
0,420637899613149
0,430139602558212
0,412408369254212
0,433663350822255
0,420103296151767
0,432196458611866
0,413884203236317
0,424893703989159
0,414534150905175
0,428391683722759
0,412650801803889
0,418222608600686
0,404425916294627
0,419746341813716
0,411126141290449
0,423353156036254
0,41063470124813
0,415033882102233
0,414106049144146
0,418707039224322
0,401949324680493
0,414579438771358
0,404687232429526
0,404833800747864
0,395839851926982
0,402677691228534
0,389397879606531
0,404174592053394
0,393425306861271
0,39236481643308
0,389095718219145
0,393383491225292
0,380427423447954
0,388621800424483
0,38071760508765
0,393718211648189
0,370771052243797
0,3831399068648
0,377241122860776
0,380925611633542
0,366584382477751
0,37983960081853
0,376128204529714
0,379547268407374
0,366781964384674
0,381769048059424
0,364573801489074
0,371527483904486
0,356784305652728
0,372375658125452
0,347231143154876
0,357640366146422
0,345445812898149
0,363441276945231
0,354191080538597
0,363193639840528
0,352130392849316
0,363078005004479
0,336967918744815
0,355462109001703
0,347481506066481
0,348423198644145
0,341566190414659
0,343913233828823
0,335407670114384
0,34664248358172
0,334055665615507
0,336859168611591
0,331578255662453
0,343929612272946
0,330253148300973
0,342017332912007
0,329030003665881
0,335949386394241
0,318953262205979
0,327377666780178
0,323950145572105
0,330719825895665
0,320237931459819
0,324983251740165
0,314621642536732
0,31599710987476
0,313196254875547
0,319478648502552
0,296170167950345
0,306711151299497
0,307250170802364
0,307117274241632
0,299271884283055
0,302704787662171
0,297962107693775
0,305410324632489
0,294486042901848
0,303807693625757
0,285437351308832
0,298190748571374
0,294533065602734
0,28989123177669
0,28080115069342
0,289967401599829
0,287564665130869
0,288991791305784
0,280705816059547
0,284263081115681
0,273062857718139
0,281818799811457
0,26907270467849
0,282116730525448
0,265656114235105
0,269683061133843
0,259470204827528
0,273131983192818
0,26665070010911
0,265109783764096
0,259182767973209
0,264766525930202
0,255482539737907
0,262849833833703
0,251720642919288
0,260925641370163
0,251411046484489
0,26286089265446
0,250343334906885
0,252310622382993
0,247378007166143
0,254437557660335
0,244276984488108
0,250232359433397
0,234998610695624
0,245592669985259
0,23788701669727
0,246135338871349
0,235179373833707
0,241051975333442
0,22771982952628
0,23376419350124
0,22893376383682
0,229181431424012
0,226841122461614
0,231874721836114
0,226973219119639
0,221125604257574
0,226008107659298
0,225792639392566
0,218008676176334
0,229543066670053
0,21671406880384
0,219690637186901
0,205604347413276
0,211937653792222
0,213622834216463
0,210735460394198
0,205995105314735
0,211330173254944
0,19705151817277
0,206930633407152
0,201868319000278
0,20320383892239
0,20047860502549
0,196622009422375
0,201327198235069
0,206442419105956
0,190548023396868
0,194196025316406
0,190663865201607
0,19390759044753
0,187192711950938
0,198448908866518
0,184661639714034
0,184244465465601
0,187416530397169
0,188747072227668
0,185580796194858
0,184577221771097
0,178502627957309
0,182279819238183
0,177526396693627
0,183562780854441
0,172592847337018
0,177501750113058
0,174144104692212
0,180431181381914
0,169413962553952
0,172978097713095
0,164279484473113
0,177574647689719
0,160794299969061
0,177588827945454
0,169715433143002
0,173946526020811
0,159531381740987
0,168281720630935
0,16036921251264
0,169190356816091
0,160862081149199
0,169020532001125
0,160748205898691
0,161111987953642
0,153926875720816
0,162994836548399
0,154818562012951
0,158934160489009
0,155577781671553
0,157639729484933
0,1491771356507
0,154120878962597
0,15001799187161
0,154937719349448
0,151600325965348
0,152524683821766
0,143589933185855
0,149769511914672
0,144606486318377
0,147500896551054
0,145183073130201
0,143622292039851
0,137965414644598
0,143886140769593
0,13968783148376
0,141895533212986
0,137455340546927
0,141144651546561
0,135583613010598
0,138069442139192
0,132525234296159
0,13716076533368
0,133108095713053
0,136930184117588
0,131569573304573
0,13434874165192
0,127687542993908
0,132696050433149
0,127122343890946
0,131640915310222
0,132635099563886
0,12985274546237
0,129060211897813
0,130881570899676
0,120225882298549
0,131690719869698
0,119673632061506
0,13156911372731
0,124025193823599
0,128831854701154
0,119776800776257
0,123732581223272
0,11743278048217
0,129155523261747
0,119399647185965
0,121588574274055
0,115298503009002
0,119433895895666
0,116152984622512
0,119185551533301
0,111410286855058
0,116788608139602
0,109972467768347
0,115549709253527
0,108498510482201
0,117263977744776
0,112694659799298
0,115513179421737
0,108062775179724
0,109348361048705
0,11006392832315
0,111189231450129
0,107501453558737
0,113895689743269
0,110173427678446
0,109876924641809
0,104224074017156
0,11204376002325
0,104101023116493
0,107387347460372
0,0983045415878028
0,104272453062517
0,101225856083534
0,10146959967108
0,10225227847126
0,107144606380425
0,100818623015959
0,103979125958936
0,0994627230748452
0,104341515771349
0,0973302214764454
0,103594605140381
0,100250703039485
0,10295039523773
0,0988340713948087
0,0980608159900212
0,0956170873079576
0,0997786597556972
0,0999565439500915
0,100125167608271
0,0957359515645665
0,0969617356014284
0,0934316107312265
0,100474632245079
0,0984177969462818
0,100628248618051
0,0928369992197578
0,102985252913118
0,0972915310644746
0,10146561855957
0,0981199280574208
0,100640421185263
0,0962907105704587
0,0979332878325763
0,0995960591385366
0,103029894335945
0,0941671904583864
0,100287429716342
0,0958017244871765
0,0981730999252832
0,10100039192674
0,104476669862637
0,0990616539717921
0,10876367029444
0,0998096000080874
0,101836470794048
0,0971814747908931
0,102827109012291
0,0999797146137339
0,103530926295396
0,101257718726711
0,105876067644118
0,104983815001349
0,107433070268011
0,101735625670053
0,110037263365518
0,104762121484124
0,108539712609376
0,104796442432692
0,113557585353572
0,105928569038799
0,113582995550793
0,104420219618318
0,112349958020781
0,108157197996294
0,112752197340803
0,110389782740159
0,121538965351843
0,115603197164822
0,12078198239923
0,113758934703736
0,118242901594766
0,121343171365503
0,120483354870461
0,120550185640103
0,127461245783167
0,12110069221432
0,130565776698736
0,121289342282356
0,127909280686806
0,125173545576134
0,13448132616037
0,126127623130788
0,131780337975322
0,130654112518592
0,14026399089008
0,13457485930776
0,138380915115844
0,137413679872673
0,142564093647465
0,140269573185884
0,144547435376021
0,139108749535283
0,14633597586048
0,147056302113047
0,155946277266971
0,145480517295686
0,15424212795629
0,150781635113608
0,155444057690333
0,153874558129917
0,161423909876069
0,150315708747893
0,157336058091687
0,152812271520114
0,154354908041753
0,152241131547712
0,165569544817147
0,152524669831114
0,158824293883616
0,152964830574199
0,15492468319529
0,153612894433687
0,160753916841499
0,147191828427356
0,150570919519303
0,152078962025994
0,155241297906091
0,15071476508607
0,154177464439999
0,149508036425597
0,149707071220663
0,147599094365896
0,149016502319157
0,14810952783132
0,15261266040128
0,144246779059595
0,149562709192275
0,143091580911723
0,147534152378669
0,145212369528235
0,148653351049906
0,144185543129241
0,148107659301356
0,143112875230227
0,145359328264719
0,14239737149027
0,149835122709044
0,144623432418391
0,145366542629491
0,144580006766172
0,149133627966714
0,139722001340017
0,148053799584279
0,144896591319347
0,146767952925847
0,146551720548194
0,143753730333781
0,141992220623002
0,140148886282054
0,141155448906452
0,146271582671983
0,143363372648964
0,14330430833572
0,14316915419208
0,139298732910458
0,137004291263198
0,136330477820632
0,136245217130282
0,142286121566526
0,136239241142551
0,13718941401322
0,133533777539201
0,134971208699733
0,129780051610669
0,134340496797924
0,12273055911381
0,131906999813124
0,125699462062754
0,127985271258072
0,128757252827669
0,129557344660233
0,11745162597187
0,124087461746104
0,115991366430216
0,120658692595056
0,11284883302865
0,118486920378545
0,113787516591781
0,11689245272997
0,111619027376953
0,118545307207064
0,110498468952087
0,108753982889469
0,104271098913879
0,109837362863824
0,10267516681495
0,106250691412922
0,106375511029493
0,107507997066947
0,101557102999719
0,103074693120613
0,0944137833002502
0,105714168048087
0,102559240755208
0,097490411187226
0,0962082885603769
0,100547579018378
0,0987799783376036
0,0978538999528887
0,0980032688790307
0,0992234238150048
0,0968778823392111
0,0963058083067401
0,0918096417590355
0,0998678167369287
0,0913512413791031
0,0942335622367215
0,090623698809682
0,0949173301876229
0,0913413744064145
0,0936611755165052
0,0907120806447886
0,0915330055054213
0,085779282326051
0,0922938469913238
0,090343443730939
0,0921600298282886
0,0898514374128972
0,0916213160502052
0,0883582431308992
0,0901979010154499
0,0846424538920862
0,0856240882230552
0,0875016016890936
0,0919721976848166
0,0874078621570554
0,0891224836822302
0,0829208358238269
0,0824750794762896
0,0811434293269648
0,0849126177024548
0,0845418678754969
0,0850383258803433
0,0807711825745615
0,0817715141167179
0,0787800518898988
0,0804206043903816
0,0757637443933203
0,0801921409369503
0,0805526507104374
0,0819265075756532
0,0766321482966344
0,0821108449993216
0,0765918819170489
0,0800983111497055
0,0747703054103408
0,0784089057610188
0,0746952926285824
0,0790869335142794
0,0758709269261232
0,0767101601012495
0,0716229833211008
0,0760664144393412
0,0726536235305942
0,0788805754200141
0,0756411143199766
0,0763060135512471
0,072004958489486
0,0784957035035316
0,0714892236708222
0,077003693523867
0,0721637255769078
0,0738529130252453
0,073292103836335
0,0767270671204164
0,0726697176864701
0,0772366446649203
0,071646968884699
0,0743275844844445
0,0713849438517822
0,0743911556409517
0,0720680450972422
0,0765490940769964
0,0742476609048041
0,0729216498636764
0,0707605221439553
0,0744667471568162
0,0701207302621114
0,0764964172337699
0,0722547376720124
0,0737899678904612
0,0724718945726602
0,0702798002816712
0,0703162111633315
0,0739952784615312
0,0708247644143125
0,0724413236334426
0,0675996193342517
0,0738152628225657
0,0715946220565603
0,0731742695075955
0,0682153724138071
0,0709074251125923
0,0666038017544977
0,0688291285572061
0,0644578146826309
0,0693271557942154
0,0640723358699073
0,0653926286749215
0,0672765974030898
0,0696014504223309
0,0663076559076653
0,0679271621577776
0,0685464514537512
0,0689729005604394
0,0641714879510512
0,0648425156906935
0,0617019071996408
0,0691261128268066
0,0652852516188
0,0660824951209652
0,0654250739018188
0,0652950650249658
0,0627846738872155
0,0652588417017144
0,0640939064625498
0,0661132056127057
0,0618066411267271
0,0651657237751974
0,061166830556276
0,0694158674446608
0,069330954080988
0,0682685573583018
0,0623247684800353
0,0658487703075156
0,0633576078305332
0,0674421677223349
0,0647546499123018
0,0653159850977675
0,0653975788468438
0,0641902489236526
0,0622077212991639
0,0695880609886949
0,0648738315420736
0,0628986878182895
0,0641796204866763
0,0687844168088291
0,0612587365702315
0,0664127980928514
0,06607654538538
0,0624229479108977
0,0576638736164288
0,0640162154003334
0,062418713482315
0,0663173310277687
0,0624816749381986
0,0640918376955291
0,0615622685447508
0,0617563375744309
0,060562467987665
0,0653591479172307
0,0600167583970794
0,0632885357672092
0,0599066805857311
0,0621601570226727
0,0627408185207053
0,0588488415535379
0,0563755706374125
0,0592388164842961
0,0593994825529929
0,0606346674315786
0,0584786750519027
0,0605626598432113
0,0594437415982067
0,0600110691713399
0,0578940586630682
0,058553067865542
0,0546173255876866
0,0580571733309153
0,0553315420458408
0,0575362178711382
0,0565858534186977
0,0604905193323248
0,0557971219557063
0,06016805182556
0,0535422187970074
0,0582009762379382
0,0558596564188055
0,0562085858441674
0,0548206976169917
0,0572653925767402
0,0546291601775686
0,0558610825867919
0,0555608466787652
0,0605166557748694
0,0571268365632466
0,0592850734589361
0,0555069022098426
0,0583251969608993
0,0535359577828533
0,0559705976160303
0,0539197175727763
0,0577595732701603
0,0544079487149161
0,0556793181768273
0,0528558673414962
0,0590184234509967
0,054847616071234
0,0559499288156343
0,0576259709315148
0,05343704913848
0,0513781321864314
0,052059242297209
0,0489709204758058
0,0520129637501826
0,0542928470903109
0,0521300747499124
0,0488698210558972
0,0535274940536459
0,0508431070044356
0,0565503746156163
0,0530982276210795
0,0519248984057352
0,0488636663258328
0,053872633748869
0,0516752516684739
0,0542620370269607
0,0495950423726135
0,0513974130351341
0,048279682680944
0,0524815518540345
0,0480805132919359
0,046995646708578
0,0482027204248112
0,0492070848732148
0,0465796688963206
0,0473310572774998
0,0476269667086979
0,0507432868978513
0,0454739965498644
0,0480622403282287
0,0472170904259383
0,0453894224205792
0,0451729594122548
0,0449774891418446
0,0467446066773057
0,0488377948199428
0,0448486050562894
0,0459468163719043
0,0419623097435571
0,0452096436980178
0,0435095389264419
0,0455751280290241
0,0428523545624289
0,0457815090421062
0,0446327056009816
0,046918763683056
0,0464536595825426
0,0447253677924541
0,0433567252145121
0,044784662189904
0,047623317069721
0,0485636120108704
0,0431994844030713
0,0445861310106504
0,0448831511817728
0,0459930410312514
0,0469991557156638
0,0456885776181522
0,0411457108798533
0,0442477770102879
0,0450220173631087
0,0453001408551769
0,0426421347586525
0,0447552756925713
0,0429226707865553
0,0463427794274551
0,0438319836291181
0,0451938348255512
0,0420571183381317
0,0431801853787242
0,0433217886937261
0,0425757143967348
0,0412481247134033
0,044895686766487
0,0421486249415164
0,0438011579588316
0,0413932556319645
0,0425757242093582
0,0400813485348472
0,0418311007092131
0,0422796161936332
0,044003335422841
0,042589179920568
0,0368704553314882
0,0362479907418873
0,041561947468828
0,0361601067138347
0,0397434535147402
0,0409430102770545
0,0426688702501159
0,0416397603340816
0,0414950560992091
0,0390053713701703
0,0383281564788146
0,0364700658567235
0,0392984622926927
0,0402818922533034
0,0408706318029601
0,03951745740982
0,0399217601318997
0,0391335822934826
0,0417733224622742
0,0369475082249224
0,0358719762484014
0,0397754828861938
0,0420426294534498
0,0400602283430051
0,0428734369290034
0,0403866442463286
0,0392731602029148
0,039479269804572
0,0414070651685157
0,0408658018302269
0,0420252844707726
0,0393066816993303
0,0421786794281814
0,0405072955254329
0,0410851677495525
0,0414562392997299
0,0407285107645454
0,0402100209194294
0,0419023158823055
0,0397451886313697
0,0405539468128684
0,0403839193647447
0,0412174473537704
0,0369664812607106
0,0396853868762781
0,0381037440571907
0,0385377710597133
0,0385539198897227
0,036276123827629
0,0379838293404723
0,0385888084466366
0,0377032140312153
0,0370132039505351
0,0391897951290223
0,0375965126400287
0,0374527087846994
0,0360546901670406
0,0386081301826973
0,0376622650183913
0,035919246451585
0,0390717635932829
0,0371872773945726
0,0381893545654318
0,0354173316057913
0,0355738916193987
0,0348455947063005
0,0348444699617155
0,0357414915773129
0,0343842074942689
0,0342299880593754
0,0358055592187517
0,0332118540572937
0,0357559770594754
0,0350897799007971
0,0343392301306479
0,0388614600430744
0,0372709583538036
0,0354860068409686
0,0376288421971435
0,0370254208438268
0,0339709146272282
0,0353213104429991
0,03462724572968
0,0344573348174702
0,0385248691877595
0,0374097601758809
0,0365270921878844
0,0348530688066745
0,0364768937355083
0,0341822972335663
0,0352653015520143
0,0349737583260866
0,0366180251581066
0,0379006129589538
0,0353707274949363
0,0338355110086256
0,0355901816474475
0,0368934145550705
0,0356102182477312
0,0354499127321502
0,0356309943937276
0,0344724428777407
0,0346126814292801
0,0360016398187757
0,03453403089735
0,0336765701938996
0,0329950146698949
0,0347657253121599
0,0363731621165751
0,0355959430413604
0,0330720954103859
0,0340602130518547
0,0318915226881297
0,033620941967303
0,033881748562085
0,0340060180119865
0,0338191806834436
0,0326551766105802
0,034548651621227
0,0333773057363223
0,0299062800564788
0,032656889496167
0,0332051167495427
0,0324026543609377
0,0326258625259371
0,0297987135112914
0,0300494394549637
0,0302560858117247
0,0301620000277863
0,0312329940751831
0,0324810859645999
0,0303127549975154
0,0300225443053902
0,032681743910166
0,0319109010040213
0,0328741209178214
0,033819986768829
0,0302319456218889
0,0293903850195822
0,0301474981804711
0,0309182642008008
0,0326499186176555
0,0324942473983945
0,0329839803306261
0,0305496619933043
0,0297584167383923
0,0310742131401786
0,0290920729108574
0,0317974842154412
0,0313016874475209
0,0312301312627226
0,0317255190586284
0,0305992432541016
0,0310042581895752
0,0296497945935067
0,0310029883376099
0,0297789519037489
0,0301114652379596
0,0307183446710648
0,0303055136497367
0,029991736285246
0,0292049274566448
0,0286442806821902
0,0320673963921572
0,0291016011536382
0,0302438067591176
0,0309299057071319
0,0309962193337344
0,0299815146709413
0,0291937321088563
0,0302552925701947
0,0291580791487777
0,0277905854901377
0,028260495947223
0,0266873675517737
0,026667752687054
0,0260255234716007
0,0267223868281643
0,0262406059103167
0,0271573244459309
0,0308985139636438
0,0301081335272426
0,0266886147304878
0,0249649169850611
0,0289953258204739
0,0293604230036433
0,0252215097673005
0,0265144854447884
0,0261321590830529
0,0256044029450251
0,0267842290688392
0,026563042468449
0,0251037797517693
0,0257193952633566
0,0250113794400094
0,0269467493156467
0,0273369175735348
0,0271854139430539
0,0246306538287063
0,0282762710918647
0,0268828826022819
0,0269795272754467
0,028432468834218
0,029439739003512
0,0253434315982957
0,0267027100347011
0,0269580063425147
0,0279697174748411
0,026663259026779
0,0286303852963406
0,0279378680496073
0,0289763709820531
0,0286915606834064
0,0293205835953772
0,0279829909474934
0,0299869760199008
0,0261372859647953
0,0304394810273436
0,0286349772246165
0,0265856223864307
0,0218240862994176
0,0209971156209069
0,0214823825778063
0,0293717942204252
0,0306588827123077
0,029193005466788
0,0119655347560587
0,0186456469602074
0,0252460375876471
0,0288640434917323
0,018611761182303
0,0235291390017541
0,0182109287400673
0,0205061036993186
0,0218754274703287
0,0230980102779762
0,0186291379741456
0,0227234201329677
0,0223397100945964
0,0242178200822753
0,0202684785035153
0,0305148054473317
0,0253239180081536
0,0297917045788432
0,0206871151068556
0,0269396360430564
0,0184848075824283
0,0294610804661357
0,0168150471084538
0,0257710542473957
0,0189066046966873
0,026203516139754
0,0191560089668604
0,024925774615546
0,0187990974226765
0,0284992375778408
0,013822683909269
0,0220551151299709
0,0091847130112357
0,0181800290449953
0,0149391797633882
0,0316585019210591
0,0207900897510901
0,0310839224524469
0,0135547433136407
0,0185062230284768
0,0244552521571118
0,031940857958743
0,0243643924234854
0,0182489996749854
0,0248852639388031
0,0290708727631654
0,0370706643070147
0,018814621575693
0,0326072919736419
0,0218400424297223
0,0468914746140209
0,0108542381805938
0,039129395164199
0,0181450755784866
0,0407306287711058
0,0148626907183713
0,0434507098122243
0,0195319567779267
0,0339846956308926
0,0236422492502844
0,0281440958297199
0,0254847551807046
0,0272695867284246
0,0299512846853311
0,0243932848713502
0,0243029011650172
0,0261793614410725
0,0255151480917947
0,026681807107416
0,0236111885270624
0,0272075989120584
0,021931614292473
0,0287562128407227
0,022084666028795
0,0247798141584159
0,0232395505255733
0,0225452907340987
0,0197764769069266
0,0234541709900598
0,0199365469617791
0,0240881783147907
0,0224619879797233
0,0229003495432839
0,0215395775455338
0,0241432654084138
0,0213615820947478
0,0231885403756677
0,021861293178357
0,022005564636219
0,0190987082382977
0,0225544732932515
0,0226437652022708
0,0243135794398175
0,0216770311854252
0,0216482199097364
0,0206577405035068
0,0223437085013601
0,0216009805102934
0,0240815927071051
0,0218746164944811
0,0236093268071433
0,0232432355242979
0,0223497666736865
0,0207317885775235
0,0238576225250621
0,0219381295611495
0,0240496135933731
0,0217634081037809
0,0221198146566294
0,0222692902849154
0,022463014999553
0,0224079739441915
0,0239159629733236
0,0200447081052039
0,0225821564443751
0,0219860929087893
0,0231517141964574
0,0220102789306111
0,0231204382622219
0,0211784134495396
0,021597578711412
0,0206052552768099
0,0215180371520907
0,0218397645913796
0,0219246469425745
0,022746730239639
0,0233133812073005
0,0202598535965015
0,0213585542280631
0,0228110547007264
0,0233725702749935
0,0207808605407619
0,022558218327096
0,0210420611625967
0,0200188470945849
0,0213502466884606
0,0210078054855361
0,0196068129420648
0,0204040629790521
0,0199406047096685
0,0208916646527466
0,0212875044394316
0,0212886005091274
0,0196180891641089
0,0199082936770745
0,0204200853525053
0,0219988503561264
0,0199895933632896
0,0189747352417923
0,0200997239690736
0,0230519173551424
0,0221877745201976
0,0207640735972244
0,0224289217441422
0,0223116203428219
0,0210641677146192
0,0236803714784429
0,0219694757705511
0,020930441673517
0,0200656618670711
0,021508192572737
0,0209178413538965
0,0212162933116767
0,0207987067424672
0,0213429450390045
0,0211859986284181
0,0217097633598843
0,0207903710303966
0,0210892933944098
0,023531939191567
0,0222391563403698
0,0218826585577727
0,0226090029347879
0,0203760367384694
0,0218030375931037
0,0230044858994033
0,0218802451275189
0,0219378366503635
0,0223945471791564
0,021792827740548
0,0211555689952084
0,020789601749039
0,020853609708315
0,021065063124418
0,0215499468345947
0,021844281197323
0,0214206500543132
0,0209713239588317
0,0208607511846052
0,0202598421497834
0,0213755025208784
0,0221398366797634
0,0227199788191954
0,0211323161502055
0,0224694290085387
0,0213008238401938
0,0181593458637944
0,0202322827060513
0,0209680405162846
0,0207718944027003
0,0218179767252442
0,0222971057445159
0,0208509774448554
0,0224422472586126
0,021984037520615
0,0205814533242387
0,0203392344116215
0,0215101272149802
0,0195153911535502
0,0195094529668643
0,0207259480458826
0,0201840278778686
0,0211306096836291
0,021892873264298
0,0218798280813234
0,0224949881846256
0,0224176751812355
0,0206770238948843
0,021184504957798
0,021322275979882
0,0215583944209836
0,0233070346238528
0,0223778795411468
0,022145135591779
0,022710508228757
0,0208167203461851
0,0201393106494806
0,0224669961675379
0,0229436216968148
0,0222797678536731
0,0223786043401026
0,0227077760088851
0,0197166675950725
0,0216546906571242
0,0231076622955126
0,0220443168165278
0,0209591244651179
0,0223038181933898
0,0215482702348798
0,0209373131054954
0,022632601092474
0,0231402779783199
0,0223549405692134
0,021796004373735
0,0218877603895155
0,0224429226526681
0,0222374225901344
0,0199108006158695
0,0187847556727666
0,0209354187571256
0,0208348653406896
0,0223491769581881
0,0205128280315972
0,01922654368017
0,0203454391092517
0,0189684335704625
0,0200783392137541
0,0215377059071047
0,0198377785166919
0,0207839459114297
0,0195557685346927
0,020411141042598
0,0196095635240803
0,0198531533346943
0,0199283500001157
0,020867535592929
0,0184891654127774
0,0191128851047385
0,0215168404671504
0,0212040970712538
0,0198697342507156
0,0208712576366217
0,0212593757411125
0,0225919334564285
0,021274187978947
0,0201841946669848
0,0213736696123502
0,0212082013316364
0,0228210582977288
0,0214298122348387
0,01880403833427
0,0204168864955613
0,0196085692390553
0,0201503892093879
0,0217097973569303
0,0208516311921184
0,019022922639052
0,0193466409044339
0,0186297926009913
0,0229216123996281
0,0217256050474837
0,0209766670904191
0,0216885710157125
0,0208801600256557
0,0212195973038085
0,0215151429512111
0,0209558535876056
0,020618402047822
0,0201371470344854
0,0230894945002976
0,0186864205441334
0,0206687484818075
0,0194889692278647
0,0183268474946001
0,0193627839615306
0,0200380473924465
0,020169200901513
0,0202975210863127
0,0219659483718019
0,0206602571928653
0,0187672924746297
0,0206406179200305
0,017005638081673
0,0176943765243975
0,0188297391989063
0,0203914517159644
0,0182711314833254
0,0193098636238308
0,019453074342417
0,0188793659050078
0,0179732689722802
0,0203221085035811
0,0232459440140231
0,0234370905103448
0,0197018705071663
0,0183272359481205
0,0182995122933083
0,0202966186828611
0,0202638723312314
0,020857055271607
0,0198569097536599
0,0204748774134624
0,0168766094479485
0,0181517662558223
0,0183721848725194
0,0187259939232041
0,0169960224871581
0,0190863998534886
0,0185705821198672
0,0211996863342349
0,0191174535466601
0,0172163594633721
0,0190107299409519
0,0195194902734917
0,0170594730857744
0,0204346073754637
0,0202477765122073
0,0216430389372459
0,0231257563454534
0,0233549926143454
0,0178099873627132
0,0191603348090498
0,0197209458376738
0,0207432259465392
0,0184747256576664
0,0200123749089056
0,0196664576228535
0,01984248652194
0,0182445462504714
0,0182059824548956
0,0173509368740704
0,0184153802745827
0,017201518238479
0,0182647452732355
0,0182638759374076
0,0185699034773638
0,0168079861353704
0,0201287972367088
0,0179906423118323
0,0176518162660231
0,0163989645792924
0,0193544839660509
0,0189819304049426
0,0218797300244738
0,0242215098552489
0,0208448928526498
0,018307984480452
0,0176492090633633
0,0176497621002356
0,0181918269109753
0,0155191280818472
0,0205567254708431
0,0190577517488685
0,0166855879111184
0,0188513949090509
0,0163893005444528
0,0140278375973263
0,0148902899558926
0,0172353864414021
0,0171456914621237
0,0135393737243133
0,0162373480635238
0,0157472318952419
0,0170027319420259
0,0167970697595237
0,0166780372590912
0,0172742511249526
0,0159777439792666
0,0174415715564223
0,015392524468707
0,0299227340288681
0,0297498260823867
0,0186931439759184
0,0180456778905806
0,0200557155933964
0,021522692820369
0,0178767770705423
0,0161290105215169
0,0159208095056125
0,0179231275690915
0,0148357910211843
0,0162138520001127
0,0167315608084551
0,0187234661659291
0,0177987629250244
0,018834652405497
0,0157692571654198
0,017115574155934
0,0177160659424203
0,0181852969443777
0,0169211474126479
0,0172240752957573
0,0151439372784289
0,0159539237866574
0,0174765302029313
0,0152329967977315
0,0176974085006401
0,0262807653882928
0,0242518500958319
0,0199912361373435
0,0188453259685507
0,0178687941082547
0,0130562483477215
0,0196830598807921
0,0181438336987335
0,0164560580241764
0,015134625861242
0,017311279940332
0,0154852109431793
0,0149649148066547
0,0174657039040029
0,018844434254991
0,0138793538299322
0,0163502695933715
0,0157874439638333
0,0169447942014524
0,0139276892042526
0,0145244567281998
0,0146339984102334
0,0191928050093257
0,0157891921895764
0,0209046295048141
0,0122098114829771
0,0294908152033005
0,0332903977554798
0,0229786532458774
0,0161842757665923
0,0164591705100539
0,0150557917368642
0,0166102707422306
0,0144804403814695
0,01624559467474
0,015266182471271
0,015317486105004
0,0182315386186161
0,0167595002922775
0,0148240452261237
0,0172079549948361
0,0159371529403029
0,0157041980691313
0,0159322683705127
0,0181584922884629
0,0165510699722588
0,0146844319406998
0,0222390536913725
0,0345037425057455
0,0209101428614648
0,0211206143713321
0,0149319784146069
0,0180835126613699
0,0395698837541319
0,0238420090985207
0,0213796971340632
0,014961125952431
0,0204377100532002
0,0145224839268454
0,0188993280500878
0,0118529112779714
0,0226422246197981
0,0234357131223254
0,021236247223383
0,0198231748996696
0,0168366265597412
0,0148293858561461
0,014578412595979
0,0139184872291732
0,0156433094287072
0,0158574620438353
0,015217198853961
0,0172340786177646
0,0159748291358252
0,014503982180602
0,0154734234655916
0,0124607064216364
0,0240248140269306
0,0212578661873821
0,0181538691517182
0,0149024770729785
0,0208962607230995
0,00956166073477254
0,0269586996894076
0,0306743426951223
0,0193813701784707
0,015608372769747
0,0133937002013112
0,0191118909008477
0,0165837697895162
0,0153847804303987
0,0122074722885592
0,0173134210802997
0,013990313697857
0,0163575483056088
0,014848492553988
0,0163202168599408
0,0117172480556095
0,0152089889643655
0,0151591404506153
0,0182550602623049
0,0123289505435249
0,0181255892294834
0,0179645761212109
0,0179095610982632
0,0406315884292576
0,0402652530505611
0,0398797200349382
0,028613146132199
0,0247073159505137
0,0166025753907653
0,0189942545703691
0,0140696468080953
0,0209613779128978
0,0169843341709365
0,0157262471002498
0,0165336943864028
0,0194105521849681
0,0154048830062817
0,0157863509957562
0,0139434760392397
0,0166505119758898
0,0130265586265568
0,0132929598228075
0,0133932487257566
0,0145372779035605
0,0143037741412917
0,0101092567505797
0,0273740912342757
0,022901443242518
0,0198004982550708
0,0102733128713637
0,064892369091465
0,0328129559452144
0,0346251442861744
0,0172113678256706
0,0199288975195848
0,0155749974637309
0,0157279219372926
0,0162997896349649
0,024025936890361
0,0145315022142814
0,0169499980363856
0,0134086900219957
0,0221128306416388
0,0161356565291314
0,0121476320570027
0,0310861423480044
0,053592368430862
0,0284500195782384
0,0269079679597454
0,00321597002624773
0,0402216663772234
0,0416101137693206
0,0220560275330364
0,0209878764518858
0,0166494311858436
0,0186180621805319
0,0157829826975193
0,0152504370018869
0,016312010874831
0,0242727825396096
0,0162757228091889
0,0167817138766002
0,0134095014743026
0,0169856214999812
0,0228943096318098
0,016636592222075
0,0323703247122745
0,0308275028815134
0,017510964971486
0,0217758645866297
0,0186500679028636
0,016580477043465
0,0175047493768613
0,0172980091784058
0,0140652226106996
0,0335710759392385
0,0310709948144267
0,0260055214700336
0,0371050600095518
0,0307453664893176
0,0189232871003235
0,0250124132776491
0,0272255438469434
0,0358503546822618
0,0063237011362622
0,0489312629808572
0,0349799068866798
0,054069310301322
0,0344964409641225
0,0222715234682514
0,0182473587054636
0,0195753451008864
0,0155032373973223
0,0164985377881839
0,0430746787473708
0,0151011810697189
0,026331630236849
0,00493433162240069
0,0417035457910358
0,0234248838089544
0,0324768611116005
0,0160708670689091
0,0195804063210063
0,0121562188093677
0,0478320133040834
0,0124252866164715
0,0296076867465441
0,0517935926360426
0,054941063581691
0,0580616047887525
0,0180678483693669
0,028532772338434
0,0559088179712727
0,0220236631044359
0,0263094137844179
0,0124244618657167
0,0304416674184573
0,00632870092030158
0,0350422470710665
0,058207378047552
0,0272895626077193
0,0225918456719729
0,0204624008789431
0,020779611138457
0,0542183058810574
0,0275027090710281
0,0236954033696324
0,0164402786770862
0,0260572457302329
0,0112526266153297
0,0935106306025197
0,0262246750841673
0,0672887162237453
0,0390830187803712
0,0575844891050839
0,0294835640370183
0,0391332542499922
0,0190642102019087
0,0519900314052772
0,0431627550610254
0,0335416787000598
0,00712215052586081
0,0622983515963108
0,039534984549402
0,0327400109276908
0,0293382190203168
0,0221559732399922
0,0227130607294365
0,0771602348063326
0,0881126044601825
0,0689889287310074
0,0241974457731648
0,0372175189609203
0,0545833802744018
0,0303489802510244
0,0266654776946793
0,0186293271347955
0,0197246083852398
0,0164883026820994
0,0191471159834755
0,0370504691059183
0,0192009691137929
0,0337113112358357
0,0154498882303451
0,0365742820649154
0,0429120012775756
0,103926076676445
0,0581741967934674
0,0504084123749698
0,0712409182790086
0,0567501600355746
0,0458605981849935
0,0231482841432352
0,0251017369423781
0,0376766178329158
0,0349344244405687
0,028569463183614
0,0237286737144087
0,0681234974380698
0,0314709591774373
0,0706248924054089
0,0458278880953118
0,0471782416034272
0,0321525680133656
0,0602044589832764
0,229009868531343
0,0568315423781977
0,0750230378105698
0,0331327866055541
0,0929667970316484
0,0919370329699672
0,0613536581844385
0,0386062268447077
0,0395295636586916
0,0313723841434376
0,0519721213927023
0,0499398315289428
0,0577027718407612
0,0641632033622924
0,0514227756191989
0,0420369547774058
0,0896356345991359
0,122364676560869
0,141465253931505
0,0667101031370213
0,0589702248368104
0,0722907986948132
0,0725187251750122
0,0467507723829829
0,0657878131273952
0,031409926934334
0,101432092148989
0,0859585355489761
0,0759026081060834
0,0524387278786212
0,0700444009151074
0,0867261091773685
0,0540005135169729
0,138950559988578
0,0778553610774001
0,0937430279540547
0,0486818423003999
0,074780481432819
0,0547587105327073
0,0715119404715006
0,0980794478833335
0,0820410034684466
0,0743081963044726
0,0663134343622635
0,0679266956476192
0,0672447209577309
0,0771716970429491
0,0734201612090087
0,0757041158232837
0,126520321224111
0,094577338159272
0,30645617626121
0,0953734160824792
0,102120341454244
0,0661552054433235
0,0964682355526752
0,115002694794942
0,106058050211017
0,153536942877926
0,101181556121501
0,0864013651910575
0,0723953885919646
0,0763096253600196
0,0758353158213241
0,0745374585109464
0,0804446814495374
0,0634785384956814
0,127084968189538
0,0609913401849821
0,176725275664313
0,109245663180253
0,104097408435959
0,0658774829950913
0,0808809635040897
0,0633314234087462
0,0813430105634901
0,0543009405889347
0,09695427669632
0,0791035981648047
0,0761842067704992
0,0733907237052739
0,0597827466985861
0,105565040953317
0,0928297676907793
0,0750234160140349
0,071157671168739
0,059188265453347
0,07368222582035
0,0427559027510867
0,104722705465023
0,099047391693919
0,0799556475025975
0,0592074770918958
0,0587201140416448
0,0569635177095521
0,0610934874732425
0,0569069613622295
0,0758086195447347
0,0626591613866043
0,064031815824629
0,0589907471172683
0,0577329852537648
0,0570632325508957
0,0533066772907438
0,0644902883176551
0,057698018536442
0,0602389386363457
0,0547116285106494
0,0600861826772483
0,0537300959103164
0,0518764782512599
0,0580026671333385
0,0576916683899101
0,0646858668719311
0,0576607880150498
0,054149797419702
0,0573905169770903
0,0549344310919912
0,0610914599426358
0,058281391023987
0,0591874065020836
0,056321238262964
0,0571180794967045
0,0549024178193676
0,0556570874602542
0,0579913914495472
0,0556162295529256
0,0512668758113567
0,0560392512687391
0,0540973765302942
0,0586308677672105
0,0627520237826777
0,0484978571208355
0,143625483934864
0,0666200292718636
0,0734503232013238
0,0471065621471862
0,0624763528611913
0,0465669042200484
0,0570226885253424
0,113079840548399
0,0776586746916521
0,0637898875469523
0,0550408625921771
0,0479470435729368
0,0812530377981696
0,0571980020844644
0,0556687140316513
0,0566896365789615
0,0408931451908698
0,138855491685647
0,0986619874740743
0,195458228540585
0,138277863711651
0,0941227479630205
0,0463852665110227
0,0985288243130392
0,0837515894943318
0,0566594868859829
0,0558233141122363
0,0399581895051146
0,120425254200561
0,0593792404788837
0,0617146461519212
0,049787351202658
0,0487619608216971
0,091612099136983
0,0926613895425251
0,0690298019935968
0,110991673690931
0,0927165105434143
0,0845499167102367
0,132447695296074
0,149811259409599
0,0966336615172114
0,0537033257199942
0,0657229095436658
0,0463569375241521
0,0768011347017428
0,116275267218981
0,0598346023198711
0,0881013566803659
0,0397620879165114
0,0588775333181071
0,0499983035986768
0,0941970774232379
0,0538646063177079
0,0817620506113693
0,0982944208831291
0,0495522434710053
0,0895168839928858
0,067483982819886
0,141294514493307
0,109732499245068
0,0757747541406205
0,0413620746787645
0,116312290816996
0,0985741395312865
0,0762041498069716
0,0750624349876337
0,0363996374958441
0,0623112540908622
0,075039267551931
0,0500050829082686
0,091751278946165
0,0721319580348576
0,110537896056551
0,133223082461576
0,14904264601566
0,122270884892626
0,0627875808781487
0,0494530005405161
0,0455778152286365
0,0500110836174456
0,052940826552567
0,0299132424617621
0,114186886804032
0,0441247228863069
0,0688530723948849
0,100251707124453
0,0589602287681763
0,0483610958671761
0,0490825879145485
0,0393281094002979
0,0617858002955584
0,0810272955521812
0,120757661278949
0,0640871802250879
0,0845583350477986
0,0715755368783051
0,063196484631974
0,0542791008118726
0,0543394213160756
0,051243814958922
0,0581220601803614
0,0712800696199599
0,059922613761729
0,0588701774836654
0,0657266355946716
0,0521673167187532
0,110065833711042
0,0891456233822182
0,0671484032415707
0,119199808950961
0,0876519502130785
0,167559221945769
0,0836640122420514
0,0876556252208976
0,0731712849087796
0,0800376066667598
0,0860026029876995
0,0707407218151503
0,112839606904906
0,116630862154494
0,0850854369828324
0,0900829459802978
0,0809129749153035
0,092221154569946
0,0891930659748743
0,146284540055118
0,106913606614293
0,211026841916307
0,125706410733928
0,144967494270338
0,100899782474946
0,0949253552509809
0,11263497686978
0,103772609649356
0,0987957738703228
0,0888071260059086
0,102974556153722
0,133531084246713
0,0976945356048295
0,105885661498394
0,0925810027184488
0,0998194516053846
0,0951524958380204
0,100163103588459
0,101621261830972
0,101128449864503
0,106468751025684
0,0971418375699271
0,11323576580023
0,198236568539174
0,119833291198067
0,124005386052271
0,1033899121833
0,123185904250858
0,104378105233549
0,112530209243836
0,130520514554402
0,12226589084139
0,117770675683623
0,115690457995379
0,114340662650954
0,110625289605378
0,131660736540636
0,150130467723452
0,108235423979035
0,138646071613818
0,0931921535474851
0,19614354192015
0,145666729100254
0,157851887828612
0,138210711714716
0,136406690888147
0,122024879482911
0,122891464899426
0,117321158370299
0,12772434994282
0,129574124997518
0,123918597906047
0,122832984349082
0,115536261426183
0,122804012658502
0,116160191540417
0,126911239373354
0,150082481863938
0,120339863641784
0,123776431260387
0,114320863199823
0,123309405423481
0,111769690250775
0,157356827463247
0,130703451339328
0,132414001906181
0,122588100040617
0,144805467220088
0,145475314207925
0,135008443069738
0,111081320435948
0,122615758368878
0,10539607216433
0,126839831925624
0,105153229782294
0,140024887352019
0,142265611328088
0,133697263722237
0,117787779369579
0,121108286720419
0,116823202182784
0,119847472516447
0,117184754369002
0,11825840866891
0,122419188594707
0,12250713274823
0,132182139000175
0,12033873196255
0,124980434907685
0,139270146926487
0,149480324702431
0,145928061816648
0,123104816333276
0,13015617930628
0,119061612861363
0,129457002722391
0,134030524160901
0,130809431413394
0,119774790498053
0,129193789935343
0,117437669586517
0,131289687783833
0,164792038845873
0,129120753437545
0,141878825052978
0,119515819233242
0,119934412888065
0,118312950746526
0,121693613941184
0,116275459147772
0,11631890620395
0,119668372756282
0,111557574744968
0,113920308443384
0,112549435516247
0,111461090174954
0,111620709943599
0,115443639204229
0,10872608657526
0,112110167843574
0,109396599682151
0,10893274158721
0,107367120766687
0,109785411168123
0,109615829864057
0,108339413027175
0,130007683060545
0,130734715216516
0,13777678921053
0,114992176942904
0,119016518059223
0,116075270299004
0,10584630074436
0,108014734759632
0,102419370465298
0,108647883469037
0,104558423584444
0,104801670554529
0,101064499492975
0,105137556132239
0,10255112442116
0,10482124304704
0,100247185479995
0,101981181706113
0,0995363858479699
0,104122935723786
0,0975162570553767
0,102263412750495
0,0949213125421281
0,113230417652651
0,101080489458621
0,105986148430791
0,100776732131514
0,0992824955817367
0,100713521732449
0,099396713256602
0,0997764308334933
0,0979197475043797
0,0951253804614245
0,100705169413501
0,0933481917044194
0,0979343583992666
0,0936563981182386
0,095278546629866
0,0946305129700722
0,0955804845365267
0,0936037941685508
0,0962022990049188
0,0913159173475159
0,0921131723168349
0,0891542298704473
0,0920253777958166
0,0877806539022762
0,0905312902053333
0,0890269646354035
0,0874415694376299
0,0860313488439382
0,0827116259586588
0,081127069853269
0,0828722818468659
0,0840704007571534
0,0830653287234553
0,0858570183991705
0,0869881339949695
0,0804723711185482
0,0808926656705535
0,0801086228628656
0,0821326670165989
0,0810772733337023
0,0806938963112824
0,0805236490205642
0,0820626697526997
0,0785991426206419
0,0819912972318086
0,0793479752434607
0,0807671743030561
0,077938683976762
0,0829801752356702
0,080577518220178
0,0833579951140287
0,082457298395401
0,0842266681125858
0,0828260619843306
0,0815996531881428
0,0842772449400477
0,0845523530747111
0,0833691276208114
0,0832142036793073
0,0812512118144638
0,0828545657839702
0,0809030527939631
0,0849113004075258
0,0861696798867049
0,0856497064577346
0,0824828992809268
0,084671378054465
0,0853687486275574
0,0851355959147117
0,0830797413825357
0,0851193518579695
0,0837180055703025
0,0850474902525294
0,0839683791100048
0,0846735901279515
0,0833861567523618
0,0841705273983079
0,0812564324752919
0,087047748505534
0,0840330748428801
0,0859117850601385
0,0835638107626977
0,0849604627083033
0,0826348320649699
0,0843657709312013
0,0832598512107627
0,0820046474413784
0,0798002748604672
0,0811310658191427
0,0811958465843392
0,0814952800856665
0,0798115200423262
0,0824878289933788
0,0791618073207973
0,0808196009924047
0,0811584983095733
0,0811025543223041
0,0782346388317579
0,0787264810368841
0,0757964340805893
0,077603423948069
0,0755660585799756
0,0764029426582928
0,0750221494349552
0,0762807415435571
0,072958924914473
0,0734930535882614
0,0719807719532953
0,0723885951202312
0,0716720911709292
0,0724156613950895
0,0724047377479579
0,0729698326555922
0,070725716729398
0,0714545837264377
0,0721466188807958
0,0699894127566164
0,0719079549564687
0,0715924860215603
0,0699588258801031
0,0714438849259093
0,0708669723574898
0,0708420491165245
0,0705922673160173
0,0722876299674477
0,0695516693892517
0,0721932544819239
0,0709498598766775
0,0725747505673474
0,0693952691729129
0,0695690560737224
0,0691417795539203
0,0680672380057259
0,0677764460449798
0,0678986007795736
0,066500602606938
0,0651521677372447
0,0647522684391101
0,0641302636783366
0,0617727527785855
0,0633535297494696
0,0608780546768827
0,0598678733503572
0,0608902768237661
0,0617024699772347
0,0635305896268295
0,0637677581468015
0,0627526021329184
0,0645258681255475
0,0658807433174134
0,0689053753854094
0,0719400690054808
0,0764106463056019
0,07837857551522
0,0815007432358303
0,0857032808235084
0,0911738988067989
0,0931356299711834
0,0980422878895551
0,10424707416798
0,109388090567758
0,114033373537854
0,121141055945922
0,126710566024149
0,134050022132666
0,14133279829812
0,14968588640653
0,156583973995808
0,165235856367844
0,170719500678466
0,181120158772803
0,187721245373247
0,194705755440342
0,20241667347229
0,208698176675988
0,213216960769884
0,22095614594386
0,223880435142672
0,228063374884493
0,229981029154311
0,231548212742297
0,232477680924413
0,23405191761882
0,231712650851694
0,23086805046919
0,228293977645442
0,226428802101125
0,223659528293464
0,223222793950842
0,219983129356761
0,216693503012184
0,211647158209597
0,209843157122023
0,207206201460342
0,207597215643145
0,204142116494503
0,203767840554583
0,198432185530469
0,200610290097153
0,198835403424108
0,199183610207055
0,199925429182613
0,202849281537188
0,202191711224077
0,205668904427511
0,205181817879984
0,204703570254178
0,212204062800695
0,214301973466096
0,215002966250265
0,222033888207015
0,218828398483246
0,223575420684446
0,226290346019218
0,22863168213479
0,228565003839283
0,231868270330512
0,235605856431768
0,236153168400176
0,238568313364303
0,239779325112846
0,240396960900045
0,243479399188724
0,242257161573236
0,246120497846114
0,245895049303501
0,244991377319375
0,246235821645654
0,252682450437555
0,250184343434582
0,250823573178618
0,253504835540261
0,257998992219814
0,26241066187392
0,26025177915877
0,262019145313518
0,263111384643344
0,266284751404353
0,269951846364479
0,271121101311242
0,276048123500916
0,277359337332151
0,282659734444914
0,284055424938084
0,292448008835261
0,295493753320508
0,302152694904745
0,310273204275608
0,318293107173429
0,325036905380426
0,333254546423361
0,342099007643108
0,352660847483033
0,363788525415303
0,374037727839412
0,379736512586069
0,388446618651146
0,394263968571507
0,398236697300706
0,401636321524597
0,401208702900475
0,400740415493409
0,404228052685395
0,399392639559549
0,394988895755335
0,390374230974538
0,38770403475457
0,381898983347285
0,379126917928152
0,374446570529073
0,373428889645623
0,37016521781871
0,369706614044501
0,368272146304204
0,371464522795323
0,373513183311373
0,378954876938758
0,378610853262715
0,383053256719817
0,385082838245696
0,394357197715041
0,399565372474496
0,406002981309318
0,412964763022201
0,4144740484253
0,422081744438582
0,426703899642391
0,43106452370813
0,440425799005693
0,444378904289427
0,449853193070388
0,455519679129572
0,462901065293751
0,463118176214491
0,467164898697175
0,472521760500394
0,479124798920802
0,484687165397764
0,492214466517024
0,494433008972259
0,497643829561673
0,506021252156601
0,509099320246318
0,505692478938346
0,508047446338329
0,515554801237958
0,518929246692157
0,519332128460713
0,527060401544223
0,524933949435102
0,531706127830798
0,533170163044212
0,529485299304259
0,5326546780826
0,532048092318469
0,526313824760038
0,526549017656431
0,525548041568094
0,520163517068943
0,513378222381058
0,508285449700954
0,500832644104196
0,492009510327486
0,479303395621891
0,469605465379746
0,455210833109966
0,44081892774429
0,424701820987312
0,410297068125443
0,403276068646835
0,38877885806057
0,374773192184757
0,364856633863579
0,354589188138051
0,341798628598054
0,333269695530387
0,326874979448717
0,319433021232509
0,310518815241634
0,306241592137713
0,300185997997534
0,292466991299081
0,288888901774465
0,28695562888612
0,278252691478452
0,273415576519697
0,266189548578243
0,259310115479537
0,253906564262855
0,24586516221129
0,237928055767046
0,232136410285669
0,221494064620046
0,213365147253029
0,207107151314756
0,197423105878462
0,184853874683014
0,175940508468185
0,164840172886163
0,155641558261233
0,148893930794153
0,139024325340299
0,132769946172613
0,118990464360103
0,116873145416571
0,108962846293005
0,102643480572394
0,0978458462226509
0,0908393280753539
0,084558868795266
0,0801323768093202
0,0747347994215348
0,0703952398510662
0,0661971151303228
0,0668552815389821
0,0635042940468328
0,0629311058869301
0,0597893075052581
0,0558580859846068
0,0535911138615632
0,0519406665112861
0,0506555131809233
0,0493949570795072
0,0489353847355605
0,0483476688204196
0,0471010290043406
0,0467669500414909
0,0462771608270297
0,0449601220250837
0,0427350868695391
0,0442632169392275
0,0442453624018428
0,0457490533497488
0,0446999379146369
0,0462988554008786
0,0455262737734407
0,0468222784324626
0,048102570826548
0,0482873958184568
0,0488228139718279
0,0519497118184941
0,0517370785036088
0,0504668889672894
0,0534376628528091
0,0572273140644643
0,0580673504982138
0,0552439379860728
0,057896328949677
0,0606073628110163
0,0627199163556506
0,0629934438389087
0,0598681473456425
0,0627736728915784
0,062252250261948
0,0602407095233659
0,0630411481857825
0,0621711884444283
0,0660523466842731
0,0623257415164141
0,0631644497250581
0,0624932389023584
0,0618729361636157
0,0624527932681993
0,0643369950912175
0,0629753387142183
0,0667471376429749
0,0663565589677942
0,0614767393494942
0,0645249933529914
0,059487856994159
0,0620153607809037
0,0632146869032726
0,0595023404320964
0,0674566612480696
0,0609568725093306
0,0639018529991518
0,0605888112390217
0,0597634861685138
0,0564976840005537
0,0584455708415547
0,0601117231529336
0,0551501243553375
0,0585953316726311
0,0616640164993018
0,0550749087633372
0,0562617798720904
0,0596857764578757
0,0632721600829808
0,0593340611388913
0,0626871039427872
0,0649765462586671
0,0659377253303186
0,060477511184344
0,0655041264932382
0,0620838396981728
0,065942960400261
0,0654468723615774
0,0638370152675265
0,0659880854836653
0,0611102031119225
0,0624221353111958
0,0608118149921558
0,0585801907847408
0,0545947646727572
0,0555376459671803
0,0573222101230006
0,0582253976704052
0,0601153395424133
0,0494151430247307
0,0526355892922106
0,0514615829339678
0,0576626234355283
0,0544726435864218
0,0553743574011809
0,0515856685234416
0,054531567339244
0,0584516682128556
0,0524000577413826
0,0579921754081767
0,0545429571366709
0,0533220728960597
0,0615141102607767
0,057208502473086
0,057633497093769
0,0556438515132257
0,0560221801433796
0,0627777259397531
0,0621550416011517
0,0588030856588324
0,062863660109679
0,0561853010080281
0,0574040088200352
0,0591730183522161
0,062652280943021
0,0621302736069545
0,0642261602596906
0,065051415403104
0,0627359471606549
0,0669502360227116
0,0605613256036021
0,0519457228454171
0,0637761238403785
0,0595777503197634
0,0598267733000962
0,0573641194110882
0,0648432649837847
0,0580689583840952
0,0617710615085063
0,0583743984205195
0,0521452301543317
0,0559254375300801
0,0571224833407026
0,0527494042943262
0,052988352051927
0,0537558949585539
0,0588722792492863
0,0539620260472013
0,050561025208199
0,0396616433873902
0,0505725585523141
0,0489016239521359
0,0534647055799879
0,0448042611607206
0,0569118370087761
0,0481481923043595
0,0467257032471165
0,0477122981057638
0,0425645123267944
0,0459806879605215
0,0526805767293217
0,0394663142681782
0,0443771950085199
0,0420903556152576
0,0474041239061243
0,0343169828085877
0,0519412583514973
0,0510699422824262
0,0531869910160821
0,0495759467026704
0,0459828414011381
0,049343215350382
0,0514196541055939
0,0462597392387469
0,0516211061895262
0,0426357738631411
0,0548708569549771
0,0511749832953371
0,0581686194748842
0,0522881746330472
0,0574664558165409
0,0549531547121217
0,0523571253157894
0,058427577377514
0,055421242334205
0,0580669302285826
0,0580523985120885
0,0652309182235865
0,0681262147641607
0,0653293689536348
0,0603953809735969
0,0663464021963872
0,0726166624501186
0,0647828738248244
0,0779824690842851
0,0772119891950791
0,0852932155651104
0,0754627815057338
0,0780357268324221
0,0917725484699522
0,09315842009416
0,079455184465639
0,0849629679223602
0,0781531828095411
0,0910496908042849
0,0760645146261553
0,100952312368585
0,0811657787664071
0,0868137352059482
0,0755326799576571
0,0795945946337017
0,0815305507476129
0,072918510140457
0,0879697404892687
0,105008409699511
0,0783084126682971
0,0790018230411232
0,0786271250353991
0,0956359950626092
0,0891004490743608
0,0870158260654581
0,0893266151185355
0,0819467170971824
0,0977148787388925
0,0951289478470916
0,0893815347600689
0,0918229140927299
0,090011699089015
0,0881889944488601
0,0956342725950861
0,0955128079866554
0,0819838731142357
0,0973760870561939
0,0755005816503526
0,0907940187810892
0,0753392798770073
0,0878135229320942
0,0858561689321732
0,0804906108158846
0,0955194215655736
0,0839315965682279
0,0677909538738401
0,0706990149331458
0,0737401183336756
0,0694391735160198
0,0638928721479746
0,0787696421300919
0,0680049706343044
0,0925477880235482
0,0974997180297553
0,0933360754011027
0,0649912377411402
0,0896884833370809
0,0775587051740862
0,0939018557054794
0,0813704554819146
0,0906259893446853
0,0760809467266158
0,0789425475540703
0,0779611353049429
0,0783032603136703
0,0832286586950995
0,106674930265002
0,0754770548133037
0,101307605606115
0,0981763201250994
0,0947553621453877
0,0851621208274585
0,0776982703883526
0,100062715333852
0,0896100004136618
0,097683266058566
0,108025147684568
0,0885767786194725
0,133720849632755
0,0863351912230709
0,0744543122452212
0,10636197371084
0,0860602067374189
0,116470102188213
0,123563883988629
0,12007246485126
0,105999874228553
0,100197633640379
0,114984096942334
0,114310959341476
0,111892986934486
0,113162171516733
0,12998416984171
0,125285046528327
0,111077219199557
0,100337152239813
0,124962552008573
0,120891592757742
0,125037659492917
0,154715708885658
0,101361176587508
0,109569852319852
0,12099659468767
0,116971441633985
0,10574080993547
0,0946365985336703
0,104442065862149
0,100895828576823
0,115426197141845
0,125514035013684
0,134017250039309
0,146808420532097
0,109208748089194
0,0787196544362274
0,158626978911633
0,140270069040137
0,126234959450938
0,109068654622072
0,133042301691385
0,102012053780875
0,113305387213228
0,114916874366313
0,111221637271983
0,124367929575985
0,143210145537029
0,115704873385084
0,0886663324517157
0,0816716394001817
0,0817157141761612
0,0235138531433425
0,134582898193319
0,133866179022552
0,102789804721015
0,0626999525712902
0,0240423512632834
0,0684406995302973
0,138052436213384
0,128382652727298
0,24847379642486
0,15916867228353
0,108244483041992
0,140880121848314
0,191312383241769
-0,00992369501706602
-0,0732914955929358
0,0444312606660832
0,0608417953819454
0,108743386207065
0,10620022648979
0,247662515252169
0,0945073220564178
0,0912422404693154
-0,0641847250314805
0,0218844479620485
