3596
4000,36533379555
650,420452594757
1
2
2
0,0944230767846585
0,0878907321594544
0,0982528319528407
0,0938640365197881
0,100158987045162
0,0866165538503076
0,0925471658012971
0,0840282203596688
0,0936110543663799
0,095226044650582
0,0942316220932528
0,0910781211570791
0,0859451441921376
0,0973298181596386
0,0925765786638712
0,08733188011654
0,0910582420521435
0,092902456426923
0,0910971108173361
0,0869784468281667
0,0922944727304781
0,0888125381105851
0,0842896682710808
0,085233545788779
0,086207031703898
0,0920154645603726
0,0927703547836853
0,09032831914609
0,0885455493225053
0,0930374226587739
0,0960041390689475
0,079136430276441
0,0962909492223988
0,0943118291526886
0,0815806784960049
0,0924226004061151
0,0931848056890078
0,0883973597081958
0,0901020736414616
0,0906144476809819
0,0995252376232671
0,0933594007178761
0,0899585203265232
0,086488900415393
0,0945333406847161
0,100462956732308
0,0894867112352533
0,0937904741624059
0,0942300445401418
0,0892572078708197
0,0994538184624646
0,0813429873358004
0,100466309878339
0,0964143067505752
0,0918264769299675
0,10881894024311
0,0967798931458164
0,0898739996378727
0,0914213399328024
0,0918909181775605
0,110834893538709
0,107073407107671
0,0817787428905651
0,0921368493321151
0,0848479894318039
0,0915662906834109
0,0770871374026889
0,0857156995854457
0,0783447354470105
0,0910201069003215
0,0894928076106176
0,114326088326331
0,119211271413096
0,0904607805516647
0,103201786904088
0,0974338909549496
0,0851520666994085
0,0829042051378667
0,0782718360193465
0,100009377896433
0,109576337285433
0,0928522403496458
0,0886230426093782
0,0875800282015687
0,0889470424839178
0,0999309056727585
0,0833109543072729
0,0882140831093842
0,12273881758569
0,0955644610098792
0,0846124576099842
0,0802539039810225
0,0830199145913338
0,0794707205146328
0,0835552570544688
0,0842310722225611
0,0839652286378368
0,079369137361497
0,080813636672487
0,0810838325633124
0,105363039517913
0,0850533095800245
0,142899988650095
0,085935509283238
0,152774006858566
0,108793225044445
0,0792419514214741
0,143222252563309
0,0894871725832286
0,098655025848217
0,0786456011336655
0,083073231990032
0,0800346062314963
0,0930683100479626
0,0799924274866171
0,117202492272878
0,123451683678385
0,0832157812188467
0,0816349705759622
0,0821409089864457
0,0762296465648976
0,103682480229517
0,144376273336553
0,082616585376703
0,103988699484213
0,0727317529752567
0,0902472107335821
0,114552754610777
0,122681712121308
0,0766774288379473
0,0907306691017781
0,0695872092187464
0,0805832825368894
0,0654635320337175
0,1381518431672
0,0940715138681193
0,079060932138193
0,0777580796774814
0,111850368770611
0,153404980966207
0,0977068529910504
0,0753731214046621
0,0858104122605898
0,079411480489948
0,127213957249081
0,0985889431154081
0,0777641036063694
0,0964999879868
0,0986693493418592
0,0711301727092144
0,0842459252020591
0,07223924751943
0,113964563303346
0,0905546242650576
0,0669913007573127
0,114682116615562
0,189762315240097
0,0817124169633469
0,166852660392076
0,0762093566974732
0,105103729187094
0,0832233839229896
0,0745328619848984
0,0673852063062008
0,0757535227232427
0,0723932579580424
0,0921658571653668
0,119418594976192
0,0758485375350784
0,0898401374949874
0,114583290032715
0,108315909635316
0,0867161216358518
0,159096238187861
0,117508206844009
0,0681888654769689
0,137102423976149
0,0937102363792156
0,0753734294353782
0,0865647613479515
0,126615067001995
0,0801467689856122
0,0918519455338633
0,0715918649340184
0,0888980128278842
0,0895719789581778
0,0929498377617225
0,0746637035644751
0,0911817229368003
0,063660978693761
0,117148300508026
0,143145568324137
0,134344122203113
0,0785127061500059
0,0844992413136963
0,0470260130856692
0,114619465400539
0,121094755168515
0,0796691494676134
0,0727837106741596
0,0694805491710653
0,072137229667125
0,0717976893220715
0,0675713125686106
0,0740828347940455
0,0563682644947985
0,133770890754034
0,100744721084478
0,0865710456058869
0,0744863775358092
0,0893935227272235
0,0866612113633317
0,132902968774496
0,125483412306015
0,0803048316044355
0,0924554760701318
0,0688256440972454
0,0911090762232582
0,104869489161284
0,0717189057981484
0,0797351970039717
0,0755002751148615
0,0786982488362547
0,0685146894520251
0,0681009098599843
0,0712703782563442
0,079894422583968
0,0738096888042337
0,0807540336187477
0,0780712182828897
0,0901804370171087
0,0844628451792206
0,0797646466570893
0,0746190433413814
0,0769822745103643
0,0805425946988725
0,124300887202347
0,0744342158205838
0,0847135909830005
0,0724738266904
0,0778060360914181
0,0664958704091451
0,0808634928675358
0,0755350614449045
0,0844239753871869
0,0672329680135599
0,126390803151341
0,0853559810368242
0,0790409101307171
0,072936627369182
0,107109515814361
0,103128273324006
0,0822171515735445
0,0819449260284415
0,0754695665757208
0,0763169729664302
0,073596634299772
0,111806075657482
0,0903438803344064
0,0856653921474638
0,0989931890317357
0,093043613379452
0,0842641263263417
0,0949496960928138
0,0726407969951415
0,16375255944107
0,113018687880529
0,0820745873250844
0,170085493311273
0,1053950486335
0,0930463109560603
0,091832735611372
0,0628268330292405
0,199153020283812
0,141435058843495
0,0926697718132418
0,0985634774407502
0,100654140282922
0,0868372267449728
0,0874466556883272
0,104432316692056
0,0937410770700306
0,135634312874223
0,15777882659943
0,175589682372939
0,0742839839999519
0,11958644901207
0,134029493792215
0,0868119079076494
0,0886944727759049
0,081870100606995
0,0883093485397658
0,104715564309794
0,113847769606805
0,1080277696601
0,103156171706627
0,0839337942331254
0,1314608864363
0,0939908067275551
0,0836285838209593
0,0966944133434149
0,105757177722184
0,0846289538760898
0,09233274377271
0,0823723610792559
0,0979610448921675
0,0875111388710111
0,0780365654699944
0,152457996088381
0,124780074539591
0,0941612116650806
0,133173410568572
0,0969886105229541
0,0867111408173421
0,0879946724311492
0,0841333724861259
0,0836565726347898
0,0832761523474814
0,0747599411276575
0,11912782446009
0,104775812565892
0,0823851200066414
0,0879869137204008
0,0886103230256007
0,0877582082745358
0,0850306650412103
0,0947548108064873
0,0896628828077705
0,0945240707198361
0,0886839843094812
0,121682913841382
0,138545652686523
0,0906966086840707
0,131065168966775
0,156406284406793
0,0921460097397294
0,0954486537890578
0,0901941836733786
0,10798712279197
0,0922404270827299
0,101618225616484
0,101712104495509
0,109120971293044
0,129545122653423
0,119069265636691
0,104618129524939
0,127359417126652
0,184608973046541
0,204674706818855
0,123616124892831
0,11783185280723
0,102798024110619
0,139609053095392
0,167795233614569
0,136201675085626
0,153871901643897
0,1091740541366
0,119119584202025
0,110928971734955
0,116828005139988
0,118071776724055
0,123055762828448
0,128079768328184
0,12670192373926
0,127355026211903
0,119986961546718
0,130237025306084
0,134547252040775
0,179139946509151
0,145956867945625
0,1321712500854
0,141745136554301
0,134162395496453
0,1681715904774
0,195927350277749
0,186909595703904
0,210939891381429
0,168416772408676
0,224263201119684
0,156723799966784
0,150832056266289
0,145339883562803
0,163297510792479
0,154175284089977
0,163191516953289
0,155628728509588
0,1591933141491
0,155519217776505
0,173807999612894
0,155790434659267
0,171719208284622
0,158562939604984
0,201670054409649
0,178300392718751
0,181456680061717
0,182449569173362
0,201892453466128
0,254355105271461
0,237564275828641
0,208825368077049
0,194993052454563
0,19163410363734
0,185751982245501
0,20567242158358
0,18356960852095
0,204041202209551
0,216280700040061
0,240321235822374
0,242847009236382
0,228196259874492
0,24216704974308
0,213685214954422
0,248707180138734
0,236886267657031
0,244115123559544
0,259450682344702
0,239642964458363
0,231054294082939
0,257003712560489
0,276242034110303
0,249904534467764
0,26781548020089
0,24359982278989
0,244368016728313
0,247293120327247
0,250663820669843
0,251597336130573
0,265950749856471
0,277152647429199
0,263477803804535
0,278745509238408
0,272769826911227
0,290953224996204
0,305756162768757
0,296486560211474
0,278460148296573
0,311878257757376
0,276908537710275
0,297855793322413
0,290213854982679
0,324210013133264
0,33061752108563
0,318270107214063
0,340091424981574
0,309653227498744
0,3146838300231
0,317973362353502
0,309811122502279
0,322577154959589
0,341687482034178
0,340158793654109
0,337408823680034
0,351126096559523
0,353466887731368
0,344228661643552
0,336167964549457
0,38019458124449
0,360995113870863
0,361187580238147
0,365573442836378
0,380817641976876
0,383949277333299
0,42420492319591
0,436454067133593
0,444119340556261
0,440396589619607
0,399478541887245
0,413105764190083
0,420064465609528
0,402615076731232
0,425285019165068
0,43523700609916
0,438435674382838
0,438973258452698
0,450272881147768
0,432885324742659
0,444624104560948
0,437944989437472
0,451512000012788
0,46785832862754
0,473340702292422
0,461167857518643
0,466098435225184
0,464421240720435
0,489489276239019
0,490777524554084
0,495224666124994
0,511230065928884
0,502448607120705
0,490857432758154
0,512034634235284
0,515832066399186
0,516790424649633
0,499824606661589
0,546881978447739
0,533900409069952
0,54112187094307
0,543907131541696
0,547415211667375
0,554393900290667
0,552230015342116
0,553033479320843
0,570111552577943
0,560843398119003
0,597098478185941
0,572231463235357
0,594521594669615
0,594081396819339
0,590614392450996
0,584253386985097
0,593212561050789
0,624691582085655
0,633687472035045
0,611383372709677
0,640954686421823
0,639723520375721
0,646217499761751
0,633464698085309
0,659920717257331
0,649885083269866
0,660419739010308
0,636281774826617
0,657130833906715
0,674510723368171
0,686595231399458
0,691633467652463
0,708317256386607
0,684762285491965
0,711065281169167
0,707456609532087
0,705389329223987
0,714348228035564
0,723795409078973
0,698777831518394
0,717708209301422
0,720110325951417
0,746260129904296
0,748316851725724
0,758388232374116
0,727608838303536
0,727254827760149
0,751319267289372
0,758859587991315
0,730964063674426
0,776187345219699
0,773755886690692
0,801458973682526
0,786191210276635
0,834255842730767
0,823478908792686
0,850844838219989
0,810483469065852
0,832527016127844
0,816177278433858
0,817662602638162
0,850690773910149
0,820801799716147
0,775862586993055
0,871603371440394
0,886432202105125
0,837058503579649
0,853808539716325
0,884833946890341
0,854916949220309
0,889537734132339
0,874732363979728
0,877376601289945
0,846418871712314
0,846826705725094
0,904183634677415
0,946636428810138
0,894756268003217
0,947323161619636
0,884118990120781
0,911335172223476
0,932481442478587
0,978665199322518
0,897856546838414
0,950425230158557
1,00739036467117
0,969921627183955
0,958110847357694
0,99241513359586
0,959289022897597
0,965899623665649
0,958139295852906
1,01176273403484
0,983509242224756
1,01074114579838
0,988243391871105
0,969186649250347
0,971410948081949
1,08777768355251
0,990419951814237
1,04758033657032
1,04217072288034
1,04221803732121
1,03059452120573
1,0352276818749
1,05412645305247
1,13380657747936
1,06674630241952
1,03127425036006
1,02486832332385
1,04326612527828
1,00846830368336
1,10681859059101
1,10640016525874
1,14302352587878
1,05642508566927
1,07883420334774
1,09191505258548
1,1512926541102
1,0971022471972
1,09636589712409
1,12588426353131
1,15882917660414
1,18036915594555
1,15980171019025
1,15040175615894
1,2271299005812
1,1565290190461
1,16235894072312
1,14452640798575
1,12926893959517
1,12159553957194
1,1683740474539
1,16006394413032
1,18034070093826
1,14241095116904
1,18576467201756
1,20323253580759
1,27207631520089
1,15288845239393
1,20706673313178
1,25662883396992
1,33001779084868
1,19266291974332
1,18563990013936
1,11750263143989
1,19879430454881
1,20378696435062
1,20989261280098
1,18076108963273
1,32017074217001
1,25242797621911
1,2921540571575
1,24752421586825
1,26877876553114
1,22867550064349
1,23742263457069
1,14736833388582
1,2045843318326
1,26921038949429
1,36643350787796
1,31271073054754
1,27892360277795
1,35129904697103
1,4289094929496
1,24227090064987
1,27879108664942
1,29037428800257
1,32939511236425
1,27764979556044
1,4274671506264
1,33621909512572
1,3220993648096
1,29813694556477
1,32290860609843
1,23257567328679
1,3776403347584
1,26570334950198
1,41326497541402
1,35054656454437
1,34827714999994
1,33709521079466
1,37718848478706
1,40363894146596
1,40525086322582
1,39506829379561
1,48567979214011
1,32266298857677
1,41721261395237
1,28980599668656
1,36876610379365
1,26185621757246
1,46625905559765
1,34092498367191
1,41134409864455
1,3076576459469
1,37318851116893
1,34711211470573
1,34638415300967
1,43304794962769
1,4109007534621
1,27120628273304
1,54557815310998
1,39236254149017
1,33974319308749
1,36677684634933
1,59567389464856
1,4138893656855
1,36966139847594
1,33234186133139
1,3912343806829
1,37855144946872
1,40438320298719
1,3563816963171
1,50750707273808
1,46908950303886
1,51374306446947
1,33184094598394
1,42309999717768
1,42786013959237
1,41796035457689
1,35042151653259
1,46297222111955
1,33855146587936
1,53563082952292
1,55363347295899
1,42483757194551
1,36493434094096
1,39570711505798
1,4563938325613
1,61790656241881
1,42225206647984
1,50317498255553
1,4016733143637
1,59989164870377
1,44786913456931
1,38524740550114
1,38473994160689
1,47007063065248
1,44247638597535
1,40625713985812
1,47043486619213
1,50600015085986
1,32277306499782
1,50908650988841
1,38224165513701
1,33713356211968
1,32167266767086
1,44449481413597
1,29474514729652
1,28635052453539
1,43523414274708
1,51014900050678
1,46055117607539
1,54089043648189
1,36463606692915
1,51626581092933
1,32660242512413
1,40828068072468
1,42291091905835
1,43801209239435
1,43031888427624
1,48664241334374
1,29848181489164
1,316791925667
1,40819702593272
1,56986134505704
1,32953564970931
1,49018552794349
1,47163152346982
1,47646372044787
1,43798553452191
1,42070674021937
1,40970355162257
1,43751950779266
1,41610951047662
1,40390394370236
1,35900417742826
1,42871959394335
1,33522386956943
1,35673323379813
1,42590583228691
1,40844079939514
1,32915358213717
1,3809038307515
1,3654042618211
1,34731289357523
1,32194933404324
1,45695931241362
1,35002699416259
1,44181695040193
1,30841263890069
1,44153705844543
1,44102771392025
1,36406257226039
1,44564488434034
1,5373587134595
1,36896790897914
1,45068134608428
1,33222633059738
1,40850098136071
1,25574929797816
1,42350620426624
1,39493139587844
1,40624490157379
1,35282947881311
1,45217516730266
1,34353975630333
1,35290918597093
1,31499662364919
1,39573101677074
1,27944879098567
1,33815855767087
1,39616180880813
1,33607135063754
1,36228009091812
1,34554783891917
1,32909503430818
1,36801461595144
1,27834663293644
1,36028012426872
1,26883660518439
1,34763397435267
1,29321829869923
1,31282218849707
1,36737368619425
1,30970253865153
1,22538999364126
1,36003184303085
1,32090665980465
1,30569772286705
1,34456567176277
1,34229433820969
1,20491029829787
1,30648901916786
1,33572875430076
1,28912448623935
1,19290715673568
1,2535749286017
1,17282694928934
1,27751603526488
1,2358800729341
1,2983181663137
1,2148616090571
1,28303676822294
1,15625165446529
1,25203806570556
1,19858507085897
1,19165445393938
1,22860649928601
1,20009510497043
1,14983012952903
1,23444354774128
1,14652334607277
1,25122107390053
1,18551594917528
1,23277870954249
1,13681038698952
1,24371636616956
1,17564783677209
1,11499053843642
1,1463436741617
1,2539732877114
1,1352891709805
1,13687927010175
1,1115533861624
1,11366683296892
1,14568104369093
1,17646549178796
1,10064300541501
1,1442654274501
1,09730076666286
1,12187719510592
1,0930436830941
1,09830647597748
1,10255110659908
1,08893187393737
1,12386905202946
1,13571440753631
1,065352018532
1,06708771678867
1,07822858904273
1,07905280493685
1,0532406154799
1,07496977603337
1,05047328461719
1,10046919634418
1,02326700089541
1,07893227614011
1,01266500699992
1,06733586457016
0,997386112430597
1,03743637793497
1,00182123188314
1,0253140726561
0,970621041149676
0,978833024007551
1,00692296174769
0,994800872497968
0,948283106068192
1,01232410277574
0,957539534950543
0,983388698650286
0,978415824974133
1,01598393730171
0,97344536373325
0,961974791626738
0,932929045838103
0,938461583409091
0,911206826534148
0,973809954969138
0,930063776686681
0,921475784106445
0,912843565116912
0,902025131942579
0,89054810174011
0,888255719819175
0,870189906194673
0,90199630869148
0,867739811454477
0,928141521654706
0,856220972237113
0,894364350954332
0,870027478966639
0,86992622451795
0,864553727655477
0,869339384755165
0,84477462812491
0,869455050488686
0,847938840294177
0,83557483430563
0,810142247407355
0,841203733279338
0,827145882598732
0,828270286884892
0,805423759910426
0,812823775336501
0,79344388727316
0,812965843568008
0,798975816428433
0,779990736682004
0,778003261121404
0,794067971522375
0,771252463212977
0,754239234298569
0,754581305265723
0,791715216342467
0,752122075107179
0,765429964700774
0,739933075500234
0,771693959762362
0,734996252551861
0,740583354759506
0,723258153106166
0,726899125099294
0,727103257794353
0,751965611706807
0,719009544387592
0,730312703517616
0,708166698319788
0,722094176943235
0,687837622863634
0,712691975571315
0,707531213126462
0,705026717452391
0,700652665798664
0,702762674075886
0,677174597170206
0,689662213934477
0,659050546326734
0,684791490461038
0,668727269043273
0,670937422413153
0,651907902386482
0,672521050414211
0,661853741534371
0,671144866489496
0,629378649238385
0,646701070830461
0,628267903014319
0,635337500351134
0,628608181264918
0,631722785735724
0,622715242639837
0,629365191488477
0,613073168682351
0,631866843796374
0,600864129527983
0,613232684897025
0,596847589799592
0,602144566289673
0,604807341607368
0,605434120739324
0,58658649014149
0,598822910398716
0,583854186747648
0,596179547845563
0,586176254185171
0,574328407906651
0,572903197496107
0,575161166196639
0,568538059498774
0,567777073067263
0,569334565865811
0,568035708811535
0,54688548892323
0,55130516808886
0,541174139468373
0,55447878658195
0,54255924147805
0,550830810061049
0,530952117356227
0,545332452190679
0,535375695381741
0,535983742728608
0,515929049250316
0,528275576569067
0,520720552624828
0,531241418814476
0,507710230829344
0,516663762241511
0,509306271139786
0,517151036022882
0,502787237154077
0,510423285689717
0,500586986031426
0,505575512792081
0,485126712504873
0,498048707417778
0,488046184551436
0,495824242828381
0,482229879581838
0,490185673705318
0,474446060589227
0,485005835557492
0,47214795141895
0,486383751435005
0,471197328930957
0,470054836122431
0,472113135320433
0,464803460226493
0,452181108720077
0,472204867253599
0,451002601271744
0,460112766975542
0,452860228234302
0,455145736551784
0,444821514448016
0,452071581599046
0,435660117083424
0,436823683190105
0,438427171445822
0,443591814721648
0,42955400992567
0,442716702001688
0,431671868762778
0,446044218758669
0,422591734400298
0,432846125624695
0,413815195329267
0,433338022755223
0,418452198057121
0,4270864781814
0,418257588184207
0,419970443072653
0,416055529421517
0,417341383964657
0,413388201816435
0,419114856612538
0,409321274175121
0,419124523229195
0,410135009007981
0,427143180516284
0,404974023878028
0,414506553340222
0,404765801303224
0,420218525440624
0,407449754602388
0,413994187560575
0,404595113965552
0,410609205155542
0,407038813075387
0,406002282585558
0,40093473541527
0,413483706836075
0,40859130631818
0,399360019728818
0,401533421802447
0,415497942937615
0,408080063041734
0,413182754742448
0,41030900536045
0,420040791052869
0,405182299828777
0,423571037075848
0,407867890278009
0,419674592335811
0,418520962359883
0,417385224387196
0,416736537000294
0,432021952998948
0,423654334817559
0,429352505554432
0,423520231562579
0,429146009734362
0,431007720792282
0,43597621588654
0,432493679612463
0,443591314442866
0,43363660166306
0,438294406831599
0,433982159615631
0,449654638849384
0,45237584783557
0,45548656936641
0,443105647065973
0,453155257309352
0,443398491595307
0,464283037762876
0,462078042840611
0,474217910646809
0,462766675322952
0,475910950974386
0,477912299198959
0,480411880194253
0,475433968632274
0,491692354647896
0,486674853225393
0,497774721719041
0,487668993660535
0,506531321148081
0,500756620977732
0,511917382478001
0,517301135920254
0,522621852714946
0,520835313502482
0,537833627513894
0,533169723296566
0,536947489884825
0,545035742616056
0,55254901194938
0,554382935281005
0,563467065843194
0,561352523507195
0,582408714629616
0,570062077587565
0,591027501308565
0,589173645560396
0,590384508343002
0,583077816316174
0,603259863630981
0,582329620525702
0,599067766673568
0,606071854734061
0,603732104652634
0,605053347904133
0,619387006390258
0,604315524860558
0,605220917223106
0,595653192446946
0,618630130978431
0,595976387482412
0,618661426475735
0,598086118643702
0,609046658832985
0,597020893878677
0,61152368220213
0,591641304464987
0,595610277751371
0,583672680691394
0,586766081522582
0,580932740281794
0,594766434715041
0,581596074370224
0,584255658261678
0,580824201406823
0,585187999376233
0,564631773702121
0,580906995594556
0,566061369440477
0,586139186356072
0,581622245743694
0,57657370214694
0,56770914894099
0,573935289144013
0,567439600942975
0,578896672219625
0,573463533153079
0,574934644218594
0,566699254793595
0,566356026037552
0,569002701445444
0,583335116422237
0,565403752237061
0,576715812166336
0,56205787126077
0,570696638499475
0,563328685903471
0,562536193008811
0,562192204484433
0,570110458207913
0,562576279043863
0,561311460258127
0,55030774243202
0,566973110418288
0,550672708396429
0,548563359015724
0,546062739564434
0,555374034100288
0,541803760672141
0,546387888142239
0,531258663896232
0,538416724082158
0,521560863559528
0,519752169082683
0,517999042195982
0,523955793767827
0,514386693563521
0,508732803282764
0,495330234654376
0,507068435027832
0,498497060517073
0,501289134740191
0,487760058612298
0,488748034431639
0,478496096914627
0,483238884076421
0,471397118778533
0,486537613456407
0,46264558395675
0,478829383662705
0,464098653586504
0,458011326878377
0,453430651355922
0,455295350061782
0,445011549912691
0,454039765330792
0,439940695172795
0,448079067355105
0,428661767516875
0,437640000792051
0,429726602197374
0,436202758688487
0,429411254263319
0,428241908170474
0,419532079686244
0,423080335709985
0,41219044673369
0,415127148626121
0,412321648009854
0,413883133703044
0,407746503762285
0,409148933774895
0,403514210182945
0,40923991568827
0,398917435055741
0,405499335014622
0,393265592972456
0,403303830027397
0,392166038149852
0,389585071018977
0,390578447651065
0,389722532245951
0,379959999403985
0,394633335920641
0,384502901489203
0,387004492784877
0,376395863531749
0,386248332985536
0,382816042183114
0,383676862432796
0,379851048966341
0,374219816321464
0,372849218733243
0,377866993551868
0,367509220804169
0,370321964534115
0,362045126778215
0,36716198837816
0,359742652603472
0,369239671528448
0,361067999848489
0,36322738651201
0,357471610511749
0,361304475250035
0,350222171386923
0,352769613383561
0,337801607086844
0,35129749550707
0,347868510328143
0,35040759711256
0,349320882219705
0,349954185845063
0,346022839110706
0,349631924323809
0,346332883986928
0,34498479127922
0,336651251871084
0,345717729159624
0,335435661454683
0,338898919440724
0,333902818513635
0,334472291442729
0,329366390772731
0,338614423010463
0,331375485159283
0,336332789607748
0,330055930700813
0,339867159763839
0,327806392841615
0,328924161571058
0,325820324404706
0,327667540860637
0,326949692517419
0,332044287341061
0,329863073670819
0,326533367621311
0,324807054018031
0,32935180014687
0,320504514469911
0,322411749033567
0,320734070242527
0,332158436637663
0,323844059975021
0,319252541641791
0,31171465132286
0,322980142288572
0,320416928943265
0,324637309871415
0,313940931553867
0,32056911822522
0,316816744486856
0,318749893398267
0,311411592932678
0,315853078814367
0,31487882905715
0,312243289219988
0,310902390877898
0,313676109477666
0,312732154537395
0,311796507662259
0,306767388947616
0,314788985066894
0,312452433862723
0,309419596928889
0,302875736269105
0,314167636386103
0,305231581063686
0,302364076869133
0,299658953169148
0,306974389706334
0,298876450986124
0,308260893652317
0,307246856850889
0,303899093258867
0,299095757178687
0,302159291441705
0,295121164817717
0,303763966023799
0,300805950454221
0,297881988765035
0,301224203714348
0,301957775854498
0,293849371676318
0,297757813858039
0,297877424903011
0,301266201039012
0,293495162703678
0,299834938629709
0,290188372015423
0,300661343060907
0,295622845601368
0,302211300268343
0,291624577383922
0,29948864577006
0,296387913705627
0,294742974388091
0,289334516768092
0,293321856040257
0,290040911696999
0,294157991316875
0,29294240012181
0,299526342655782
0,288211286930216
0,285259857229778
0,287259364020119
0,2915711844562
0,283299990561184
0,291167031382435
0,285998910001329
0,288260640830611
0,285340120701037
0,285109544817547
0,283559481278729
0,289887602523016
0,279728194129512
0,286644801735129
0,281278038294825
0,283523937744543
0,279355465667937
0,282377344484304
0,279493139022033
0,28341651945674
0,277550978878147
0,277960048702426
0,27976835379369
0,28195054671957
0,272042255113501
0,275388124156339
0,275911288401223
0,276143730289986
0,270988113052488
0,272658915777702
0,273503243954512
0,276262640446437
0,270638614470632
0,277272527649926
0,267390313948566
0,268182448573614
0,269258434141471
0,270025061482414
0,265497085073952
0,273310115666361
0,268871883047812
0,272742308526219
0,259760820924332
0,267288875994587
0,263514930739289
0,263239622108842
0,264347878444985
0,26467204828656
0,259356062269247
0,263152050889067
0,260577878258579
0,263909801920516
0,255404660344193
0,26295102402431
0,25424889363213
0,26077880429301
0,257592899039468
0,253756436943912
0,254308534437726
0,258790512004994
0,255928159721328
0,253762620413934
0,255146649026736
0,260174966942941
0,248117295860354
0,255276550848369
0,250947989053682
0,251662048361654
0,242592841928423
0,246963804735684
0,245916109864646
0,246766722878585
0,24284015943374
0,247830463895377
0,240574928658835
0,245347280464923
0,241278605037931
0,244398951662821
0,240306736635965
0,240920907676241
0,239186126998878
0,240598227489342
0,236481830774561
0,236642432732201
0,235298619294744
0,235575663582477
0,230867371863314
0,235205487245953
0,229317915167674
0,230292083961362
0,232292570809459
0,228749436993419
0,229365992107966
0,228483015456295
0,224749065927432
0,231179082501147
0,22315703108759
0,227069555004692
0,225910412217891
0,22647664436006
0,223867568096721
0,222059583632586
0,220183180658638
0,224490373177965
0,218356073329449
0,21848131727305
0,21045573690126
0,2159639701022
0,214879941452641
0,219575428003
0,218769224209046
0,218799765982738
0,215908522464875
0,212413840160374
0,211713814633665
0,216949250194707
0,211213323239764
0,21042134102956
0,213902629615179
0,210966626689201
0,206330152215709
0,215902582938298
0,208163131123696
0,214255038344985
0,212496114401149
0,209591368481877
0,205393767711304
0,211544593119282
0,205698189950978
0,210043026568872
0,203259686133981
0,209061930279149
0,203162727822157
0,204014992316033
0,201608681719396
0,204996848198139
0,200771374562692
0,20377710747987
0,20036774363664
0,204520702182379
0,200695567994483
0,204903948242643
0,203582327161348
0,201341704241608
0,200950540643859
0,201109911505137
0,198937346642393
0,201519135440761
0,197622404021522
0,202170814863134
0,19648920244833
0,193720015300473
0,188508234909195
0,198045660004944
0,194217868645026
0,196791258541523
0,197356482512505
0,198961123696743
0,194803963483254
0,193552585509737
0,197644437096073
0,193600260886408
0,190802606427035
0,191745926237549
0,189289616172987
0,194969203677659
0,192159043658165
0,194714960748383
0,189169370701025
0,190508848902682
0,190977135752552
0,186077645845182
0,186536555999427
0,189714489134755
0,189169780058088
0,1954221080875
0,19086306794262
0,188533217810419
0,183571846897357
0,190943948506675
0,188547626319102
0,188606030547882
0,187056825504412
0,187089695405919
0,187203740505173
0,189192221477169
0,186246138296653
0,187124074114363
0,186546435169679
0,190040319443399
0,18301876513317
0,183226305361819
0,185019016206067
0,183511064430967
0,180329828347762
0,18370416738493
0,181944704004098
0,182640709912485
0,179962950365366
0,17989716485692
0,179542758039851
0,181080156307337
0,180785388037744
0,176767184216638
0,176774476988371
0,178533359095238
0,17729828509499
0,179613164418653
0,177237152064055
0,178323986486903
0,176206775266317
0,176484893827903
0,174054047671463
0,176551493553403
0,17602470024883
0,176217831564684
0,171000364144688
0,171861839195553
0,173022120852129
0,171564540435266
0,169792202707235
0,171687813673483
0,171565295162645
0,172810194981937
0,171042863102645
0,169521853197575
0,17141537479899
0,173561029327353
0,171083279255468
0,172268713099246
0,169709305632468
0,167210951163699
0,169746806118691
0,17206800264005
0,167231588143613
0,17381149611529
0,171466901666149
0,170924926164828
0,169456274963149
0,169572790345838
0,166747978389404
0,167364018608845
0,166199471690334
0,16910998024168
0,168679754716854
0,167436746047499
0,164589146571242
0,167303570629569
0,167032542549093
0,164829806236268
0,164883884698736
0,163932952621482
0,162815702719297
0,164388996265747
0,162077318017846
0,161922687112843
0,160198485420618
0,164235739924398
0,16183588621612
0,160143987415509
0,159256570028594
0,158686538974137
0,158903819266154
0,1592929458052
0,157660971636946
0,160025676230742
0,160680423201258
0,155752300923357
0,154924449436416
0,1590046883025
0,155076163009578
0,152858855062486
0,152803672982217
0,153694011457705
0,151563814231046
0,151517419458918
0,150845311893444
0,153009227389938
0,149768864973339
0,149348765363561
0,148160223702156
0,148349406505656
0,148690953067791
0,144563294177446
0,148598998388517
0,147673108678484
0,147903510038548
0,150558331471952
0,146954577225834
0,147858048218348
0,146189872429179
0,143093804331453
0,142724324615918
0,144019248628638
0,144978202104116
0,145643754322313
0,141653620692618
0,14398131330334
0,140059053422573
0,142613352694471
0,142321291982195
0,139423963903289
0,141134691431941
0,141506802215723
0,140630104129526
0,137308005342136
0,13540383402838
0,138200133259823
0,136104396576917
0,137170745740889
0,135258041020704
0,134987508912465
0,136594037166395
0,131815178672873
0,135775302768556
0,136783647520385
0,132215600477407
0,130953828178615
0,132160013960568
0,132103900485452
0,130954165221537
0,13147519196452
0,129661644346584
0,129874959814722
0,130382245611329
0,127413390125085
0,125977240929725
0,122476828082169
0,124958077168973
0,126241963928154
0,126225268380349
0,125796158723481
0,127288585746472
0,124101686664646
0,12170611115351
0,123841487325056
0,124403188999727
0,122717467883277
0,124522653880052
0,119857337232769
0,122136263240818
0,120767207717865
0,120760862799047
0,118970182165218
0,118114793242239
0,119690726379917
0,120918410743928
0,118938196297466
0,119870680421175
0,117629218994044
0,120667764562637
0,118807256048662
0,115914214275505
0,118781436940783
0,119951895667789
0,116301951999309
0,119855665516141
0,118100525896104
0,118008916292081
0,119202030051923
0,119689451338942
0,120342965990142
0,119863220862652
0,118124415793555
0,121323749147469
0,115398079108731
0,117979324079586
0,116453991675905
0,123112568477092
0,117856677965374
0,114032117507116
0,106090375021549
0,109389482870113
0,110274635056556
0,116940603807646
0,117578769292382
0,116853883686866
0,100428506951284
0,103766457963199
0,111989184647016
0,112818182354602
0,101994116082881
0,110370624346718
0,098062531002174
0,106965872431501
0,107601207180759
0,107117304715894
0,101569794543515
0,104067142747432
0,104770273750761
0,109857232127022
0,105278378505931
0,116761924748427
0,10890542186739
0,111863732160018
0,102391166794626
0,112794248906154
0,101474070757505
0,113477931668596
0,101915888797759
0,10777765551583
0,0995977983911688
0,111307101912415
0,0996300796224388
0,11066702788403
0,0971880780320789
0,11205602102528
0,0909316555871346
0,101435324635124
0,0909580083565749
0,0999407659615907
0,0919428980300081
0,113446269076783
0,0974559527153527
0,112037552931408
0,0917218083977136
0,100557694319397
0,101727664833541
0,114289302872907
0,103583912202183
0,0990356658857974
0,102218246624729
0,109773189344549
0,112527606896611
0,0956664701139107
0,11383953704134
0,0997059076819204
0,126424214550429
0,0853428557358405
0,118851130775712
0,0952194345773611
0,117445210688141
0,0876271083491168
0,121399970300454
0,0924496089724133
0,114268726545376
0,100633465665266
0,107776004912363
0,0989356839541888
0,103346057477642
0,105278987652572
0,100772723949357
0,103212740315804
0,104125045470901
0,0990738199089319
0,103364149433466
0,0989272801362931
0,103072250190193
0,0984358783404905
0,105357906301623
0,0959478981328217
0,101870363875255
0,0986758748098454
0,0981560083254142
0,0952619585122091
0,0993096289397055
0,0970315726833453
0,0991909926300013
0,0956433673490441
0,101754496256714
0,0974935975009521
0,101129711530287
0,096608710707742
0,0970841095035944
0,0954687446503958
0,0969422657578923
0,0946349260422641
0,0981165517412803
0,0982001673722958
0,0993781318291937
0,096265866632713
0,100438227227712
0,0958006632770839
0,0977928266441265
0,0969162794403517
0,0982949018581865
0,0979626540989344
0,100428092220828
0,0970107378270773
0,0994148209729034
0,098007513491899
0,0992426152424728
0,0981333862220759
0,100379349707617
0,098007328091523
0,0986536009723673
0,0957776856838871
0,0995595092341794
0,0991139794626591
0,0992031183811779
0,0959514978156746
0,0984308877669365
0,0976487326202745
0,101368527041581
0,0986242383556589
0,0994626834294276
0,0974984001446116
0,0999253969198732
0,0965014475973418
0,0982564652248707
0,0984955796055551
0,0985383369570068
0,0982564874963476
0,100502581151036
0,0969382749877409
0,0968795546000565
0,0971710289691763
0,0973293060731494
0,0955914621986894
0,100261190267099
0,0959621260698439
0,0949505949065797
0,0966632059908265
0,0978620312865456
0,097446929098227
0,0970917402931599
0,0976028736375527
0,0965510575492453
0,0956931454429415
0,100244077465936
0,0957584798287846
0,0967055381351806
0,0948193438212652
0,0979233908073869
0,0987874594166334
0,0972961671440851
0,0968703606181098
0,100124774706885
0,0988524634034859
0,0963348263050212
0,0978063761180701
0,099556295547567
0,0967154805951818
0,100420120692441
0,0999645501332548
0,099857950869725
0,0981685287189884
0,100288263504189
0,100195598791734
0,099567309878598
0,0973564078226076
0,0994070281515125
0,101059423273516
0,102271080642603
0,0982822214547793
0,101154633572944
0,102756648331376
0,101066373436435
0,102713164729355
0,103695453099236
0,102205970276937
0,103005978465747
0,101417061091773
0,101451925624047
0,101672348068448
0,101719501784679
0,101514564696201
0,10117820667314
0,0998022615646787
0,102567193407908
0,101775475827137
0,101934971667162
0,101744451640887
0,103397483964808
0,104210920071868
0,10219122413434
0,101392739495814
0,102610067692242
0,101312323063315
0,104618593939345
0,10462231138541
0,104802559037417
0,102015314714029
0,102817074381553
0,103578261228197
0,102927607571991
0,102569339057067
0,103663772792061
0,105651046739187
0,104139823624872
0,105305600589347
0,105126197075014
0,103681731758361
0,106006553484441
0,105731082770363
0,103927174330904
0,104485794732217
0,105111092110037
0,103941294337591
0,106833551692118
0,107710833051299
0,107458751705132
0,105501063251968
0,105564125954737
0,104481655826911
0,105629137095823
0,10723558341748
0,105845256992171
0,10702772485258
0,107261563762672
0,106728198618153
0,109110809321305
0,107224631799528
0,107416798417727
0,10972489964142
0,109270874905976
0,108286961895812
0,10754717514961
0,108829908647078
0,106782150908348
0,107512966374937
0,109252852675739
0,108193756102539
0,108114704635414
0,108495423970797
0,106590859786398
0,105763711159182
0,10745168578459
0,107896452472095
0,107681238722998
0,104284534624469
0,105745564860825
0,108032876932969
0,107651727147543
0,1064946682002
0,106603032519307
0,106379640068182
0,104291228170391
0,106770268399246
0,105990960180769
0,103913931992319
0,104346943193774
0,103219746235717
0,104774839113044
0,105792618827903
0,104523823046867
0,105371495618922
0,102880630285301
0,103323148733668
0,103625781297943
0,103453754419827
0,103065495184843
0,101256258008552
0,0991814150274504
0,0996042219289636
0,101904315177795
0,103165453190767
0,101835790171711
0,102522260150495
0,103631688246012
0,103827980525213
0,102377246952065
0,101957264656028
0,103897462716471
0,10381150299696
0,10322425333433
0,100208248431667
0,100308676417293
0,103474002928329
0,100899834659099
0,100194132835304
0,102559227720832
0,102136797719848
0,101619662363299
0,101696884253214
0,102474650354405
0,103452794623263
0,10032189847669
0,100421089087647
0,0999293645544717
0,100072584079257
0,0989700115966373
0,103418520294486
0,103521360063533
0,101118515740512
0,10223809395171
0,102420695003327
0,0993866884577682
0,101515565999056
0,0984150961513503
0,09670195421349
0,0989876655678848
0,10129038561592
0,0995662209832271
0,0984606945958664
0,0995747760716234
0,0989008974476516
0,0992403094636981
0,0999969538860084
0,0960204797525992
0,0969129278034765
0,0982060413766961
0,0972526935887165
0,0970757428694924
0,0989953670582546
0,0973025115228797
0,0963085931626605
0,0939107971077679
0,0988157167274572
0,101802486704878
0,101674387230789
0,0975907511351697
0,0959932961826017
0,09707610411472
0,0975024952236184
0,09792828449155
0,0988402618371013
0,0968400659165202
0,0975597584451043
0,0965625621107407
0,0973297349863036
0,0950118999863635
0,0936515099397347
0,0932803526027613
0,0958090999451622
0,0971524801136124
0,0992324074276117
0,0954431535820924
0,093428532857548
0,0957934822934308
0,0952311509407555
0,0938914438008972
0,0964499588221815
0,0949061714372014
0,0957247988931722
0,0999356344470356
0,0982892195957906
0,0923603217295042
0,0941886160599076
0,0936135138150565
0,0930263616323595
0,0926104213009481
0,0936901288073176
0,0919778894089604
0,0897565771779216
0,0887713504847542
0,092092543812386
0,0907227258036054
0,090807928942656
0,0892772186493787
0,090560661750728
0,0888505789878713
0,0873832577295232
0,0864002538097287
0,0907017575580962
0,08683458888782
0,0866349094848696
0,0838745222087679
0,0860628885919566
0,0865276532228021
0,0894107205520523
0,0919331497070258
0,0875225266593719
0,0841519364095852
0,0826955306925449
0,0830599052951539
0,084646067483916
0,0814857023360483
0,083982019496804
0,0845684812788715
0,0818479213064885
0,0822649933519245
0,0812087097546167
0,0792755270601397
0,0817688971114963
0,0806987715643529
0,0801249077575597
0,0774935695872517
0,0785459896467996
0,0776806914886429
0,0797202005717294
0,0800550516373183
0,0783436948005988
0,0787084527763649
0,0759419056986004
0,0768293399841696
0,0764043988589956
0,0895508132438344
0,0923011523111323
0,0788231714919401
0,0763131830055276
0,0800987649392015
0,0797854558682926
0,0767211987605667
0,0772882164485198
0,0771654412490378
0,0765073136735622
0,075386290892091
0,0765435593884668
0,0741671724307896
0,0765479071414954
0,0772507285382721
0,07651262984126
0,0758670255284488
0,0762799039635114
0,0756920304964745
0,0768515540038575
0,0754816563313818
0,0764520642080593
0,0753506839744774
0,0720070999579969
0,0734528164033531
0,0735429940920074
0,0763655632974061
0,086867312991719
0,0827807314922126
0,0777091020956404
0,0758422989246445
0,0749203707030288
0,071789772217746
0,0776944682916686
0,0754798120854741
0,074272631139842
0,0708977717448836
0,0743280625953615
0,0727610095404858
0,0742623914155278
0,0754950549990324
0,0729144799820575
0,070260231370874
0,074005355327212
0,0727439899452345
0,0732413279209127
0,0692490556662524
0,0717317781280818
0,0710171589151784
0,0742845432447114
0,072675390389868
0,0768873663719345
0,0685003448009349
0,0858248436686184
0,0872395111408918
0,0770353013638172
0,0708034162101152
0,0716364668900194
0,0720165159537812
0,0737517367494835
0,0711125903887331
0,0718273438968095
0,0705388056960531
0,0711837423306996
0,0732550308169731
0,0740861889641233
0,0684444062458003
0,0732115929806323
0,0725362231308024
0,0706100134461536
0,0706973549143318
0,0708380238885116
0,0716731760524936
0,070839419024595
0,07739176108367
0,09048202754365
0,0758795802753573
0,0763340712905898
0,0688142052102357
0,0740112901509281
0,0956769205805286
0,0802055131762378
0,0747668646415142
0,06854647008654
0,0735951392556107
0,0688138816911301
0,0707578512867883
0,064845602805292
0,07665351224594
0,0771969797801794
0,0746866309189451
0,0737559846506176
0,0704727039285225
0,0663366145483338
0,067263292068129
0,0673447026527256
0,0678001968369214
0,0688003962849836
0,0698077331732348
0,069345549612479
0,0691499894555789
0,0664536532371555
0,0671416034713957
0,0647133988010628
0,0758365092143441
0,074321199749936
0,0697040611748752
0,0688818849726037
0,0728177757091195
0,062608094158726
0,081117713842463
0,0819837709912388
0,0718570260430756
0,0668712295231431
0,0655863278047804
0,0728631753108119
0,0708795962818921
0,0675812697578769
0,0635267931315499
0,0677152905200561
0,0658602619706581
0,0681056995227191
0,0668583448446359
0,0696806706626792
0,064902913826854
0,0670022709779353
0,0678469160849068
0,0714650622107256
0,0645476273544019
0,070154327938825
0,0694849213266704
0,0725047179715417
0,0949933019330706
0,0933039455021145
0,0903499038742688
0,0796200726366309
0,0747886326569398
0,068033386909357
0,0711753287317981
0,0643593290416431
0,0709701506257954
0,069536886216567
0,0688489841538867
0,0667325390009191
0,0710647888658677
0,0684625005029528
0,0665082552915392
0,0662708416750372
0,0692589954287706
0,0647622761623824
0,0635569317835317
0,0644668100958962
0,0667155552990335
0,0658538754308382
0,0633953790324606
0,0794902817673249
0,0753463388463466
0,0728838988485031
0,0674887390410648
0,113813353551766
0,0829065573717698
0,084451349409293
0,0682633099740905
0,0721393963881464
0,0675309040680302
0,0663732981646646
0,0667086462790582
0,0750274181033775
0,0668781917259622
0,0674751807591505
0,0672726761047896
0,0728628283929604
0,0669842143901082
0,0662429947317559
0,0871218820092271
0,105092555503998
0,0825421349231733
0,0763347761336099
0,0546302915744576
0,0940450724236488
0,0944020236584398
0,0760579676448917
0,072145606499829
0,06839008233759
0,0702148876172908
0,0681518079127407
0,0692647940456363
0,0699412583170143
0,0773225305377922
0,0685299172853251
0,0704826589178623
0,0660472014060419
0,0698659867418928
0,0752102717975324
0,0715615522795338
0,0853954513052272
0,0805348709016839
0,0706529812052626
0,0786485915795807
0,0736557373909019
0,06974075027018
0,071015633255351
0,0701018573472545
0,0658037427596319
0,0880259026494306
0,0861355352510246
0,0807620658532647
0,0931819495014335
0,081994673006842
0,073087370256591
0,0794445158645998
0,0842915594553408
0,0888894422960869
0,0613366810321772
0,105549949219767
0,0897262411937691
0,112893598148351
0,0883122100408185
0,0796175331592519
0,0728656564543214
0,0742945911159244
0,0696272181946701
0,0765648692847015
0,0988015804880753
0,0705668071602278
0,0804956129832924
0,062104740887514
0,100413910253573
0,0808413086717797
0,0891793030851481
0,0749139275475279
0,0746525053184078
0,0719462089793663
0,104921869382937
0,0709671039326882
0,0910630610310311
0,108510011920284
0,117769978962738
0,118671615414583
0,0748517653271766
0,0888800871405203
0,114749624611295
0,0840165472544252
0,0857455943356773
0,0736779282481691
0,0896341253162616
0,0670590817499726
0,10096650931704
0,118527921451005
0,0888391990108096
0,0846849054561682
0,0809783871995738
0,0855751640018682
0,116620254772809
0,0905721820478946
0,0847807765556043
0,0790652641104457
0,0854128129499281
0,0789960070106031
0,158711843974866
0,0894959584366601
0,131701251507852
0,102666956325812
0,123126062269204
0,0944389915003892
0,106968880410361
0,085284601727056
0,121382653569435
0,110373691767015
0,100473598304495
0,0752201079406423
0,134015852663842
0,108775490963238
0,104259065148053
0,0978416923070998
0,0950394533705287
0,0930702350823221
0,151231723030453
0,164656285916212
0,140507631783011
0,0966021084292733
0,115790097991279
0,130397831072626
0,105532165317207
0,101208853430945
0,0970756200407338
0,0972030495996002
0,0960656541713068
0,0979852613473259
0,117104959558885
0,10059503591134
0,117350529635766
0,0940114362866464
0,121267515952567
0,128089097423611
0,202590561017191
0,146868786438404
0,13975024769851
0,159165125066791
0,142269685921929
0,131266528684225
0,113704484236768
0,118967486341177
0,129236628756535
0,128887297370509
0,124091878500173
0,122977451072721
0,167149928660625
0,129758810291198
0,174161953560283
0,143920241639952
0,148426175881179
0,134531802619736
0,175235760279973
0,324552365900994
0,175121602005862
0,184292317891601
0,147731115314375
0,212836403061719
0,208139491575885
0,179582051039086
0,158616783267357
0,162132291391541
0,156828082564367
0,182193348911712
0,182511675707739
0,195499323746747
0,203221718607855
0,18987091835009
0,185895009636513
0,239316511656622
0,27758496480696
0,300134978268292
0,22205333043024
0,21693491017554
0,235957186829286
0,239662283631537
0,216393334767801
0,239176254776157
0,209654872308987
0,2852956953373
0,278483002763294
0,265330864429637
0,24191154544275
0,26614103449151
0,283984407248796
0,255663954837696
0,349609292664168
0,290144173851184
0,307254528144114
0,263352221885487
0,296698660054658
0,280468575692236
0,300861403930248
0,322163398284913
0,319186685268236
0,311923796981325
0,305799878951951
0,311118703133298
0,314781307641534
0,32035824271238
0,320783740027033
0,329220516219065
0,378340331673782
0,351765821127569
0,615916451170493
0,354108823899582
0,35964420400819
0,323974442429781
0,360973483021599
0,383213740054802
0,378116900004513
0,426345754509422
0,373780996622592
0,354283318243021
0,341640043816185
0,349860095799258
0,347261569415399
0,341063749841535
0,353721675214204
0,3400924848967
0,40334782762819
0,338279047349782
0,457335427610309
0,386864862103318
0,37389652810343
0,332791251829814
0,36047657954944
0,325872250884617
0,351621293747305
0,320210208231155
0,366813134215143
0,349900079186469
0,339566685344369
0,328072531370705
0,322969441995555
0,35926031176519
0,349036962938646
0,327779899730421
0,329056617419793
0,307854123628706
0,323392802973745
0,285274450474191
0,364543736082295
0,343380523753287
0,320980095969989
0,3008703136898
0,300203484374279
0,291295966087207
0,291829602511087
0,293210436321311
0,312232633504098
0,292874560316479
0,295591690778294
0,294005183377437
0,287236365934753
0,283973409180679
0,285673051217789
0,289804337637763
0,288376147334064
0,28568044970512
0,282204176677531
0,28471387528229
0,285581197973523
0,271091848915269
0,283893418244299
0,279393805530415
0,282579129069766
0,277416173232324
0,277147030385589
0,279151351397356
0,273672800169
0,279749588500463
0,279358489861957
0,274843453313209
0,272520350288507
0,272162100999267
0,271107039868268
0,268462459047185
0,26674508480882
0,264820443500359
0,262575315655291
0,265751859464092
0,260483865266549
0,26576861552625
0,265395743300603
0,259927090267014
0,36530183030175
0,268978938089153
0,271869044715537
0,245341004859628
0,262747827913884
0,241116560150491
0,251597365406568
0,309987464546673
0,270325676996998
0,24915025890827
0,242919354174142
0,229615819998133
0,267747798417965
0,239553158374413
0,238596174107041
0,229767745758341
0,217536605123638
0,323614949374686
0,286395317906591
0,389953285312543
0,307981923808455
0,264598171923404
0,214420184716551
0,270818739274225
0,250036612446971
0,224301753949437
0,218951766874608
0,204528126391248
0,289731594969321
0,219866890985648
0,223498909072705
0,209867774474994
0,209535715192472
0,252011204613986
0,250835183062922
0,229998451678836
0,267799132026089
0,25050847886122
0,237811215958545
0,287179302641287
0,310246495332074
0,244048029323871
0,203885098257671
0,214212338705229
0,193818036974564
0,227012380810454
0,273663427266595
0,213099336591439
0,238147135311558
0,185873425259754
0,20333000007499
0,194779015945662
0,245390900267842
0,199760929126859
0,233059146977826
0,247451263263631
0,193558592305194
0,234820427289631
0,222054516514833
0,294130769984358
0,251451704909222
0,220327343255233
0,189482001094773
0,267458593838523
0,243023382123064
0,224387898854504
0,226718749478723
0,181277727618277
0,215167841585019
0,224225485803855
0,194815195589514
0,240871234693662
0,222087775478355
0,256109126577139
0,280881487680463
0,310444355214078
0,274985063330155
0,209618771109255
0,201142143696991
0,198988171310371
0,204630178157762
0,206624504651803
0,189223882784454
0,268154254139064
0,197973579237917
0,227977333767592
0,262841263044228
0,221405185714007
0,212955941291576
0,214309734668309
0,211164987979099
0,235946446761366
0,257045771804756
0,297134452875986
0,243949215475003
0,265532061293704
0,255545032351847
0,248992498063306
0,243101660475721
0,249054009391512
0,245763160646564
0,257815506950017
0,278911138005862
0,26920724609566
0,271815372077907
0,281697413499963
0,27240450658732
0,345231872660258
0,321582219322771
0,305177246413989
0,359105896388563
0,337779318533804
0,419824994865262
0,344444023560432
0,353630234852375
0,345715098513431
0,355137194666951
0,368763118074462
0,361916172066995
0,401583994033637
0,417043869021926
0,389175058419293
0,401727556774268
0,392458694718514
0,409226380469896
0,410591464194996
0,479735659381721
0,436788986951084
0,550998514829858
0,466039230039198
0,472635201620258
0,434243978671137
0,432193010082214
0,453683356825931
0,447862258336252
0,438433033843714
0,436274981570002
0,445734280516725
0,486233510802302
0,44914702708224
0,456499432103644
0,445370082443612
0,452194430379676
0,445904472874626
0,46288367905011
0,45659432962968
0,457417659148377
0,457690605336262
0,456008784640482
0,470051057286678
0,575912237593968
0,487416205505318
0,492758909327646
0,475478598840822
0,503714175988955
0,483902814598996
0,501266872079476
0,523729077615023
0,514427763680574
0,503968866273135
0,507818424340535
0,507822145778101
0,510281976814446
0,524509473806685
0,553830493668681
0,511430187378278
0,54643754402138
0,500025003322051
0,613982219716368
0,56829284362609
0,571990478665732
0,553650367406118
0,556698247140204
0,544136179848933
0,544761849995368
0,540773979367405
0,547404262878421
0,549902891473405
0,545446013100922
0,549559517473363
0,53903701148444
0,543962471760334
0,538806153323642
0,544513390947661
0,572762402643395
0,535310757826346
0,538709275871081
0,528869112885463
0,537488446766213
0,518107410226501
0,576799743033794
0,540035788938524
0,537896111916132
0,525065452650224
0,559295631549428
0,551280368451431
0,543550476318185
0,509853714193219
0,527363657426715
0,508215913218504
0,530622516755535
0,507133182849111
0,549109792884009
0,563559730093284
0,550306689580219
0,530695896778886
0,537892632708708
0,529427360150741
0,541231812363619
0,538052208291947
0,543849965137357
0,551894454888956
0,557022770170375
0,564607199382554
0,558390315048769
0,558779801305459
0,578285197617948
0,594556344127269
0,601415530887025
0,574231994819476
0,592156028551432
0,568035302778744
0,592332790687903
0,590214209327581
0,590688440679292
0,575756556124636
0,584328226793918
0,572818420964342
0,587794779353827
0,619565377720562
0,586826331944814
0,594846746909755
0,574709487845632
0,571611565228097
0,569388143573206
0,570827876542083
0,562836115355289
0,564031562887075
0,566566944068412
0,560972899115403
0,557420024188474
0,553500833771656
0,55710675090374
0,550458482378817
0,557560179844874
0,548803299803356
0,551063568818624
0,539538167452468
0,544134903286794
0,539523427135911
0,544091851532604
0,536671061191995
0,542509729201293
0,567524840843814
0,56214392624562
0,574297371368373
0,555132792411142
0,554575885901928
0,546181532181522
0,536198827199739
0,539996777011697
0,536180212618643
0,543683186217059
0,533750595450664
0,540276946251809
0,525303673721066
0,527296062397149
0,527409494849022
0,523908551339077
0,516011205348712
0,516657297026289
0,51155099825411
0,513582288142893
0,50542080646189
0,509912474526807
0,495582708047464
0,515385112551139
0,501594348956909
0,502114720147217
0,494807559522402
0,490173861855565
0,488373685899473
0,487514591586982
0,485508696734067
0,488026602447154
0,476607325991495
0,480716412917053
0,4772876472339
0,47839343743483
0,473081138246507
0,47594367251369
0,476510188323187
0,474654103388424
0,470050552933195
0,47370142375487
0,465812075964638
0,46477640992517
0,454103501011736
0,464750977096059
0,454335791430606
0,453986559176532
0,449282929655429
0,445442256147602
0,439025738978395
0,440356481928311
0,4268839144543
0,427409180087822
0,428949380440854
0,423156078337146
0,424349839940962
0,422795223307042
0,416029272154854
0,417544423959325
0,416081301424599
0,410280168551155
0,406740521563188
0,410698230003344
0,40709106881717
0,409623526320792
0,405953864014669
0,406827421887087
0,403762312550898
0,40841475988717
0,405439142399974
0,410058856367232
0,407299787871153
0,408554896792801
0,409359157959739
0,413777323794592
0,415568926182956
0,412046094889267
0,412551658297922
0,416667179827064
0,413234602211266
0,416312254463602
0,413725616323964
0,421142018394796
0,413588595969007
0,415273201357913
0,425174100729733
0,420021723625889
0,421763793160782
0,418714251471313
0,42070199471271
0,423044149840798
0,420440504853641
0,423642866368455
0,422685846980349
0,42357819644408
0,417919120991047
0,42181750492214
0,415486922471664
0,41737332697738
0,416832172070686
0,420776332723856
0,416044762233667
0,421297350350142
0,421650304598451
0,416582546847224
0,414393670390445
0,413807702859801
0,411229759156637
0,411684288590774
0,403957230784009
0,406730367575737
0,407665389119975
0,406442792056671
0,402465495028451
0,4027471706285
0,397344068812968
0,398170239818922
0,396467348926695
0,395475314015057
0,391640815174644
0,388202790323677
0,384004662632654
0,38199579226746
0,378756616259454
0,378532447482951
0,372893579520187
0,370681538567184
0,36431299357193
0,362174407162401
0,357303008928605
0,358368122409078
0,353075898002187
0,352739234901452
0,348935988395162
0,34997405174147
0,345571360763177
0,347981217035603
0,346907510417132
0,345669383626378
0,34550136852476
0,346313025821912
0,345398823426999
0,346765447919918
0,345452621054101
0,347584517623843
0,347346805375244
0,348371635908807
0,346488893786794
0,346737485348996
0,346368007850175
0,343662869474714
0,338641675252578
0,339470870452678
0,330330267355786
0,32953093844713
0,323523153351912
0,320639890678143
0,314657163319305
0,308328666961883
0,305913510558229
0,299541229870739
0,295618546080831
0,291734004425373
0,285779788831601
0,282564119251632
0,279771919851387
0,279243036228256
0,278399376096101
0,280264127845007
0,280060312716238
0,28269778846987
0,287440014851454
0,29425477334193
0,300031992526659
0,310096810039826
0,314186465839907
0,327263751491851
0,338132588147514
0,354724481084511
0,367010386814412
0,381567923015818
0,399134353152025
0,417052724856576
0,436196177376153
0,462731173409423
0,485184777878899
0,509208174178194
0,537800655343857
0,568470178143734
0,599887651769376
0,625316002934072
0,655293064101777
0,693190743107523
0,720587188367303
0,752887850557959
0,783710726409769
0,812703453577828
0,83997717752674
0,866292141762286
0,89994254696234
0,913793224905895
0,9320282176613
0,948028653189608
0,952443253263124
0,963891413307321
0,976107947130865
0,971464526831951
0,968440756869151
0,968717466426331
0,957744828420603
0,948881007521654
0,940097232854921
0,925983921337517
0,920011139115455
0,901106870648591
0,880392081227334
0,882432942968457
0,860621678788379
0,853323627469788
0,843383059456807
0,830618285002195
0,835645090933795
0,827091515857682
0,824635942175207
0,827959363287003
0,823363439551083
0,83322558124823
0,834485168834293
0,840998619369388
0,844673938091611
0,853109030924403
0,862279651060891
0,873444215705888
0,887101067557792
0,886334998291946
0,891712208102409
0,912914768039589
0,913217504426515
0,919608800775393
0,937459714466917
0,935383720290604
0,935395353774105
0,948279511729461
0,956970725937901
0,961718107922553
0,963007305928545
0,975202443355295
0,97468020793412
0,970246260127801
0,979736246112442
0,979940850307954
0,99801897777648
0,997890457742461
0,997306713153908
1,00092027123495
1,01006691698297
1,02151333639744
1,01338531207217
1,01461258586107
1,02109168939929
1,02457345485702
1,02786257534116
1,01592503161515
1,03455622570698
1,04038778493845
1,0439753057114
1,05575250165958
1,07373059564092
1,08777909986826
1,10659565132378
1,12184931718869
1,1640239115257
1,17584962312369
1,21133752424666
1,245606713261
1,27980149251944
1,30481324897491
1,30773535173859
1,3942574870363
1,45097069349968
1,42888365871481
1,46446732006853
1,51405678927755
1,50410841855828
1,50854200858051
1,49859046164407
1,48477223945254
1,49698811977332
1,46097684946775
1,45233914797008
1,43115171921959
1,40094268525538
1,40735674710352
1,41773572042777
1,38338274095406
1,37715122372068
1,38333278038999
1,38978928440265
1,37377387923318
1,44641455720824
1,41830207127497
1,45334886876751
1,4710004238497
1,496380979062
1,48672574502872
1,48036720878098
1,57157697504931
1,5973329078439
1,60751720027149
1,63467802162311
1,61335321304451
1,67008415100436
1,64105263935611
1,73353581178756
1,70677690410284
1,79779119249557
1,73139574742523
1,86297228022538
1,75589625561012
1,92187300233377
1,86850341229644
1,9137305513306
1,94259848565194
1,95407139846552
1,97376428306372
2,13025432900188
1,87639494094171
2,02519516713424
2,09787553342966
2,11775031689925
2,21056806011855
2,21123938854653
2,08773999301483
2,47251911653953
2,111231937791
2,24850794350768
2,15767886803146
2,50578525375629
2,43808520018121
2,3923534644142
2,25462262671737
2,62383681955904
2,25109897112201
2,42313168299908
2,54375750834867
2,56217190121843
2,68048180865163
2,4290132337964
2,86964624716975
2,31086201286448
2,20067774994236
2,32320232229954
2,5147448787264
2,26167060372388
2,14348716020993
2,84633205042988
2,23494069327151
2,12974062719955
2,00413548527917
2,03444209257138
2,06259860141877
2,08766728401351
2,14847189363441
2,21833293637635
1,88268537397599
1,94129185093344
1,94962553868312
1,95644105049776
1,86864197239704
1,97804128112476
1,80507149950891
1,8819853969482
1,75903182469381
1,79381714267829
1,74356626001295
1,70061699311567
1,68548106271452
1,65035228964356
1,54939715983467
1,56844657879861
1,50141580865054
1,47826533803553
1,38091813199899
1,35918594783543
1,33703270287632
1,27048702220522
1,24718194238215
1,21347206588044
1,15568491043809
1,15457664393853
1,11815851595851
1,0619847717952
1,00561964579412
0,968652804130051
0,913053988114668
0,879835949464363
0,848442011330223
0,802394160123088
0,766249378178108
0,732458985550092
0,702738443451157
0,673345980905367
0,644434416795186
0,627119138102487
0,593640081522798
0,579821024369931
0,565283096679137
0,550614678305106
0,537158545516782
0,527229824491199
0,524757045732841
0,508100812029552
0,4998185040405
0,498624578795203
0,491145595007769
0,486905175940854
0,48707386847317
0,481836211406947
0,48757139548283
0,496224502254751
0,495002242878179
0,49683027804035
0,506273419343331
0,515112353644492
0,516068756534876
0,527880468284364
0,540165565682166
0,547716891052011
0,552645874658081
0,566283691700317
0,579995418235151
0,581599103169985
0,587741860115565
0,59153398693535
0,581217436523706
0,590529244086865
0,59240017361611
0,596500313001193
0,604274626384891
0,601294326377603
0,596216614949194
0,603257161690903
0,605894415927955
0,606633561533797
0,601790106287683
0,601941426568374
0,591273364066759
0,593865959438771
0,595778199723804
0,583682342889087
0,579486969720975
0,576997745846096
0,564427491184686
0,571604880108889
0,561621622999232
0,558063834264012
0,545701872355786
0,54434770899575
0,536744813257042
0,537673746576565
0,52661134291433
0,517419668545807
0,521424533165952
0,51660807293186
0,506596590278511
0,51393886645495
0,511301946885741
0,507341355229295
0,515983459522243
0,521381358776517
0,514683547511353
0,518544190386091
0,517673371604444
0,519994737641993
0,525067769885261
0,535481488566628
0,530841822172225
0,531406937382059
0,529063542945141
0,532542189967422
0,527874285298655
0,517863497071718
0,52423199808683
0,514418519421219
0,50477532318579
0,490671285456414
0,477396508356925
0,484443263839879
0,47831938437139
0,480412110696697
0,461899609041022
0,460337423368501
0,459585187881415
0,466532562694747
0,458840615054568
0,464167653221591
0,473500036051354
0,459982846974643
0,471441951060959
0,470984658942494
0,472544667648015
0,47945691929172
0,482945364478416
0,485464225676162
0,488952826341429
0,493947622613857
0,493001014822593
0,503946911272508
0,507320933698874
0,522395022430462
0,518227490054007
0,516025515253806
0,509149285317702
0,521832223277082
0,526176038057192
0,534014138174451
0,529260631885837
0,529233137008524
0,530768936404693
0,530404470931978
0,537533092082076
0,537812670957209
0,518983784605379
0,539568132711349
0,544863869854838
0,545754588079072
0,532101477012028
0,544476121470351
0,536392859739057
0,530780900859165
0,531357614550102
0,529877052908487
0,527411804477377
0,515610708061116
0,525873226021282
0,522758573846824
0,509280919304028
0,514494897224521
0,508447585510773
0,505679890520356
0,476265268518215
0,500655495936527
0,486285783192893
0,476377786028361
0,465534305262812
0,471226234179899
0,455109853467921
0,464099618137265
0,472591702094678
0,448842834125042
0,447312603990682
0,455443500686422
0,439483396683898
0,461356320356836
0,442005930881655
0,449616065220664
0,450204613482988
0,455728008673446
0,445059071107491
0,455644873148243
0,456340221379703
0,462534045132982
0,453663014615757
0,451167142687275
0,443782128180494
0,457959541159324
0,458127235230054
0,449925733024008
0,454269801425687
0,480335301488905
0,475353577513884
0,481653112233075
0,473465542902171
0,464284238773123
0,484637112211055
0,49262936708872
0,490447942304867
0,502603861397244
0,505235188610354
0,51595812268773
0,505160618430263
0,517776974412814
0,530357462845795
0,52959251540754
0,548795557384453
0,56520818508303
0,569221909323398
0,602094163925969
0,591969516975545
0,580449885800261
0,609188332011145
0,631760456312571
0,624325663097747
0,649165005405849
0,621188264101908
0,65559037233771
0,635826436266008
0,664901530982748
0,63343859721465
0,644772708847853
0,66090903663615
0,66913430857465
0,666250945567617
0,651246726160605
0,675900840355324
0,698521761577385
0,658662203996191
0,685970847578058
0,703730669738305
0,725668659539511
0,683990515577419
0,719523932180875
0,72589139283351
0,681756054910233
0,725026992279681
0,748686824480671
0,731878818851787
0,723449812343185
0,72261163513223
0,740214712098214
0,749320297975666
0,754411620601291
0,721879412942237
0,741509199843423
0,749227193098082
0,746226968748425
0,687704007993935
0,702914628036771
0,682876732170355
0,691221494719766
0,727960340328323
0,668095896814346
0,689908977718327
0,703730462909142
0,683748260434709
0,714821388301555
0,669658830969104
0,667454481998273
0,651820314158289
0,709225444694899
0,708646500430026
0,713666213611782
0,692456798237237
0,683958602140009
0,634175055349618
0,693608566105273
0,727593993971356
0,698568881725421
0,685653767391593
0,64284421460261
0,64179371809004
0,621569276736691
0,644079616418045
0,716475368649254
0,651423119270882
0,684429874853803
0,6807796707435
0,700496131954878
0,728871427231532
0,704441102634441
0,710973860264076
0,705046248340973
0,667556506006717
0,721532197143185
0,773041699925929
0,806205448506403
0,717622665271419
0,742146409533411
0,827386896026639
0,784513642118097
0,822551570515966
0,840062495416695
0,825903680064635
0,814951875338357
0,784508843311172
0,850765267455527
0,852705120281429
0,884200557945433
0,867579388183437
0,84950706417884
0,976783527923112
0,870026113565333
0,857884976872104
0,944888557620621
0,876935038220557
0,838384629959805
0,865455321797449
0,835641715170654
0,756116128297449
0,792849557807635
0,94700463855594
0,952927665660946
0,939605740155965
0,85866178816578
0,813226413931244
0,806785564037766
0,823322251926651
0,903304791639897
0,798438641412991
0,828323356808235
0,850471088634402
0,860195021020806
1,1688500624502
0,849555996583585
0,778921313517726
0,940515934640254
0,805770658417659
0,813706875901372
0,848689672477111
0,829045121818785
0,751671282274681
0,890553943997387
0,752886632561253
0,596333540185578
0,849273370875457
1,19030976155477
1,32184924875028
0,820241125769193
0,973368418326406
0,925331622743118
0,607994535513356
0,504782998557779
0,690088485500831
1,08238786493226
0,959452176348317
1,39849054243651
2,53837482211514
0,708024898313056
0,719464271010412
0,978632481303587
1,07557837568171
0,608710293846525
1,01303335755362
1,63797662252197
0,862551362316738
0,825943078226217
1,1600897110515
1,93118665057507
0,839089243141765
0,362002878489269
5
