3596
4000,36533379555
650,420452594757
1
2
2
0,0601488030633592
0,0469810855471764
0,0648290375421894
0,0479092863187198
0,0614959938314045
0,0437890030995478
0,0605015013532048
0,0388008798674542
0,0520094374919949
0,0487039065598823
0,0671757197597327
0,0507362755205324
0,0539254341668039
0,0469427291091804
0,0633427782370886
0,0449351265696321
0,0543331963189125
0,0524962043225761
0,0624164883036498
0,0439257114134643
0,0598789295070689
0,038393307267384
0,0590646760192722
0,0483902104888461
0,056867084312242
0,0453689942589254
0,0596418019831586
0,0446334173945734
0,0630114139797193
0,042469959241201
0,0589728073422276
0,0424940644573018
0,0622412496011206
0,0388608598273606
0,0527765891661013
0,0440816396212061
0,057585209121181
0,0431240592271461
0,0523871366123015
0,0391550407045443
0,0630950121195577
0,0515013908885228
0,0651850351511799
0,0527542866684571
0,0603404355271374
0,0582763912448761
0,0555792740804262
0,0470732565161462
0,0606859347525642
0,0461579848345362
0,0698262946761369
0,0384833643404487
0,0693126218297484
0,0537202185911124
0,0663795620671652
0,0624566458912675
0,0718346430632092
0,0479423948538449
0,062704668114916
0,0394926853781852
0,080198114367422
0,0640329355748763
0,0632700466804706
0,0455218655414968
0,0642337145079651
0,0514002669361389
0,0572699102942348
0,0442236125140071
0,0513015840740788
0,0500394080262117
0,0574840773212752
0,0681345175067714
0,0821589760642086
0,0471586199602227
0,0723597221532667
0,0543317231395291
0,0604678750602844
0,0417750060611694
0,0459911752562995
0,0491319274624223
0,0694558329593399
0,0524781206873572
0,0589907899759479
0,0431021325386631
0,0657504344147243
0,0651987792624512
0,0581078275784685
0,0541883010384731
0,0812677089615057
0,0552272489379074
0,058657688822925
0,0382644027517426
0,0554021854793261
0,0420339912215444
0,0552777769112547
0,0466537184634022
0,0569006815690689
0,0458223714260209
0,0521736970149661
0,0487081503964151
0,0577140211897478
0,0680340749393547
0,105856041385546
0,0461613699346906
0,112676418074081
0,0664024262924546
0,0654819789809442
0,0964772366437315
0,0809548369440826
0,0516682921317667
0,0559654722625447
0,0535224643616527
0,059753437256075
0,049785683711554
0,0448518921742972
0,0698740164518872
0,0926909154418031
0,0505580983864452
0,0545399265849551
0,0491614647887109
0,0382229532329721
0,0782711491109222
0,10569847723486
0,0549916640750421
0,0723802569704504
0,0457450884556986
0,0526388088329589
0,0782826015078326
0,0932995295446689
0,0551041521216944
0,0558477990752038
0,0480621133299071
0,0484134154572426
0,0387062540789598
0,11242356297603
0,055883100316397
0,0529434906430358
0,0264211342859675
0,0774897990103957
0,108198943867824
0,0864721780384253
0,0494867466783237
0,0484832037034871
0,0425550515247704
0,104809884837706
0,0569938039231225
0,061246432465188
0,0710601319035602
0,0679604475901481
0,0511816836247279
0,0575699145529521
0,0427792199187609
0,0830312708524985
0,0549252641233366
0,0291607846338667
0,085344890236489
0,127211803330899
0,0648782555256113
0,131900443431975
0,0526460043157628
0,0788642914565195
0,0507253419517175
0,0555502530451903
0,037968640542183
0,0569511170027572
0,0264449656705504
0,0719912064993423
0,0714892109131615
0,0554197313443796
0,0578481188268711
0,0942253342465905
0,0602690626631258
0,0561710196263122
0,120437218025792
0,0866052676166385
0,0416721623170966
0,100530951612216
0,0671519350326635
0,0427026754388087
0,0563154720209784
0,0959297268495324
0,0494803255685781
0,0663925301975948
0,039744697282813
0,0584465791724511
0,0677495501166844
0,0679460800799392
0,0423127437715529
0,0622399716374537
0,0357362614114448
0,074663931480715
0,106567938889547
0,104334994439232
0,0486660456809473
0,0635272983126669
0,0138884181776911
0,0954984949354356
0,0886083737882612
0,0611288537042458
0,042580955179152
0,0468345027193006
0,0450645468355779
0,0451238137694438
0,0432274780345277
0,0471665864170795
0,0156786517095288
0,107129318207918
0,0679413472999419
0,0661542645114643
0,0412352371077931
0,0574858763894234
0,0325368753494839
0,116734317763081
0,0781219543787115
0,0625350476633923
0,0503616087724318
0,0535140647914981
0,0590154345520817
0,0769276402994523
0,0378566099864625
0,0571377510103988
0,0429961939252682
0,0581851124370925
0,0358579632596953
0,0552940452332358
0,0387691443363036
0,0516482172414097
0,0439605637762962
0,0519720436711356
0,0407176868834514
0,0627633815518738
0,0470457029605088
0,0625165199286099
0,0496623627920963
0,0468829680271399
0,0577661481681872
0,0839650466655549
0,0452061720107668
0,06167269981908
0,0404342714721375
0,0544916341460294
0,0377470449618554
0,0556691764413111
0,0419151177666976
0,0458143987588957
0,0311959397862638
0,0980930120196238
0,0500045011320731
0,0641491633176501
0,0293983243540871
0,0925861110120825
0,0620053212849048
0,066930163976811
0,0403261945809485
0,056344884156983
0,0302051832203538
0,0552924546620156
0,0714677538097016
0,0709599018948934
0,0361617431922572
0,0785213521895517
0,0544588876320879
0,0571636305602666
0,0394266045365237
0,0495239438307364
0,122139997306128
0,0728264962933247
0,0311312138846227
0,148851314021842
0,0637768719911029
0,0775864901410809
0,0415350038196398
0,0335552216294301
0,144718407827847
0,132523945308685
0,051297047793773
0,0641879279652434
0,0659108464127067
0,0619938952144631
0,0512449220318235
0,0607693570004579
0,0668384949340865
0,0815655946019843
0,0926764787755718
0,138665644527079
0,0226511597145535
0,101977705572715
0,0775221952365851
0,0658645875364046
0,0514107881386633
0,0590210246620995
0,0327459338419318
0,0807812806601816
0,0586219935524187
0,0863348691891018
0,0512183791848018
0,0546391859391529
0,0892945125454833
0,067077682234832
0,0395041701784712
0,0684852827835034
0,0614294636754588
0,0548830929170245
0,0512291147103462
0,0443812057150596
0,0599395112148054
0,0574998945114344
0,0401652019032465
0,121107193540224
0,0620999737263733
0,0724819055051921
0,0808996559359082
0,0695923184967754
0,0476153956837466
0,0533743548486325
0,0381343532518597
0,0531801930731053
0,0430381258426628
0,0413327495101667
0,0816168650431182
0,0644982817908054
0,0485194167854698
0,0472495430965686
0,0425093800945681
0,0557242776155409
0,0409726039382297
0,0510923867575188
0,0436978349354656
0,0525282446244528
0,0323308117066368
0,0749130995805084
0,0925574866089194
0,0392709581201828
0,0865678937101717
0,107638832448432
0,0484867577406013
0,0535299282181631
0,041372458436702
0,0608386240287312
0,0367044791306804
0,0554020881274173
0,0402780814181255
0,0580130607364428
0,067684267022113
0,064645067188159
0,047045680973165
0,060934936122404
0,105841700679538
0,144321991374199
0,0697108179826137
0,0782827958196586
0,0258570067785562
0,100027845344985
0,0714287246223144
0,0865086455415085
0,0893681144279996
0,057246394262626
0,0584682165657004
0,0515458883998662
0,0513017548637696
0,0532516084902898
0,0547262848240261
0,0545608193011789
0,0575730661375885
0,0571617174067983
0,0553621903366345
0,0501876417347907
0,0445528919289745
0,109369084075201
0,0632344749586332
0,0638129454432954
0,0621084474447388
0,0425340319770883
0,0850020462133144
0,0839144845192232
0,107004953300234
0,105451737426751
0,0870102788345555
0,137162275865683
0,0633353032850798
0,0759906599349083
0,0479614103936912
0,0766043654220229
0,0535654453294663
0,0733918756547616
0,0587977166151261
0,0598317250956993
0,0537557032548259
0,0789233635331138
0,0554341821910549
0,0692897199771079
0,0419160011818067
0,108852441237701
0,0611351125474399
0,0770218711551833
0,0516156359621477
0,0916214623040177
0,113513082980264
0,138611723965417
0,0752901057052533
0,0902019302462447
0,0588804507708281
0,0721014383025072
0,0736795898436007
0,0694855006942234
0,0718686597255813
0,0771727134828086
0,110553499630844
0,106723394303504
0,0919176165380339
0,113601239450961
0,0543106928212305
0,112149298525414
0,0742157942202153
0,107971870881623
0,103245902457929
0,103115433256399
0,0654220601128136
0,119021283822821
0,0981501313158461
0,103105593332012
0,105354655481711
0,0877555466220188
0,083660466506416
0,0878796203922764
0,0889075351195239
0,0842967164536592
0,0914288020041275
0,101859327590863
0,0876533905872277
0,107150594120755
0,0864245695176926
0,0961440760825714
0,0959658453767726
0,106758419838584
0,0862402707636344
0,125558764299175
0,0813879847940254
0,12212995263214
0,0690197071328684
0,141887192758763
0,1119673211248
0,132676717559666
0,132010396155941
0,116906298086287
0,112789087447467
0,110909150455896
0,100623203024832
0,118978508378829
0,100023137389663
0,121246110725332
0,105277438737067
0,121549875295753
0,106890228206651
0,127429600194502
0,113008878659554
0,129474025575181
0,110771586331037
0,127240307267764
0,105791688175286
0,132557639661147
0,114135521983323
0,178843026714743
0,153457387442985
0,164339182102514
0,167072959825843
0,149040941436847
0,130805127662191
0,145491045384614
0,14178784302043
0,149937746131124
0,148043814180171
0,152675031750853
0,146357603230349
0,159473929209107
0,133624104189562
0,153456095122012
0,143811487051466
0,167077521974442
0,159081737426519
0,182311410227573
0,146835757353037
0,161827452002728
0,159768099614244
0,176160826894416
0,174012409836486
0,17335055665982
0,175559500208832
0,191076695123826
0,166464811420202
0,17634549989361
0,167165873158728
0,186620752278231
0,166339777518055
0,174742058051337
0,170506902159437
0,187489297443109
0,180717444022126
0,189055736672189
0,180311198956415
0,197188617042163
0,186815291222422
0,209300133050606
0,185279855452205
0,212363889026779
0,200747517311389
0,222774148510533
0,20115260786526
0,21256749729899
0,201997715870577
0,218283716991408
0,2151960657436
0,227319600001135
0,202438195053233
0,223011987856468
0,216419267884603
0,228196125551183
0,214907315504781
0,230196426714719
0,218343436827544
0,23431028094462
0,220378280018657
0,244662349551587
0,233456329825674
0,253571079666856
0,229727423286695
0,256182050143706
0,236684425795892
0,265301599108077
0,231624306405896
0,258733944533388
0,242257014020247
0,285449814798964
0,251108207449028
0,269386390279463
0,253781533194058
0,254947671753452
0,249252326132628
0,279409020979916
0,263708617147331
0,275845174610657
0,271905527213496
0,283314983730792
0,261042052024135
0,294402858290716
0,278310148084826
0,298693109070162
0,263477149668412
0,302719248532466
0,277770317452233
0,298188721079152
0,281433133715605
0,305405457805759
0,280218347180302
0,305422450706157
0,286575150660653
0,312449769244349
0,290781806766036
0,317682901794394
0,295049221982811
0,311606340519331
0,296504931146007
0,322358639118176
0,309523004137197
0,307734028931111
0,310467057111346
0,337698504438479
0,304784244756558
0,322673278489204
0,316579919146061
0,332068993132181
0,30616978393913
0,35718572552723
0,316518453555905
0,344171057656325
0,326779250631069
0,349181772345874
0,325622053323469
0,356227805403885
0,334202756431632
0,34953035074861
0,335544749154169
0,351653032309551
0,33939857401495
0,36428186821806
0,346557249123058
0,363713737676833
0,343178887272019
0,369859976167263
0,344868900332712
0,362607946613287
0,354422654494001
0,388893153052478
0,362948300409001
0,386522764732158
0,360071133800479
0,387022951801185
0,357826309341905
0,386149800992147
0,363788549343011
0,395084911815576
0,377939602601983
0,383062024986318
0,358957093802287
0,394247279860958
0,379578353865182
0,389118031516328
0,378538070567306
0,405298382455899
0,391845342978175
0,411153718055408
0,392195076148727
0,41144163676851
0,3812764061068
0,409456482866207
0,389180736290669
0,419616719167988
0,394447839202387
0,416234101280364
0,386671897384037
0,426523583683763
0,404302873888902
0,440135408497819
0,409854660105277
0,41356964364284
0,391807154041997
0,424531484499858
0,392053089134544
0,424993930171457
0,391474848453504
0,430626596566867
0,411190312101985
0,4280399754681
0,404318186373245
0,43633408624213
0,416136432339765
0,422477979681694
0,417787127893834
0,449499635672851
0,406551253342089
0,430918222614225
0,402908338450417
0,431687608317322
0,411464947612016
0,444409486857411
0,424131816019527
0,453583154863225
0,431690188939813
0,429803936736966
0,43008726443746
0,449478558721778
0,418028342974553
0,443442017301636
0,425328714679664
0,472830969114447
0,446817822374009
0,462422170356477
0,431600858480307
0,44853523264091
0,434571331763654
0,467973590778635
0,41480814511519
0,456329831558928
0,423114439574952
0,440148292846739
0,439593685124953
0,456756375515338
0,429177634578106
0,454739095126108
0,42136683460945
0,454723995562314
0,433095660197206
0,450601235405688
0,457267778220415
0,440369633652784
0,423201144638021
0,456633911444818
0,442352610551017
0,470217945656633
0,427277989752636
0,468228779175513
0,436963238215883
0,46178157607285
0,435355005536101
0,467747995760173
0,440151313462235
0,461065173637342
0,432710141722461
0,464858601122011
0,458278664978467
0,475256506240128
0,436238420804965
0,455831164755391
0,439785556134311
0,464409491259582
0,437435155022784
0,461590920900836
0,454622428100713
0,458883019076172
0,447873421922404
0,472842829935348
0,448959919923374
0,454517207806673
0,442791182237482
0,44278118518467
0,425524007949403
0,459775037797548
0,444065409611208
0,450026596378224
0,440275904227414
0,451177770296912
0,435056039444329
0,469391088874651
0,452400987897627
0,461166541254269
0,450634008315817
0,459653405944287
0,431501016127643
0,45406892663225
0,436928814228983
0,457138792712299
0,430951520648898
0,455336929852184
0,442196000700115
0,453320362051814
0,424677129384452
0,447923815638902
0,429812564072659
0,455861476909661
0,432350516882283
0,446799722172641
0,428550416156822
0,443545867029995
0,431354842148356
0,447506336025521
0,430344186831964
0,445581711283673
0,420234392507911
0,439703536861107
0,421704756470548
0,444191450145699
0,428566905139257
0,442164893173773
0,418643247630727
0,433537525755097
0,421514445956803
0,431021784058642
0,422502060077639
0,436630719292387
0,410046944415626
0,429123336615501
0,414067219061979
0,430921864999949
0,414224235090037
0,430293000667503
0,417696690087822
0,423841020985382
0,416528662972456
0,424287077644336
0,405606327024508
0,41381252910958
0,408489021220353
0,422101350179913
0,398062885716104
0,418825017400864
0,419634297176249
0,423230655963376
0,400990963072011
0,421296673286876
0,401181694053914
0,408447961936976
0,40247869283567
0,418781479171181
0,39907135283016
0,41542866865404
0,396067087155707
0,410375816416679
0,393099688384129
0,394987162241
0,386482533336758
0,395969249159432
0,37735509417387
0,402300390726989
0,390036938137257
0,409300937691068
0,393516098529875
0,403111772581061
0,389921804662967
0,393397831447658
0,385562349340342
0,398022454978508
0,373748050408879
0,387062455488476
0,377328266594631
0,387470718772094
0,381265425068506
0,383364500328721
0,373526657433181
0,382332397555464
0,367787555302015
0,379726947852097
0,365938078901025
0,372125243812978
0,361887819911166
0,37223155670924
0,360619524996496
0,368146133960709
0,368510880450282
0,368289762847861
0,363950838986924
0,367485004943649
0,349712466087523
0,366999695705057
0,354874075669556
0,374762023925349
0,346672816869194
0,347695705339499
0,340994467829936
0,35893636289174
0,335115866673737
0,345290832237194
0,341718888459703
0,350636942702241
0,343606719196996
0,352893599759213
0,334055175318592
0,343726052649555
0,333309264543877
0,34508007645956
0,328013104926061
0,338978432875136
0,327577535293858
0,336487117662042
0,31470871204941
0,331014485414114
0,318115244872395
0,327407386609399
0,320628068862644
0,324779088860888
0,317855617057875
0,323090289035439
0,31472364571691
0,331990794113466
0,318933571327669
0,323604747652162
0,312955691343196
0,317059230989336
0,304394640845088
0,317442791341919
0,306674876286742
0,31615483841631
0,300938659003566
0,306092988685447
0,293478404625797
0,303062953575503
0,293050405554381
0,303022016460727
0,293318695850279
0,302296008648075
0,290417355015414
0,290122621877776
0,287837918482506
0,294853258889569
0,284658826182643
0,29439760290844
0,282102425169342
0,289180734706145
0,27364569570875
0,288184594190847
0,282209589940928
0,289022225811711
0,279620507234434
0,279131258458456
0,271039030560207
0,277974012121506
0,259840522917435
0,278569875839378
0,260540155345269
0,26398324227125
0,257350832431043
0,266527172042905
0,2598634067771
0,261833828522048
0,253943843298579
0,26484875848437
0,253386078078498
0,259134217657878
0,250235345197353
0,258679001050136
0,250545351229349
0,254577052403502
0,245538470702303
0,255669776199514
0,2474834758513
0,252062248475103
0,243834201417936
0,251167668920252
0,234158534555189
0,246299991193304
0,234779811279676
0,24180926422725
0,2273475787542
0,239158997472449
0,231355304477573
0,233823937162654
0,223050720305285
0,234617814629161
0,227494177435229
0,232138126846973
0,22521445561328
0,224378442341799
0,223724607901078
0,226916628752037
0,216333300107612
0,230815795568405
0,219873036531805
0,219455008870822
0,211345969679505
0,213000432754844
0,210222073185925
0,205439623186841
0,208613088930036
0,20650897568128
0,201993571598414
0,209848101107908
0,206132678256527
0,21533965078586
0,203444675729675
0,206259003256669
0,204786806519069
0,209076522173685
0,191340054612216
0,198611625523916
0,195401150706262
0,198894688256408
0,187366715100085
0,197236942719382
0,192993075910787
0,190422266043733
0,185112907484184
0,19133715747835
0,191202765144616
0,192630911749285
0,180577849961607
0,183268327713237
0,182918823969101
0,187402547441518
0,178433805349326
0,185376652036278
0,177127315426367
0,183714403272881
0,174111057321442
0,179195079440867
0,169352233540692
0,174162048576275
0,168299340144362
0,179684958114346
0,171703280328229
0,174248057031745
0,167425334610071
0,174375127531779
0,167768107582693
0,173677197757486
0,16609693590914
0,170169749813419
0,163395023775746
0,170239466629527
0,162244387714751
0,168242359921937
0,16228174357762
0,163358270047
0,153299647466315
0,161290228024611
0,154317295275887
0,158612456777799
0,157041288098158
0,159282957099439
0,152077660300692
0,155184377422462
0,154127280218363
0,152612701345979
0,150638916341931
0,154567958028087
0,150128208389012
0,150615384482536
0,151384233573232
0,149915150000475
0,142110393714331
0,148641326932597
0,144766649646339
0,146414072605097
0,140119882548446
0,141731517921662
0,137330091854364
0,141690527625814
0,138848387190118
0,141793346172316
0,138271514795683
0,140556103254829
0,132366260508954
0,138421860331026
0,13165507200647
0,133509761678653
0,132554087273173
0,137905493732557
0,129261421874475
0,135383966304971
0,127329341996865
0,132544717056562
0,122413589789864
0,134937307062793
0,127699514571636
0,133076861683548
0,124820457795476
0,132901825223833
0,12548274681114
0,130945681671921
0,12682196637486
0,130212853070201
0,123331546424972
0,128059138345166
0,123914717604472
0,122355390874384
0,122270307868903
0,127996318003987
0,119210644984953
0,118232618106621
0,115439363547209
0,121244184931875
0,113056174840487
0,117894905468861
0,115043378429213
0,115174845857182
0,113961308076723
0,118017265029884
0,110889033931852
0,119412830911268
0,110776373211033
0,112124861872786
0,110932491791235
0,11427876825314
0,111630520879279
0,115040900652158
0,106874867203697
0,112013829084106
0,10244571387774
0,10858597156484
0,108724996663155
0,106312463605084
0,103315996142619
0,108010216669285
0,102856563792628
0,105942785557555
0,102063415212055
0,106014155406576
0,104419707490615
0,106873396450552
0,100827209138182
0,102087811543044
0,101844849838848
0,102533463221806
0,0983930978946368
0,105656682091676
0,0988757503128058
0,100156900139543
0,0973638426925777
0,102632375139398
0,101124447293261
0,105184535938671
0,0985203296442169
0,102319503340267
0,0998638888653496
0,104451189143214
0,101029346428304
0,102730180387556
0,094783214194666
0,100349030442335
0,102760440521334
0,101204673719882
0,0979556020870472
0,10499310481959
0,0958699806242385
0,0992662738478432
0,099954827207461
0,104095542511076
0,101109991142005
0,106672280884946
0,101236512785509
0,102634929834429
0,101760450617086
0,105836386868858
0,104898936469615
0,105559274387867
0,098717160685849
0,103806874504265
0,104848070918569
0,104783124237851
0,105012186906219
0,104254080498588
0,101403027905694
0,108153036076721
0,108300046163243
0,111976519920213
0,108477629945689
0,110543410550528
0,106661382038963
0,112522359420878
0,113568976299119
0,113726292392972
0,110574212266557
0,120351678252605
0,111746555833036
0,120295143770629
0,116503907812951
0,116960597895301
0,119936161503271
0,121672706241733
0,122357541593447
0,121637388457148
0,116076526116203
0,122796698015755
0,119546457169846
0,122018701185762
0,119713218773574
0,127959231800982
0,120001789106582
0,124506142657593
0,12749102951797
0,1352601341543
0,129306722759305
0,130720806182939
0,132010962206163
0,1348387869864
0,135276606336251
0,141744681969126
0,13448188498555
0,140505629431818
0,140766747648635
0,145000592684439
0,136088548834862
0,143090317619919
0,142323270731249
0,144541826877752
0,143920455143
0,146546454810601
0,140167027537079
0,14407616276133
0,143928022858252
0,146459543287933
0,14716346010787
0,1480280369848
0,145926687508289
0,147859387309948
0,143744565668948
0,150258010191332
0,14743371697286
0,147991637911333
0,147848763023159
0,14437461284414
0,142487112542861
0,148939648723261
0,142916815148422
0,146396662976827
0,142097776983344
0,141381590516764
0,138667842823523
0,143288591167105
0,141308014835377
0,147037035018294
0,142738924227506
0,143414840869027
0,142197154159945
0,142531975604653
0,140853954723571
0,142912612613585
0,139342070265029
0,140379849675594
0,140060912554579
0,139339353572647
0,139379394944999
0,144562197317672
0,13827462251652
0,143736018494402
0,146226929373173
0,143418076222238
0,138340969913294
0,141692371584479
0,140570314582819
0,146662403530827
0,140652310938731
0,140717300242246
0,141421495415885
0,142348978603558
0,140280076318712
0,144548783792956
0,141496225366582
0,144494851235041
0,142124350866182
0,143867920344337
0,139227799571266
0,139003885999092
0,137200835182165
0,140538620531158
0,139003529786764
0,13582885438237
0,135317552988235
0,136086498333935
0,134328150901081
0,134048557004666
0,12877418350121
0,131628756420192
0,12966483427002
0,130395804379081
0,129244827135111
0,13176496527831
0,13080972940705
0,12979835333059
0,121846184838321
0,12740107824838
0,123890237029978
0,122480649916131
0,121797833616041
0,120513260010579
0,118375979868696
0,119852819553105
0,114426019474454
0,116560479425194
0,112427326817564
0,11747339830591
0,107923087878607
0,112046583662492
0,110461116435762
0,109120335862719
0,109509861723578
0,111079997412067
0,10354248734248
0,106470383023737
0,104726183669586
0,103504552539999
0,102319025547377
0,102211291825674
0,0993718753810445
0,102917460616913
0,102718268686673
0,101007904667662
0,098252804903185
0,0974691955224011
0,0941226586545671
0,0968519419199491
0,0931868295721997
0,0974891811489285
0,0924928975283762
0,0937091070970926
0,0927489956993987
0,0937024875677028
0,0956631032562557
0,0936848201890312
0,0888171221273651
0,0933148925871505
0,0902488972436573
0,0959341624268071
0,0912741946760394
0,0902660361861601
0,0929975758256912
0,0925736303328463
0,0883903022334083
0,0907564324036578
0,0925130548360703
0,0915454080918361
0,0911212418392692
0,0884070513488082
0,0824212489485283
0,0874123539300033
0,0855393726093429
0,0844932165652469
0,0866613401464343
0,0844145982713479
0,0842721381617465
0,0865978777327163
0,0806094329289083
0,0824567095774072
0,0798262941022326
0,0832861430392148
0,0802745912948818
0,0838108083948023
0,0835721828649749
0,0822874339858886
0,0792547115896982
0,0787105020452867
0,0755569472262637
0,0768565470655392
0,0775003598015101
0,0806395310224998
0,0786817886634092
0,0774111707508648
0,0758818406706305
0,0778057995135676
0,0746176209245905
0,0751247408030603
0,075629093937712
0,0759029404497589
0,0751674092512536
0,0772125963625363
0,0739956660949601
0,0773513164194414
0,0742382819287374
0,0726791634460937
0,0729586308019422
0,078749731760711
0,0762675679772243
0,0746579816639643
0,0708723298218467
0,0758269440717222
0,0755312101771026
0,0731286703551823
0,0698738989667369
0,075575705966199
0,0741967837069192
0,0739685049511009
0,0745984821954227
0,075933423244194
0,0727803482762288
0,0740157564165239
0,0698338806608554
0,0740369054708224
0,0734572059875172
0,0702950941605782
0,0684822356057125
0,071938544694028
0,0721543109586896
0,0723984382350999
0,0702877035740059
0,074105284462342
0,0724538792025136
0,072845853758154
0,0712084987841088
0,0714843012280615
0,067764452210197
0,0668945248537798
0,0679854963763036
0,0700286515623309
0,0661728772299417
0,0662958048950844
0,067624346056024
0,0707919839725394
0,0697163526395626
0,069112377980406
0,0691351958868808
0,0653362964715451
0,0660750946075719
0,0674953845258017
0,0655889702646204
0,0692299297336243
0,0656699410121936
0,0645242607981621
0,0668142246857362
0,0658542065970221
0,0645642879154313
0,0663295289925321
0,0671884417530557
0,0670100131721383
0,0628505571870479
0,0639522151157282
0,0641100282294563
0,0683771593156542
0,0672098502981568
0,067094250281214
0,0635597371279233
0,0657107370090152
0,0660545948213182
0,0673715615761629
0,067257921365762
0,0645195128322362
0,0630787527408787
0,0657089071498284
0,0644635236801397
0,0681981043459085
0,0651059061574886
0,0636682953009961
0,0635030347557545
0,0648272693889596
0,0671344551059198
0,068294917020499
0,0664766383256047
0,0635767420085948
0,0623400084201341
0,0644591701321366
0,0659289919729738
0,0669495314078926
0,0626036797169792
0,0617136476040879
0,0649543042863543
0,0641231627616475
0,0610973965797346
0,0639071257889959
0,0628562972468373
0,0637293626664488
0,0623719569899194
0,0609866606831505
0,0625506842896695
0,0612033373563798
0,0592663786215781
0,0591389422772593
0,060826147969547
0,0640696536840947
0,0578033630983992
0,0597383459486451
0,0615160502542669
0,060505903283184
0,0618092772922329
0,0617359203691588
0,0599558860944363
0,0552778988097054
0,0576527697554742
0,0582590662763839
0,0568792844005512
0,057970951779389
0,0579879455110242
0,0598958947102292
0,055724261596309
0,0564822114849333
0,0581120666633893
0,0573914398609012
0,0571804516729652
0,0558994686988115
0,0556534772077371
0,0562312514451616
0,0585320930406359
0,0602172629806758
0,0567247014100492
0,057259105945764
0,054555687798241
0,0548114194158047
0,0549030749300553
0,0575954087544441
0,0543477751274612
0,0547282258960968
0,0571539086743323
0,0546459331529127
0,0566961563841735
0,0608747470040736
0,0561193023759292
0,054871974402369
0,0558584646530505
0,0533946969670676
0,0511457512171828
0,0532457150518265
0,0516754338038022
0,0519097174497599
0,052311114572088
0,052971918367131
0,0542622644452892
0,0520739324537826
0,0533349074504962
0,054420152827605
0,0512790481966395
0,0507396000504208
0,0503593106694014
0,0544175605577658
0,0556752908049975
0,0508152036166631
0,0499268534682232
0,0503666077540913
0,0496863193734639
0,0509188888281112
0,0478653047695181
0,0478931062885846
0,0477090562740131
0,0466480713065877
0,0482157973562663
0,0452490163839763
0,047199989802714
0,0473024736069504
0,0483002250916001
0,0488597245764128
0,0477852516476597
0,0483794080919045
0,0494318028295615
0,0466321878814906
0,0476899824482604
0,0486193542870543
0,0449450049169761
0,0452417454458744
0,0425007420528922
0,0435443970832988
0,0458680866502397
0,0446704662557108
0,0468537078414011
0,0480898503347697
0,0445315364765547
0,045649757294794
0,0473782004016642
0,046328965016643
0,0447090088601625
0,0409041069823347
0,0442102391468949
0,0477419635186438
0,0451509466215415
0,0440810924388007
0,0432396592476058
0,0442036936493172
0,047279172889086
0,0466922412806694
0,0443363724089771
0,0436947114446029
0,04595548419844
0,0447962338072211
0,0450132540403627
0,044713799888542
0,0430334579563344
0,0435979426893664
0,0425353197389123
0,0420307532140826
0,0424370054977792
0,042785931307512
0,0434770945944819
0,0407797817356396
0,0415729673591277
0,0443246058255656
0,0421734386624557
0,0451954129713801
0,0433027219062059
0,0410557576743009
0,0392665700291506
0,0403595660728766
0,0432625566093667
0,0424579735301025
0,0441129050753934
0,0395378157473901
0,0364278063100929
0,0400305066249645
0,0390504950344499
0,037259086037554
0,0408445636462804
0,0428117283877411
0,0396470188934839
0,0402702350020361
0,0420294947137828
0,0381746033766383
0,0391333398363728
0,0381917121301221
0,0397021432085913
0,0407319273798451
0,0398557521372866
0,0385363078748639
0,0385937574900246
0,0379272057050161
0,0389226809871461
0,0375423421099735
0,0393527390471892
0,0404241988389459
0,0395799946866116
0,0411743778804083
0,03959550393753
0,0364809520336877
0,038663010659165
0,0408414237359367
0,0396663852225159
0,0403655284011743
0,0392364559212357
0,0421627566470494
0,0430091688024501
0,0408278691292145
0,0402440141204622
0,0408833665320164
0,040257264411166
0,0410359487979963
0,0398408659150826
0,0391225826830976
0,0400529349900095
0,0386412784278494
0,0386653292897194
0,0368484575845299
0,0396055986748877
0,0389834674387357
0,0388357139321259
0,0390159708293609
0,038522387434543
0,0379818563006878
0,0397886628747029
0,0363222801693292
0,0349148597218966
0,0354488273366138
0,0368137648840101
0,0363984176728917
0,0380586920329484
0,0371795419843181
0,0358871446064765
0,0383431237459417
0,0380875649444563
0,0362254651536357
0,034639844619981
0,0362653491002673
0,0343330621039583
0,0338942117657649
0,0350239600291486
0,0313055767714722
0,0348786740657876
0,0349927244242253
0,0341945543191454
0,0374853990593006
0,0368108402305217
0,0332528421781257
0,0366499400180835
0,0351564692187235
0,0344069107165983
0,0370936304604032
0,0374590405094574
0,0320516688093091
0,0352700191506733
0,0351391868403619
0,0345094373487966
0,0368810708472644
0,035752180315087
0,0363470511646309
0,0382361628542329
0,0351530480215788
0,0349006375342693
0,0361253339987369
0,0352292770674362
0,0342160850732084
0,0373596190019175
0,0357941917532852
0,0363445230764804
0,0340513003007922
0,0366253754053466
0,034563796593782
0,0339379355112431
0,0357992589566179
0,0343741802166352
0,0328097805276071
0,0350785786044296
0,0341868032637829
0,0343843179403368
0,0326660531860538
0,0336240728967496
0,033498676429078
0,0346132490022512
0,0349206509818114
0,0344940097562739
0,030849894523868
0,0338927351183177
0,0324702936854265
0,0311724332893323
0,0329794865704654
0,0327839490277597
0,0326680814552044
0,0355150774155349
0,0294481843205395
0,0318091327250174
0,0309088462867437
0,0302558652361056
0,0311741975248476
0,0318918185547656
0,030880394901241
0,0304340828088696
0,0291363384906051
0,0326802352387932
0,0309575807512664
0,0318659801502963
0,0302109837640296
0,0318938173164427
0,0310674838763048
0,0317854383552057
0,0320234239748902
0,0314377567851309
0,0311228429138838
0,031038072154352
0,0291281703193351
0,0321591736070335
0,0296561455205056
0,0305763307114866
0,0300308303910111
0,0294782453333779
0,0305539886349756
0,029643158740888
0,031754638111884
0,0313084834369671
0,0324178212030392
0,0313363394872584
0,0298364837957429
0,0304058318584124
0,0291510349664546
0,0304995336904653
0,0298648106038807
0,0288734663884026
0,0290631312097982
0,0300541532754514
0,0294577078252286
0,0288053229436269
0,0288483766771631
0,0321586309033343
0,0285940935446728
0,0303668225179146
0,0301068984891519
0,031718447196019
0,0293848833921402
0,0281957165200503
0,0302865704445793
0,0282182265788359
0,0257620658252607
0,0280126522610107
0,0255373711673828
0,0267508992718009
0,0250265635212202
0,0290011428029081
0,027115316034597
0,0258000034876564
0,0285827984820887
0,030370780852226
0,0267905083938476
0,0263101697332504
0,0268613860744813
0,0275380030330358
0,025895352595962
0,0265327538094189
0,0261611694433648
0,0284754859976842
0,0251532807575531
0,0244136284906424
0,0260157320657448
0,0266526116437066
0,0263840222312276
0,0275913671166929
0,0259063433598912
0,0262441902879676
0,023130695893123
0,0286080767151609
0,0260860728435864
0,0255704648974328
0,0256788471878016
0,0274322539168519
0,0259033086907012
0,0272669153496747
0,0271349881494157
0,0261524655446078
0,0266134494341719
0,0277185045280293
0,0273020937976595
0,0282324854794613
0,027253610241226
0,0310970833752354
0,0290290768048395
0,0278789905327536
0,0284065823159197
0,0287082122816269
0,0270212486970792
0,0289337584554053
0,0248396386884095
0,0258661017431201
0,0275083329773847
0,0301897045997184
0,0280706399084909
0,026663337887504
0,0178144146082898
0,0229353889496497
0,0254073547620938
0,0282412344217333
0,0207551908400845
0,0211834646176965
0,0213713154386582
0,0229852853194079
0,0201382703685775
0,02614804819687
0,0197764471276303
0,0228885394065617
0,0228986616566259
0,0204587720012416
0,024618463839652
0,0296030406794034
0,0270442899438918
0,0272845551543405
0,0243868888017005
0,0234739875180805
0,0204166756154751
0,0252097618007785
0,0221605834506979
0,0251292671245494
0,0239034414336654
0,0243987581513332
0,0183282940966679
0,021133412060699
0,0181718219323946
0,0282651190304748
0,0137341933411027
0,0237811941089045
0,0157316300593604
0,0240615894128104
0,0126680616702408
0,0343128610819202
0,0142211131195773
0,034738148240325
0,00892236417416861
0,031377807924226
0,0154719821028584
0,0449017180701264
0,00993132568021119
0,0374463832844744
0,0099385632292286
0,0501148575376462
0,00902408776501826
0,0432518987438044
0,00899285595924147
0,0516816726669384
0,0154979005771044
0,0382693274420942
0,0171685756590088
0,0390191610108783
0,0210301395863697
0,0297784445354835
0,0313997490947355
0,0250642457466896
0,0296816021473175
0,0224601162060352
0,0298268735378783
0,0222814753228219
0,0281696665222173
0,0272105498111905
0,0244652459398456
0,0251512436508145
0,0251329157761179
0,0274472821515224
0,0203345724597438
0,0273163939225953
0,022149339914069
0,0253742591193621
0,0254863116417275
0,0227808189642873
0,0222062843862863
0,0235775053184626
0,0216383342509848
0,0233875347853666
0,0223617637404034
0,0222334133677075
0,0206876291325266
0,025609900278254
0,0220772964259948
0,0225187155367744
0,0218163104835508
0,0226304866414375
0,0218958739095663
0,0235775785089928
0,0209578170656235
0,0209283525585864
0,0209669516547789
0,0252929445430682
0,0207064232861167
0,0238063481853942
0,0206064104023351
0,0228409131372576
0,0211952603830953
0,0219459772599155
0,023272210954643
0,023307648096475
0,0209105817188053
0,0237354653653139
0,0199860153100346
0,0227231483426522
0,0213219256332183
0,0229626471134664
0,0230075908138003
0,0240687599708496
0,0209937329882805
0,0219725308044154
0,020574905656295
0,0218344576430799
0,0204693774548596
0,0216129498957958
0,0196692591239902
0,0238137043600546
0,0214442244144494
0,023253237353443
0,0213624134498822
0,0224456368921932
0,0192745020588741
0,0217295133889765
0,0207728853897035
0,0242494365108108
0,023345533382614
0,0249011888764155
0,0220539469946916
0,0214651122604909
0,020085124441614
0,0227364576774923
0,0205832876921454
0,0201801122200441
0,024219534046159
0,0221703913011951
0,0188910719005572
0,021658901627557
0,018938991920296
0,0203280690018445
0,01937231161835
0,0215168740004958
0,0193729096813458
0,0215206952089182
0,0212545330610405
0,01859736279085
0,019224174367088
0,020678966340342
0,0202073083870305
0,0218847017976608
0,0204828729535181
0,0213809422596541
0,0212990651931212
0,0236952317656028
0,0177963159956989
0,0227376097833299
0,0205185107318048
0,02176509056077
0,0213763832898796
0,0221282777866898
0,0192928812985646
0,0204257054059521
0,0213861056725951
0,0215159652213367
0,0215582491054467
0,0206916551530079
0,0195040901528805
0,0210508405900259
0,0208308709436171
0,0228746358064256
0,0214401896234844
0,0230379771906652
0,0217156856467278
0,0233237713729786
0,0221822617042657
0,0222955776021866
0,0217973305464014
0,0231076318988458
0,0194455797170369
0,0238956246199275
0,0217538766977716
0,0220404217678156
0,0207761696114241
0,0216584152933776
0,0211538943406434
0,0223793194682942
0,0212257199794915
0,0232925350824657
0,0203777485870829
0,0219995382756113
0,0199924665303612
0,0198605171210587
0,0185872527260353
0,0232086980912384
0,0227893199915164
0,022190412807815
0,0211457170849385
0,0193387980169967
0,0168948628765413
0,0204598090814185
0,0212661213557304
0,0210854283793261
0,0197731648405247
0,0226354460323819
0,0180993201096816
0,0218492351160578
0,0221196045611093
0,0210735991145934
0,0189939596507003
0,0219550299037549
0,0176116982029509
0,0216411668681943
0,0200674061714059
0,0209751859076614
0,0210095465399278
0,0224119123804061
0,0206055131486972
0,0224189628098397
0,0207678086344964
0,0211396790360858
0,0194390600945345
0,0221077464427657
0,0181816211514655
0,0215919410769054
0,0220437785365746
0,022740823147756
0,0215178923037721
0,0216785578013793
0,0204931462146874
0,022913870280615
0,0220672821783975
0,0210416204267454
0,0210281443895665
0,022365541488586
0,019886496316553
0,022806145840777
0,0228228390032636
0,023174074554595
0,0189115998223813
0,0213657048067039
0,0185727458206259
0,0215000146241671
0,0208445340696196
0,0223396754554827
0,0200614700045101
0,0210961289795414
0,0212088375639525
0,0225677337642185
0,0195344585191021
0,0225232423912798
0,018977976110198
0,0201373583372229
0,0214102284928924
0,0239788084016894
0,0193490709700714
0,0199990396304586
0,0183907174874716
0,0186366266672238
0,0194210573471083
0,0221058281372231
0,0197517861451872
0,02065148162374
0,0197098173115252
0,0216804117724965
0,0196918557548103
0,0207546128960074
0,0190372595779681
0,0198046309819092
0,0175586176974863
0,0187579591906792
0,0208771169602711
0,0211229597635956
0,0210715859266479
0,0218356233358485
0,020741415007514
0,0200635648486907
0,0197454427822743
0,021144637900893
0,0196530646010458
0,0213128750501101
0,0205843320744632
0,0210964913307017
0,019888514544414
0,0224825560596753
0,0180068259107688
0,0191473125090918
0,0192462800986736
0,0214335532200556
0,0194663532127258
0,0213260975645488
0,0191895228557996
0,0206837329820715
0,0189141422340797
0,0206362840127145
0,0190663632681489
0,0205177775650234
0,0187850386126992
0,0218843661297318
0,0209228037431437
0,0206292635332937
0,0187916125263347
0,0228187622395245
0,0177729459313183
0,0212191432555337
0,0184748084626276
0,0201794745170357
0,018098829042342
0,0192679661400339
0,0190375445065329
0,019699072990725
0,0213288370674628
0,0198567652886473
0,0179288789030643
0,0207804679066713
0,0164115970255993
0,0205816901376532
0,0172573904720765
0,0186243158410181
0,0183514933007383
0,0200359331040179
0,0183341442236857
0,0196454143789196
0,0176672054892331
0,0201918598869004
0,0220211477601102
0,022752768017357
0,0197106265696832
0,0201637327599769
0,0191361754019088
0,0192579955093323
0,016843438243953
0,0195046711608421
0,0179944913916653
0,0210526755761611
0,017333346749328
0,0193502205625926
0,0158103225904807
0,0176109194150674
0,0176741806136451
0,019468535536247
0,0182630994831534
0,0213720046520067
0,0168983425144824
0,0185151999024797
0,0175095179049198
0,0179166831107434
0,0163600553814571
0,0218218172621081
0,0189548737714978
0,0219703149399692
0,0227706330918144
0,0224223151872431
0,0157516336803506
0,0205330380690687
0,0179936700419228
0,0192783288992171
0,0196732429383069
0,0196852397153062
0,0196396729314043
0,0193110719200396
0,0172266327326495
0,02012015812482
0,017805187397442
0,0188288651094183
0,0180474658952769
0,0208036760025375
0,0171772048350977
0,0190636198947096
0,017874868519997
0,0201472890701429
0,0162057881851831
0,0186343712429131
0,0186091410115709
0,017835309005312
0,0199458672865806
0,0212381043598709
0,0234912232055701
0,0186576939298412
0,0193838094500789
0,0185612939260288
0,0170842624420255
0,0177146651020652
0,0163922069396498
0,0191777987281626
0,0177317634048855
0,0162151419935894
0,0186752091244057
0,0173230247756127
0,0160870709891781
0,017002229833276
0,0151796274785424
0,0165377364879328
0,0138753739344408
0,0170628668665674
0,0174416581045347
0,017627806136532
0,0178555365062401
0,0156222817123972
0,0177594674031786
0,0160378138578431
0,0181487410332994
0,0145233533634158
0,0256510866539305
0,0265365171899571
0,0175928935119565
0,0190822349673438
0,0178209569591664
0,0225279913108372
0,0163790772835794
0,0171718964646611
0,0133894882821289
0,0175077276167558
0,0136313268439114
0,0173508010134039
0,0162831864156663
0,019750136476315
0,0165796725470726
0,0187110536680114
0,0157350565511695
0,0179408069472273
0,0171478581746834
0,0177576241789184
0,0162696559143927
0,017329893764977
0,0131940295606279
0,0153512767016619
0,0151920729846909
0,0156677835393716
0,0153100701721961
0,0275858526922854
0,0225116927694341
0,0229502265728798
0,0172315382369787
0,0183515775094172
0,0113209776863079
0,0196363421508388
0,0161698458205774
0,0179978125792547
0,014554574988643
0,0160785535756988
0,014180557253156
0,0172090472946122
0,0159084054445561
0,0184022680170281
0,0122396168808506
0,0186635936509313
0,0155052339356789
0,0180337040301005
0,0109821668032812
0,0168404528084034
0,0101101288976252
0,0202043759644909
0,0120208062077075
0,0235973101197312
0,0109440962979089
0,0254890775703716
0,0331417318930878
0,017809096277584
0,017906679554307
0,0131919372984993
0,0176331064247165
0,0154485107036887
0,0165800862152797
0,0156678856797096
0,0166516131849476
0,0134159939398901
0,0185344181043553
0,0155040843404229
0,0149041848096837
0,0170857807091217
0,0173950690088394
0,014789250046131
0,01511143905772
0,0159694614419358
0,0173571448709423
0,0136216705370252
0,0220069353354679
0,0328781020649346
0,0197248850875377
0,0205554662952523
0,0184185109095483
0,00835759519857005
0,0424057216043112
0,0173276305528758
0,0234544967906459
0,014692345130264
0,0198177819090326
0,0141620998441051
0,0189184043704399
0,00994504025440547
0,0198774706191678
0,0239862468462853
0,0172216565301778
0,0218181521439174
0,0154485642931752
0,0154832330974117
0,0138708690665453
0,0156603540336764
0,0132169466607555
0,0165914156780567
0,0146848955119938
0,01641653425033
0,0161976073238727
0,0151608743830577
0,0161898926985417
0,011888602385163
0,0213727952234201
0,0191671888367506
0,0165615398272478
0,0148509237732557
0,0193948942350752
0,00836505596613128
0,0209400331375422
0,0332663193114384
0,0136573314446514
0,0188252356676309
0,00923075270599006
0,0219965456156483
0,0140424939929892
0,0184949451555284
0,00917225343063133
0,0181912556234424
0,0120805485070158
0,0163319435931466
0,0139509634555842
0,0162708749530808
0,0124623593320843
0,0174071076281835
0,013800285616747
0,0164362429607949
0,0126585516236379
0,0161664237391314
0,0182270751266138
0,0140045008086503
0,0354156991742887
0,0395018340390974
0,0333031692202886
0,0279657838293189
0,0228047058821345
0,0159481146605688
0,0160516703806197
0,0164444819527795
0,0149467290916212
0,0217338890884719
0,0129534087870761
0,0193947385245792
0,0172225664092361
0,0168432703290893
0,0121734065462159
0,0177515636100151
0,0140061557364526
0,0177169148620889
0,0112998142386341
0,0159448129338737
0,00966222185916191
0,0193878980652225
0,00509713178588813
0,0318680946216335
0,0154093449323749
0,0271475767127328
-0,00184457001240062
0,06525703586427
0,0293332898442081
0,0275292493972475
0,021269444760859
0,0174188130028133
0,0196943259570081
0,0136320356591906
0,0151866434501504
0,0234747995935266
0,014140931462459
0,0160643902321529
0,0129103370732454
0,0181042528678229
0,0194386008105757
0,0127853463860306
0,0218676724893707
0,0488923804767985
0,0226586620225934
0,0276693213855669
0,00659809516034413
0,0300969151190927
0,0428990149732312
0,0163780710576855
0,024560386256496
0,0160486571661419
0,0156477720058279
0,0147145425424333
0,0163119098201468
0,0152831075983431
0,0245022571333628
0,0192738186281022
0,0175335876791762
0,0167632196729498
0,013282947864872
0,0239595912634296
0,0141602163599079
0,0304099057160291
0,0299337473618189
0,0152952979678659
0,0225117432999208
0,0183659937710674
0,0143088304778479
0,0174664430834472
0,0157263072386019
0,0130979884716998
0,0290122286393388
0,0326482762272423
0,018391430452522
0,0364821535751897
0,0277097896458908
0,0166108892952936
0,0238263770546897
0,0228016734575997
0,0351689833219472
0,00590312477917197
0,038820743291422
0,0432596139063827
0,0341897304336764
0,0436891861769267
0,0117825135858244
0,027260356788064
0,0116663506695957
0,0249601376853357
0,00294689004218521
0,0469305164025697
0,00703451033323827
0,0319923768955414
0,00215207878303446
0,0410267727025544
0,0225500008765981
0,0291095377774149
0,0180481678751118
0,0183041814043965
0,008428298660342
0,0438863657854756
0,0153476440238915
0,0182832819352972
0,0545128550606329
0,0457287442436191
0,0533260495956228
0,025154340251629
0,0179329192781354
0,0622315484152638
0,0166862878085412
0,0318681478523656
0,0121395331193192
0,0308961203595213
0,00906689822086249
0,0251927970401756
0,0556000436293919
0,0285942480206961
0,0212336978428132
0,0261738958882353
0,00916852782925046
0,0561393878545364
0,0245032044342002
0,0261952040563878
0,0136715878276778
0,0306829757440498
0,00228861893186359
0,0880589286361931
0,0249869720336844
0,05218108599956
0,0421172472087683
0,0442071767953483
0,0355176081353155
0,0341464625119225
0,0224098578502809
0,0435660609063045
0,047706520298534
0,0327880485982141
0,00845298045438349
0,0489562982948404
0,0512274639918684
0,0226483452182395
0,0370062050585147
0,0198947104499068
0,0209113230913952
0,0608437009228826
0,0851096613818002
0,0612084377844826
0,0304981972873794
0,0268093375488385
0,0607931544790855
0,0271813577887866
0,028030960447826
0,0197573358295929
0,0216256194743203
0,0211753655660111
0,0202164681904295
0,0424734508369962
0,022257579928323
0,0342193862126921
0,0196756681855669
0,0286448435656521
0,0436245613257435
0,0911392219306692
0,0685753146731822
0,0365709491092001
0,0859146885464805
0,0521536281510264
0,0459816541435978
0,0270486773019088
0,0291061562526937
0,0430921428339491
0,0336953815783476
0,0333903083689442
0,0218896536398609
0,0672046953570166
0,0353512325848255
0,0546656844543467
0,0616302884729774
0,0392210451474688
0,0452042011100047
0,0237180680728453
0,272834416768697
0,0483323791618531
0,0769665473614558
0,0367665507291275
0,0796790771696102
0,109563688326322
0,0576291325634792
0,0464807640318457
0,0479499558393959
0,0368030881408629
0,0571273063099215
0,0582108312357543
0,0600118179292182
0,0665514343883457
0,0610797088492908
0,0459764128518179
0,0923381600777145
0,132379469831765
0,131345055809573
0,0828835859015287
0,0625194018451777
0,0809777391630822
0,0831998912840692
0,0592888415390046
0,0758328766217043
0,0528279124257104
0,087390220699404
0,120852520495278
0,0754131811443921
0,0781643356942695
0,0718129620320105
0,118280175082974
0,0575335651033887
0,159015917047794
0,0955575890535781
0,107054774354278
0,074361424926095
0,0909173518359473
0,0825216664634532
0,0823560716942524
0,12414564719183
0,103226077871204
0,0962479436483072
0,0929506271769713
0,0898743472567444
0,0916244313698719
0,0937556301863617
0,102597909207709
0,0939138491951905
0,154579444748498
0,101052697747596
0,304032204185914
0,119558112043739
0,114492444518135
0,0986381504364739
0,107419616033458
0,14596507414555
0,119773405759714
0,158977948346107
0,127298739342824
0,101762905035571
0,102001144927257
0,0920767945669184
0,100628597785158
0,0911649294764502
0,109042911329805
0,0807237137049491
0,146207377389957
0,0865035463283368
0,166244897011433
0,152620186268668
0,110035568521782
0,0948169175383346
0,0998596831680767
0,0899269256673033
0,100069607030955
0,0845759507302769
0,105257693594181
0,11735586510661
0,0901302927131651
0,100907965678058
0,0814802996770286
0,12078888731594
0,115743447926236
0,0903049254865521
0,0926845938051695
0,0784751976301444
0,0970654590726543
0,0704208701354105
0,111692340906807
0,133970623945985
0,0897745519018794
0,0862818603346104
0,0790973315076509
0,0788202332449149
0,0800846750980893
0,0770038312415552
0,0903786061588438
0,0849328563255046
0,0775375946678332
0,087363747029485
0,0767679878750614
0,0768635406457399
0,0754756238020172
0,0835215663758604
0,0782748020989929
0,0804709142743764
0,0771697305483002
0,0769636804565804
0,0743903127276626
0,0711049506036454
0,0803367373172458
0,0769809767110005
0,0806023180318242
0,0788843908690515
0,0747404333904827
0,0770054423471448
0,0746327390433796
0,0809356320696877
0,0792341065237744
0,076587460501413
0,078506859647899
0,0761568266297798
0,0755224165930314
0,0785129465028395
0,0775822324667423
0,0744318865759036
0,0746645026815501
0,073455587596918
0,0781004424176419
0,0736200302384405
0,0819920688899125
0,0643792556105158
0,15349855906969
0,0897927004626758
0,0797023097835745
0,0728012754809463
0,0734598021723744
0,0744344603559127
0,0671090041410913
0,126530583335725
0,096604789112864
0,0756547253016256
0,073119880622659
0,0661776098452721
0,088457157213277
0,079878479187122
0,0664429121633254
0,0781748785526566
0,0520278984701904
0,132314720199482
0,130579606099501
0,157534213479025
0,156424801496661
0,0988490282088181
0,0643325627495277
0,0871620484049579
0,110095830338832
0,066766092977155
0,0778857241418431
0,0602716028696592
0,123817250410008
0,0781034011918617
0,0686905905143748
0,0666233626339219
0,061418237560648
0,0940030415418337
0,101661119989409
0,0790094653900804
0,103986836574764
0,111750534333815
0,0903777730729255
0,125227496755202
0,145447908024379
0,105310299872963
0,0643315117062583
0,0712064773825637
0,0629803070619373
0,0749266262444316
0,129108799140073
0,0727363301109907
0,0892046111214959
0,0549733207421199
0,0611546296308069
0,0651348154621929
0,0882719724163791
0,0749000339594646
0,068585548936211
0,106846044447707
0,0540320724169716
0,088511210951483
0,0770321441494799
0,120680012990762
0,113040389173975
0,0790830933308964
0,0521512900401746
0,107684448059659
0,10521702923812
0,0745386363472483
0,0816738336677241
0,048366873295734
0,0600956577500679
0,0851371236189043
0,0568914825392539
0,082159294632299
0,0751855227494244
0,0974991384185796
0,13214459333493
0,122858592572039
0,119535830753734
0,0657891196600482
0,0513597734815673
0,0539359602978379
0,0538691314047733
0,0588653541270533
0,0407650938050199
0,0902762605840215
0,056883152651401
0,0568350209731845
0,106856561645212
0,0580937312139286
0,0524169747077063
0,0534623920887099
0,0461598558081047
0,0629323958075405
0,083726080895532
0,106642689709779
0,0739469523733694
0,0731645865748018
0,081851805146041
0,0567025856239154
0,0617501349043117
0,0560977346032432
0,0604654629081015
0,0583306763352191
0,0717492850229807
0,0607375135642556
0,066583567372933
0,0662103409848119
0,0654333094592924
0,0949426788544469
0,102205079633508
0,0649710201840123
0,116923890485134
0,0955679247141094
0,141118867142741
0,0906815013394237
0,0836711198307832
0,0821656674488307
0,0807487189944493
0,0837400656122055
0,0809908550151164
0,0980187401264054
0,121002980502904
0,0844508329744422
0,0927068700296333
0,0829492214654181
0,0940063863734866
0,0897321961439051
0,135589359950055
0,113699796810248
0,176402151442623
0,138468365810437
0,12685345267936
0,101816989901052
0,0937484580592316
0,110892049290342
0,106806925365233
0,0998922749836292
0,0978829934157781
0,10062363971655
0,133347053515995
0,100353463040032
0,107757397894535
0,0986764941844923
0,101357602066848
0,100387694319013
0,103444423307384
0,106265105878688
0,10776744422404
0,106757481110039
0,10605907621729
0,108189501781019
0,187064148549888
0,124721945725507
0,116075868209353
0,110736886254647
0,117642193730522
0,113900782224383
0,114308546032455
0,130080031813075
0,123330925439232
0,1187079873478
0,121825619690145
0,116702626140982
0,119358887704739
0,130361752560548
0,150196317623395
0,116065524043367
0,133894668715156
0,111621103508776
0,162946598323663
0,161838014877981
0,146560402026328
0,145583828630759
0,133762917906437
0,128196966153273
0,127525620355052
0,124375926507014
0,129339826463626
0,133675793276231
0,128800594508758
0,12883869053085
0,123048845594952
0,127279429726429
0,126140873810979
0,12953757094499
0,153317459539019
0,127068698234921
0,123189378262837
0,121787761227804
0,129288573895924
0,123226117237406
0,154216200045193
0,140090862719808
0,130790891576339
0,132447348650836
0,139361526042436
0,150046940878644
0,142086495939011
0,118449716973036
0,128258960732412
0,118913270987981
0,126224659361811
0,117061530457439
0,135180325790454
0,145395564179493
0,133063271041056
0,126849475709255
0,125962535576325
0,125255849269338
0,123979219390899
0,12420946930211
0,12337324850277
0,129107707404449
0,129529128357258
0,135921875021753
0,12788964837078
0,13027188171312
0,140066626197813
0,143810962435154
0,142797524334869
0,127017740608724
0,129765592916056
0,124803146197355
0,126852476227485
0,138143295136868
0,128130147213582
0,120445621834133
0,12391980746623
0,120404936656626
0,125883771628861
0,15444810992567
0,127780998187908
0,131374559933389
0,119485609304174
0,11360507487047
0,117261129594847
0,11411618555114
0,114476245799035
0,111519417173583
0,115768822326608
0,107587890587099
0,111076297617265
0,108901186540702
0,108079103759666
0,106370297843829
0,110253158476483
0,10973005998477
0,107879630238367
0,105634309780149
0,10549448733391
0,103840774606399
0,108210687159118
0,107294520136584
0,106160525259262
0,120238745540385
0,125868148324644
0,123027189502188
0,112185852740643
0,112055078254898
0,111786454168089
0,102890138253776
0,106012506134557
0,101798778901537
0,105020611108899
0,104577857044821
0,105280950098067
0,100830781822028
0,103549176942278
0,101769911738161
0,104787626274251
0,10300491447645
0,104041325734307
0,101684638203356
0,102446888178113
0,101022265003735
0,104717525096399
0,102543833038239
0,113896739019693
0,104471347688848
0,105657083811593
0,106894000430275
0,103063408201866
0,10430571198209
0,104866684079736
0,105350177301215
0,102331347182366
0,10006954456156
0,103864349056228
0,101030564009235
0,103713154075392
0,0992412622600847
0,101291969825168
0,101233279623545
0,0999908258714333
0,0997163844451953
0,0972353786638701
0,0963061020350842
0,0970623222276535
0,0956736834674312
0,0965918860236573
0,0902700601759935
0,0950643785960821
0,0933220716734439
0,0927035950461019
0,0901411190748868
0,0893704109099999
0,0862288962353114
0,0876767461807194
0,087665933473597
0,0883002501378942
0,0914758652438699
0,0909376997519563
0,0870164784561083
0,0861040947688923
0,0852412906199848
0,0857960221848888
0,0858136057269342
0,0868869241106085
0,0884907211573973
0,0848913873131935
0,0827367519374709
0,0869776012735018
0,0852432724814944
0,0860355299552144
0,0857004874390164
0,0871525392224945
0,0880969269798525
0,0879665413630937
0,0897641188874741
0,0909472035756977
0,0887043024580571
0,0888885295027926
0,0869310982386313
0,0905008163993607
0,091232514711505
0,0902274457762025
0,0897989294893421
0,0906371381347731
0,0881748336553667
0,0919529203319614
0,0918399201230349
0,09398701201346
0,0898078289654576
0,0918189872261554
0,0927400168128148
0,0911286894096165
0,0895162148462753
0,0924848661987301
0,0917264299960945
0,0915553599059944
0,0891354279324809
0,0903767517059447
0,08910469187868
0,0893705828208927
0,0877897754371558
0,0921605368219628
0,0899797562679614
0,0903633277109587
0,0894115553173871
0,0909512673392241
0,0894716554765739
0,0890440602724468
0,0889255478797721
0,0862890072427262
0,0868024090470817
0,0865689226885604
0,0862496589376758
0,0862645005877791
0,0857671584766249
0,0871090229858707
0,0844482237681046
0,0854781129934733
0,0849995289160514
0,0857518985249059
0,0842503014987518
0,0829125649327927
0,082477737071913
0,0828899189240618
0,0821687578461973
0,0838560812286948
0,0821962718753511
0,0823643840534362
0,0790869005745054
0,0805774352442259
0,0806381348174441
0,0795473804691774
0,0795946648267398
0,0798370448013372
0,0791521570728452
0,0788299804930835
0,0769790186044607
0,0790630186759171
0,0785753382108227
0,0761715997245762
0,0772096915214488
0,0775635683103434
0,0740618215987082
0,0746357369739538
0,0735408398777409
0,0747742539361901
0,0751776139523963
0,0750017353997129
0,0737317331260187
0,0754196340458714
0,0758895717062306
0,0766093916344251
0,0747525259322272
0,0736191327865278
0,0726747826187168
0,0729727351007613
0,0722060525321643
0,0726166214084203
0,072057022153506
0,0699900077952589
0,0689003851897883
0,0700101049041458
0,0680578083921684
0,068660729768122
0,0676600414971513
0,0655228612628868
0,0668204241654813
0,0685892589932533
0,0698309190782346
0,0715899063017475
0,0715228402539432
0,0727190386535106
0,0760969726777001
0,0786836303941595
0,0822293816912408
0,0871346442272417
0,0900386051849113
0,0942239947910053
0,0982589499454051
0,104649693807029
0,107455944194832
0,111778406613955
0,115951548115626
0,120655866402831
0,125133124996246
0,128749388285372
0,133423061162419
0,13945406510022
0,14570949752773
0,148995434553508
0,154362613295052
0,158245358651412
0,160762154878652
0,16400879422871
0,168589369813535
0,174215340368144
0,176288680818498
0,179589891881431
0,180857263674524
0,185272543887153
0,188204081694433
0,187749272591717
0,189461786679279
0,191360772531573
0,190195590269446
0,191893074987157
0,191731869589441
0,191604166496529
0,193360814188717
0,191323998236137
0,189831754284575
0,192442088356988
0,191234621218096
0,191963804825582
0,190186708391065
0,190193065944616
0,190595247037462
0,192316939064035
0,192586507866041
0,193882730469461
0,194305362187765
0,194367527233162
0,195164646836609
0,197487655891485
0,199954994632047
0,201291510159578
0,204453159379831
0,205814090558432
0,205335747125445
0,210449352500967
0,214876396790839
0,217180379938234
0,21865649361539
0,224282040368127
0,224165215924184
0,228356918713188
0,231255191505414
0,234855884627277
0,233100566923982
0,237222051302185
0,240246045026945
0,238699239482141
0,240655558559628
0,238909075535925
0,237117387586938
0,238986714160738
0,239057434584915
0,238511309909934
0,238253597127011
0,239044381621414
0,236878024964992
0,240977640130099
0,240597995246995
0,242647550169756
0,244787833558709
0,248607396620387
0,2537614875443
0,256770915409336
0,26255644623324
0,266637378108881
0,271536872554249
0,273926184204864
0,279372155459403
0,283639788015177
0,288245533253405
0,291934071109784
0,296132147623845
0,30294520069258
0,304731374290461
0,31040588226684
0,317984102853803
0,320998199013767
0,325854965874823
0,332013067964285
0,33744763246075
0,342975370008638
0,34969986934731
0,358979305953876
0,364229097637306
0,368821073931953
0,373654568890501
0,381250303665188
0,386498581010176
0,384234552475988
0,386240531521898
0,39296682073705
0,397455293065998
0,394179843778937
0,393267569289861
0,395533821479389
0,392590350961298
0,391357517528695
0,393481285790364
0,390469730881724
0,385549097286313
0,387475416921738
0,381551608365727
0,382539716102169
0,380288254873621
0,375226664182973
0,3744324059547
0,37523118283874
0,371951262475409
0,376611026363465
0,374928699581557
0,37636404699001
0,380937649571993
0,38502755152118
0,382230443459815
0,385687697596793
0,388310269869925
0,393093085039433
0,399394784673544
0,401848351296603
0,401956590449711
0,403078450637865
0,405787778679058
0,406984818010099
0,40643726105989
0,413998533398574
0,413225313048554
0,414298444197364
0,413121966105384
0,413171115548515
0,411977593555279
0,410615870972181
0,411611601215793
0,41214593526017
0,412721724256652
0,413394232347241
0,410374295687894
0,407772618081784
0,407803626867933
0,406167223587429
0,401847504232524
0,400944485474918
0,401024230717631
0,396210460610314
0,395474247434168
0,390691867318875
0,386255759859994
0,382567587912167
0,376871278337989
0,376321715838485
0,371604226222546
0,361091968857235
0,355070064898492
0,35073929069477
0,340643240138781
0,331235634468511
0,319326192509438
0,312404238418331
0,299745506574455
0,289712628705852
0,280189562380861
0,272175177220023
0,261593457255625
0,250122983922037
0,244296993558244
0,237307281609241
0,229733350599053
0,223227207386917
0,217214914090304
0,213446063433469
0,210615169801128
0,206354417316698
0,207419283051949
0,202432665922109
0,200351994376033
0,201219122043118
0,197002653218593
0,19416322513445
0,192634722544762
0,187455108249036
0,185987155575162
0,182034209863404
0,178496623397888
0,175086143977823
0,169459932265477
0,163090052209195
0,159539267219776
0,15241476895593
0,150497056473417
0,144640327480085
0,134562706126406
0,133943518171511
0,123700854218652
0,122001787781564
0,117041491131887
0,10897577799028
0,104334844806634
0,0993585819214372
0,0953753143971669
0,0907906348968467
0,0856823753092465
0,0806688090678631
0,0741175872647418
0,0757849559169655
0,069139710266864
0,0684809394365334
0,0687431030663154
0,0633494037478167
0,0614113585191479
0,0607494886980196
0,0582913242499424
0,0544460043913889
0,0540916986239006
0,056034596741842
0,0542467570807472
0,0528736439653712
0,0531844821612006
0,0531395723468983
0,0476307393220291
0,0516135817616196
0,0520492141435783
0,0518576453555413
0,0524478229024492
0,0539118721686506
0,0540933402132179
0,0531281770883321
0,0538454066617218
0,0566724620361171
0,0553722438467084
0,0567462993676625
0,0568889901936533
0,0530893827247959
0,0553925614871846
0,0573593896625886
0,0590767281557196
0,0567200906319751
0,0549002012675424
0,0564508236067367
0,0575575364261061
0,0570514256944595
0,0532648495862158
0,0550258391332866
0,055436071421178
0,0526707857402462
0,054112428174931
0,0568058884591453
0,0597414306588458
0,0562012907020672
0,0582488749906777
0,0562587303621536
0,0544980091105894
0,0569787836502579
0,0584630911666883
0,0573601086232691
0,0614393914121907
0,0609155613447299
0,0587805813457013
0,063458822183874
0,0584410384998966
0,0608282619301925
0,0630078138767613
0,0595125748364977
0,0658696090236446
0,0618517942585728
0,0666640273469236
0,0625115589032345
0,0628595775530345
0,0601095415940686
0,0594209180957063
0,0644450031522558
0,0608641208144707
0,0651337713216255
0,0658490331977625
0,0579799856676946
0,0613467027368937
0,0643485550413783
0,0693291538217599
0,0697351776865168
0,0680861757178073
0,073238043889175
0,0782607930999149
0,0737506244593376
0,0808196639812506
0,0799027128659017
0,0812505491221725
0,0821245778910093
0,0792838376725847
0,0822683241955541
0,0811065244476451
0,080643002727835
0,0782268167793509
0,0770550803334692
0,071341896356581
0,0695314576777787
0,0708993627972028
0,0700592037599533
0,0717192286637389
0,0657988031948177
0,0705260482151546
0,0634739895256209
0,0683154697023536
0,0674752967269749
0,0704299736662472
0,0719720316659461
0,0674720251851619
0,0689426126448621
0,0673305001416342
0,070060096040886
0,0616621410980077
0,0637623743444845
0,0722133973464442
0,0655780203408783
0,0666920500817389
0,0646199992835536
0,0640354271243362
0,0638463502118057
0,0628545369911718
0,0625595191175787
0,0656529035174378
0,0614511877331186
0,0622613225120897
0,0633733884027112
0,0625437797611586
0,0620556584459508
0,061532316610905
0,0622867403089188
0,063189936409767
0,066563910367366
0,0593077730762111
0,0526092657727379
0,0633216277910073
0,0570564448601256
0,0622101378467366
0,059527431045463
0,0632835771553687
0,0605518112053084
0,061318403562743
0,0583189265622956
0,0544043201445106
0,0563883765205062
0,0548415090538113
0,0539366439710204
0,0556681118850456
0,0561376804558581
0,0572062314718005
0,0570024504290445
0,0561685586828067
0,042002362413436
0,0548858227733565
0,0520621342607652
0,0502039030539382
0,049599305112932
0,0547564993954263
0,0512326587836866
0,0526139534897495
0,0520370997966447
0,049977564219902
0,0555059296340494
0,0568875520474379
0,0395539866468194
0,0549334586267674
0,0479003433774784
0,0524123773767484
0,044712962962458
0,0520881714128659
0,0553375291450826
0,0535443284489603
0,0509672393648526
0,0492059007105131
0,0536289378468322
0,0547185485739028
0,0467446410841776
0,0525545331785852
0,0541151370997136
0,0572796359926392
0,0602755755566209
0,0742913464246225
0,0573326629677496
0,0607416761332906
0,0622490349549476
0,0588386378294585
0,0666322642781153
0,0697402325870514
0,0657407576769361
0,0590517908571122
0,0743246432441191
0,0702979738360386
0,0672519832991536
0,0672538205745971
0,0691725993536617
0,0814864263501388
0,082814398603324
0,0819192113469886
0,0888279040441143
0,0944887463956578
0,0877872742841929
0,0912239434275859
0,0977092041458256
0,105821119225001
0,0954456819509378
0,103039385588218
0,0944077973883362
0,10494993351648
0,0937160932716503
0,119771753642774
0,103313656250438
0,110997655442935
0,104448916828369
0,0965960108168999
0,0944035305415919
0,0837319141265379
0,0933334956973779
0,105286353526549
0,0930535072803515
0,0860349741320787
0,0889429770448561
0,107984992667623
0,0936028077819664
0,0884173928687201
0,0901918972380121
0,0861222621386376
0,101516540371842
0,0895224607938401
0,086332619875064
0,0942624342694731
0,0979071931927151
0,0808597319949803
0,0866641410678549
0,0924856694794623
0,084265988053395
0,103192528775497
0,0879610590629556
0,0991559404830127
0,0826841083959296
0,0942961731674883
0,0872090824732327
0,0912657423264704
0,105485500499107
0,0778930585133505
0,0766830280093034
0,0821886474941221
0,0926476352981517
0,0846445332112455
0,0714812401479395
0,0774417557436037
0,0763346460459717
0,0993790565604751
0,102682137340802
0,0863794860781757
0,0798341021972014
0,100486216494094
0,0985299969925498
0,0939213683193803
0,0877335351373389
0,0913034504231435
0,0898800316163839
0,0892146337686163
0,0762769336997569
0,0877011926367327
0,0803983911979446
0,106014138092091
0,0923812463965779
0,106608489414352
0,104787832162427
0,102096019108663
0,0981849455296506
0,0698885951867994
0,0885549960911284
0,0981090351524696
0,110465711273065
0,12711235138087
0,112690135052887
0,106640663525347
0,0855010572744335
0,090693646075351
0,106178017343649
0,0801444441405409
0,112142312833771
0,134063870348595
0,143605619039263
0,10679837294221
0,106315136410132
0,123079416415191
0,125591426958295
0,118359564276523
0,113024472463752
0,137488142256713
0,142668737651277
0,138036263987764
0,117806311823101
0,120265637192667
0,129160815467257
0,143236322947856
0,140279146335369
0,117395184679331
0,110793822483297
0,105880285560927
0,146815808373621
0,116381337094216
0,112346828843236
0,124476401477255
0,131413082499691
0,117135971226185
0,137890724990262
0,156016843300673
0,14203581021628
0,125947055569058
0,134030270870499
0,195779875714336
0,168920077065533
0,145216734062821
0,142515712160961
0,113925052322206
0,0427362015786164
0,105280834897141
0,140828236407851
0,136263666469002
0,133251051065704
0,104935997082923
0,132557453712121
0,0789515498268426
0,0755073942212821
0,0811952675779032
0,0470741394907827
0,122754998234567
0,145473209635672
0,0459423933102412
0,0674553327330038
0,17883966583713
0,0790960652429399
0,122219525891412
0,0919975011088923
0,160744093325687
0,0808618653581358
0,173187532209779
0,14472722878081
0,0788120187074065
0,0153061651504527
-0,00231039763807413
0,222700159844534
0,1508691866313
0,11156590588989
0,0960914942391435
0,274801810327726
0,176434699399375
0,0982462629268756
-0,134763181935098
0,0488905805061269
