3596
4000,36533379555
650,420452594757
1
2
2
0,0796966711426225
0,080943993754268
0,0868749930144717
0,0796348332021136
0,0819882686519714
0,077261722949855
0,0823649025788677
0,0762325725422649
0,0735003890489971
0,082302822232342
0,083077063330785
0,0808782878921215
0,0846789996410428
0,0834606014710506
0,0822925330307067
0,073211063839138
0,0789666159391255
0,0878195035136783
0,0848661649334291
0,0789704098197359
0,078401743212028
0,0758276290291076
0,0725845881477469
0,0804219205707442
0,084981419518878
0,0781328313466219
0,0816198952813868
0,0804317389198216
0,0851063891491922
0,0775477097656747
0,0872541474983501
0,0768717815901041
0,0823675646577031
0,0811018097814197
0,0719943126528252
0,0762276420164948
0,0772396025866573
0,0801375109390424
0,0781069028373091
0,0731551510471855
0,0920811429021756
0,0890940914924312
0,0769428221503227
0,0776438175802852
0,0834263077882547
0,0887200510430308
0,0797204890644299
0,0815378479351055
0,0861831289107811
0,0887927652853861
0,0861016007591894
0,0721031995943643
0,0930417295292986
0,0843815129892359
0,0806107243680066
0,100831910555979
0,0907925759361067
0,0860782307035142
0,0853806611733504
0,081380604993075
0,107315545028183
0,101024873632509
0,0809242204705916
0,075028129442927
0,0808588442561882
0,0795860447220828
0,0774492105559178
0,0788274041450028
0,0664842773900721
0,0765195728423721
0,0843613359076001
0,11379599354331
0,104512043116169
0,0787893620137691
0,0908397793965357
0,0869848327580657
0,073994912584411
0,0706662760619415
0,0641449218967908
0,0918978292588348
0,095443673823174
0,0918711978009351
0,0814676353848909
0,0727966050849384
0,0923902270703876
0,09798852990095
0,0713431795963846
0,0967983138446276
0,109327455020224
0,0894637913193375
0,0697565959473217
0,0755483476322649
0,0719652855649088
0,0705959750255807
0,0755873339355514
0,0721474594468656
0,0725242050802747
0,082281933827691
0,0691994942212475
0,0860995255861107
0,095489853127291
0,113806446915293
0,116393226526005
0,0863968568368572
0,14643695200319
0,10129865788724
0,100190610713896
0,141753549296006
0,102095220507451
0,0868308410321562
0,0751840119349111
0,0723992809291922
0,0788803642524095
0,0822028293931158
0,0709381486087143
0,115876830213406
0,110437175306305
0,0823580057842842
0,0777763615285347
0,0725945606518522
0,0634072248480177
0,11623099480933
0,134520350986102
0,0859058821081415
0,0900262464372387
0,0775960405695185
0,0779622075434824
0,136677926717476
0,117456302271849
0,0832348008446961
0,0798640272989666
0,0741675821508302
0,0688304676374875
0,0804604904507337
0,124750719813711
0,092746590230294
0,0756657536225651
0,0825933482411358
0,120285985879306
0,162280249948159
0,101492138884138
0,077168969181358
0,0684465374474089
0,0897667785312385
0,12508750773766
0,0991843224358138
0,080907027185081
0,104905667079595
0,0827635213543356
0,0777487553285067
0,0719130733970683
0,0725994446848553
0,10656367001958
0,0947660644155397
0,0611585300356165
0,151606709945831
0,159947325568384
0,125506289142273
0,146169693109776
0,0912401815670446
0,0977206187936253
0,0800079579095154
0,0758043411667532
0,0685476945404203
0,0720021622024815
0,0636606836603497
0,0930313576950449
0,115416171500797
0,072555116076677
0,0897382931921361
0,117713300086102
0,092075550635528
0,0760252999104177
0,175495944205802
0,10194457631429
0,0826230861225
0,129691213966921
0,101238477916073
0,0622980328375975
0,0992766989781663
0,113563186739883
0,0812353122339417
0,0819002168661999
0,0706274149409312
0,0793744962779491
0,109160227590718
0,0874311258126383
0,0834667109179329
0,0782661739963986
0,0717527803727392
0,101407188802362
0,157459576910304
0,123595226429696
0,0834265677512365
0,0782816635869294
0,055533422823157
0,126388887122631
0,118646643692572
0,0815731663992989
0,0688178898783361
0,0621798943743041
0,0752829055185857
0,06379503410749
0,0734289346783876
0,0647314790532852
0,0560590801768654
0,131096327312325
0,101162306887398
0,0826102184694731
0,0790461989954054
0,0822259426732937
0,0827374384487728
0,14391850026364
0,121283190251528
0,089755333643434
0,0855535635367067
0,0720476329509253
0,0939463736430181
0,101936520950771
0,073011317199753
0,0726380515013264
0,070689390354942
0,0728932316205855
0,0642039600776322
0,0681327639169319
0,0685484873745421
0,0702064305733152
0,071389271889836
0,0709526629236944
0,0802810782662795
0,0844414907228126
0,0814877677218168
0,0784675629657078
0,0756686450031974
0,0641035716783562
0,0963761055824533
0,110119091387824
0,0758025852879786
0,0823269987302763
0,064651151846358
0,0739927060165258
0,0699388504450295
0,0637443329672505
0,0749479460702911
0,0713136032959115
0,0740027486533461
0,13178981249919
0,0768947104028648
0,0801173062288857
0,0627061657916251
0,118299311932889
0,0914927290948541
0,0814719310046776
0,0690852151027309
0,0797331532131137
0,0588469660292556
0,0842425670868097
0,125916581473955
0,0875380183636258
0,0780044146657851
0,100918511737258
0,0875197903436395
0,0834634307628223
0,0756648230245076
0,0703335577943338
0,185868968060128
0,109500915777284
0,0874076890925579
0,169463630191458
0,105502133036319
0,0959763131589547
0,077824633543821
0,0614992402503616
0,221335961936562
0,148585322846128
0,0878182534827262
0,0926274547708356
0,108376148929535
0,0765703873580109
0,0981251024717792
0,0833796268425607
0,112608846226828
0,113746366825278
0,164685782533344
0,167910220205409
0,0682207261274916
0,135500266464208
0,118335340913787
0,0851433548024003
0,0837902982532617
0,0758689768426524
0,0714674322164046
0,115067365901399
0,100049902170015
0,117242186901095
0,0904994145594921
0,084974849305117
0,126432170280415
0,090208036828792
0,0780121350756163
0,0984060959904246
0,0978744546430323
0,0740627412844039
0,0818224129646329
0,0698483332339305
0,0990727962665067
0,0735561322000356
0,0874827775919884
0,151169698652628
0,112000305762794
0,0896608026669155
0,127401460146242
0,0921367546916496
0,0789037900624755
0,0732374789247171
0,0744311800736717
0,0755642464897998
0,0723383606288116
0,0574265972055624
0,121025094265282
0,0864624932086465
0,0816042645038977
0,0748396583085039
0,0762751221366485
0,0714387225075563
0,0799951692509678
0,0766636486871935
0,0798278714124642
0,0750134792836212
0,0686885896431888
0,106015174527044
0,130754494395774
0,059409536844173
0,152128704763817
0,13486360270177
0,0928427581859666
0,0727397027159056
0,0786465663876074
0,0819014843415687
0,0719353905365899
0,0814395717742896
0,0756908118128459
0,0868253917655377
0,113456313736129
0,0954922219408905
0,09202090014125
0,0936750778763414
0,176135358690086
0,192486142606343
0,109881171430528
0,0996668579152544
0,0694794326620784
0,144256136940874
0,137983287902119
0,129155919057375
0,135562927600319
0,0850064672084154
0,0999533215980571
0,0838919823363232
0,0925438733049172
0,0817236123740886
0,1052051839268
0,0871579161195578
0,102017365345375
0,0916047075416538
0,100494602454912
0,088303569175554
0,108681788657473
0,151909383655958
0,11520996704342
0,100019710745666
0,111001072520116
0,0876920213392014
0,166778366384023
0,147812789411984
0,191500686146937
0,153659585462782
0,172444227537637
0,188209938735945
0,117613831491747
0,119699611368782
0,107380470397752
0,117669994744766
0,119933746484796
0,12032675488218
0,116155541219545
0,109386201594146
0,110959568646278
0,129331754595642
0,115137647303495
0,119202299768467
0,117342118881401
0,157897968545465
0,138199650358772
0,138771471028484
0,131636589619904
0,165911269028626
0,222629769064278
0,210241660037717
0,160349770011771
0,171124164278596
0,142448172160613
0,141409971931137
0,162753719805772
0,133838524193566
0,157654397237294
0,153311682191454
0,206839417340365
0,191482810662677
0,205571510530674
0,188256285479058
0,155526305677525
0,201797886994202
0,177169504634833
0,198434901071823
0,216914480352227
0,179784517944886
0,167898582475675
0,206182280812233
0,206417552651821
0,182486117766568
0,232164431591215
0,175715163223939
0,193083421728899
0,17545847065491
0,203209574426828
0,18338238954749
0,211685428326289
0,208002827078656
0,209050680087709
0,214168458101193
0,205468242080307
0,206795677270845
0,238761180084277
0,209447355978902
0,224202889670638
0,236210079610921
0,209731070872404
0,227321628620578
0,202579197143473
0,256809389788134
0,258426327058498
0,258042991955309
0,273102431654388
0,236394169208482
0,251520244232401
0,242644171052791
0,249272334049431
0,242742646674035
0,257583676557508
0,236711062502269
0,265364855023086
0,25856115263813
0,266304304298362
0,250330397707641
0,278685645936045
0,280175174310484
0,276475907670999
0,278666937829056
0,277109726600324
0,295646499440641
0,298106301962426
0,336454839735165
0,352814803787721
0,346291691234165
0,372503805968706
0,304667761517331
0,327816159896773
0,321413669786338
0,329114398204022
0,317235609017271
0,346194320169823
0,316898253885938
0,344057417462533
0,340465882581788
0,348263336630897
0,318561602287274
0,351282936865914
0,355521700317241
0,373222848978579
0,36807788127147
0,370658297308915
0,362122164587301
0,375642129673569
0,365186690435465
0,413270314207767
0,369099137392067
0,421944343454037
0,411706988037172
0,40785625289137
0,375201918076952
0,39946776698316
0,401854536903699
0,416155407978612
0,39711825572321
0,41915398743529
0,414114502253685
0,448405541530537
0,411913659939594
0,429044065288278
0,429613191715998
0,452079830455543
0,430340544905793
0,456776106017189
0,461748309644484
0,483299025096318
0,459458662977443
0,462362815679625
0,469282419892606
0,488099679787037
0,486327780790477
0,501656428764716
0,47889312117091
0,50702851678626
0,491468948919569
0,507866523077681
0,489087057617328
0,52332537709636
0,483380737325355
0,536331335705672
0,507452141190811
0,529137713174506
0,519271997053106
0,565243542608746
0,546467542358049
0,566467912922752
0,563542102883963
0,586934873193301
0,543555812734255
0,574169213712545
0,554412188923835
0,588793301597571
0,562196171485212
0,62372593584382
0,586365305945073
0,594690638751605
0,571766247867185
0,611605406675147
0,562353231087448
0,661795503322997
0,621688978140577
0,615397957209221
0,610002753045014
0,648286763819742
0,591500611556523
0,636129733457465
0,634150053825147
0,645700469491351
0,626545834850201
0,67147051938652
0,632134633901686
0,685258183061685
0,677192498643443
0,673263731090435
0,639806050940616
0,716515971984445
0,671453767167667
0,667879997576294
0,663764969212119
0,747155043255212
0,7104466104061
0,710217658431145
0,702802331039942
0,719497791491082
0,671453290228231
0,737841147197759
0,691078282993963
0,743034840872462
0,704150971694823
0,765860602750423
0,698225310605344
0,753477402075071
0,779285460027408
0,787284848202057
0,736397285465989
0,78875633727494
0,746991822065542
0,776609860699911
0,737031329150652
0,799743381518204
0,774617855265324
0,805059439121946
0,760624797693885
0,810534771454767
0,802022122014995
0,834761961666294
0,803067706621949
0,845009650883709
0,833008915876619
0,838683555362644
0,795501790646404
0,819164403283313
0,819473716964769
0,846684254570548
0,814070661528903
0,822102698799504
0,841772377902215
0,897137288948545
0,853372708258856
0,86622651926794
0,858639557592639
0,9482217417994
0,839686221811998
0,892855224670803
0,845699525667939
0,919652505911657
0,900160253269469
0,942981257112675
0,877432281013232
0,934719748664574
0,846929249787799
0,955081329505278
0,864431224782331
0,945872108866127
0,947010199032653
0,957480679898053
0,92497896451192
0,959752759144434
0,947221902107775
0,985168053415918
0,930129521069725
0,967788927246309
0,918699117443777
0,955164421435227
0,94796574887928
0,937503842545954
0,897125278075761
0,966036043826649
0,975301895617374
0,989334837092032
0,917041166605909
0,991854957160981
0,949549319197549
1,00626990508232
0,973726487135288
1,02221808923859
0,977855463472992
0,973745447365234
1,01114929554522
0,964778667954726
1,00061750814669
0,979356434562975
0,933605104689588
0,975199469497658
0,984267789537065
1,06231053316165
1,02381691805298
1,03288704217865
0,967038836845483
1,01175196612583
1,0202486518545
1,06467686366184
0,994743949676749
1,04544781919295
1,01903337524863
1,07455535114305
1,10363606578283
1,13982302212374
1,04775111805828
1,10445113913224
1,00323852084121
1,07704441113599
1,01833413311376
1,04187134245058
1,01710563374391
1,08010343998906
1,02684083029944
1,05147416031572
1,05376890148125
1,11492800462782
1,02807584460442
1,01493751650663
1,04112180167293
1,11942883813435
1,02460831132074
1,07611423727396
1,1372113674655
1,11241749839438
1,01629526888416
1,09257296393009
1,10336103339443
1,15266726924618
1,08096398117494
1,12358743330579
1,11305739646316
1,13498290840136
1,1211531606424
1,18688937651702
1,0823198899814
1,14011552965892
1,05570407411065
1,15974254428401
1,0633068393714
1,16378607242289
1,09910658158711
1,16850160718245
1,05642281154586
1,16446665996865
1,09534907437399
1,14550801796105
1,15103227915229
1,06786655038302
1,09116984229913
1,2118410299755
1,06831827388059
1,11719477178123
1,05611540848085
1,06187192337441
1,11945883161387
1,11484356289356
1,09242313769048
1,14194535604
1,07237531411596
1,11042954623105
1,16863840982378
1,18529112197292
1,10439414904975
1,1874999113937
1,10241909474846
1,17133273336726
1,1075918150451
1,11706392055062
1,07963781729855
1,13815120230847
1,06205114431189
1,08906434022332
1,11025934454336
1,13051518380212
1,10170145355643
1,06610013903651
1,10635186863136
1,1611956466042
1,1591360324792
1,12417478652744
1,07599228180202
1,14024676145984
1,07754046952796
1,11954395036502
1,07471646084705
1,1026424363666
1,0416450690251
1,09752222334323
1,05920018211331
1,06576742197258
1,04595868368268
1,11057282776572
1,09739216510238
1,06244144000378
1,05770907230089
1,13613514319212
1,13564403002121
1,10015771094419
1,09838729698969
1,10429985051787
1,07657010985034
1,07590287604063
1,10356218048499
1,1222270349077
1,10063575806028
1,08515445431137
1,07136008316298
1,12046720994872
1,11693549325448
1,10308808658232
1,04369325695652
1,1231066009536
1,06640533498485
1,08073727831887
1,06795295780955
1,05776213715957
1,02664520404288
1,12258744681812
1,07800014676906
1,00643788852162
1,06770515676298
1,11144600689848
1,06273317539753
1,04520093499966
1,06873473305671
1,12284903202017
1,04336488471025
1,00205679548077
0,999109260916163
1,07178745549809
1,03967703387014
1,05446165081952
1,04833886154643
1,05346084970738
1,06178634661606
1,04660554845931
1,05183511588428
1,0767558428023
1,0138028095864
1,02956018729807
1,00306297395785
1,03768630132776
1,02571309227493
1,03239316925345
0,982559375036267
1,06165056266147
1,04277827550302
0,984936704397275
1,00613334315578
1,01050067604795
1,00316050751146
0,991925077743783
1,01082392574912
1,00684257665309
0,962852603342479
0,986260933019805
0,977794318801757
1,00841985133116
0,952848478474056
0,981554754381223
0,957203833924355
0,955968818055609
0,954061816151161
0,965438888116266
0,978719588941676
0,957020237433435
0,932948115278034
0,911767534328926
0,932063123879359
0,978387327280861
0,933157281138471
0,93251838894081
0,959449302022458
0,971476529420782
0,941660416783554
0,919407401523257
0,947809653139506
0,925510046570818
0,91047969980928
0,922496159298385
0,907455609740196
0,917169119462807
0,893542463723349
0,902339033694313
0,897976133018268
0,902677913198701
0,900460709571317
0,885813468123342
0,886092179787415
0,90317763297948
0,876507656002563
0,90288253430896
0,873479400914971
0,876512481016241
0,87624001262886
0,857949692048815
0,852841670882668
0,842228760246896
0,824800002434269
0,868920209259407
0,847771697326504
0,832132733810631
0,855161558090291
0,852047664467899
0,839133993779415
0,842865650875454
0,835035330414714
0,831532407647176
0,829629184650627
0,822068365835588
0,814558215183099
0,818693004587531
0,785134174138516
0,814399636544822
0,796975952484125
0,800766354554494
0,804637171644228
0,787023370816951
0,789363026670782
0,786626498959994
0,763229894934799
0,767490717061002
0,768888489089481
0,756390172630527
0,754072899338094
0,773346299018156
0,756691521675578
0,741674839447817
0,738421431864884
0,734068588614072
0,74337668335463
0,746844462061555
0,730450261168359
0,728954732572507
0,716676582246955
0,709967207016077
0,715369378470611
0,707923144889849
0,713128781163429
0,70978875658658
0,710216427403834
0,699359553720355
0,689853325060434
0,69555395405973
0,69435083939572
0,684085484740153
0,677523721313484
0,668557167133858
0,671848969928165
0,658142235075269
0,648458462001106
0,66499184503989
0,644153833531564
0,631081263469357
0,638977522804886
0,64207947349371
0,648628278106994
0,64665434618578
0,628113526603261
0,633814922378358
0,638431468834457
0,620671210205091
0,606860894803186
0,615343604600818
0,617590628007842
0,625008175271515
0,598725051258346
0,587247459072986
0,603484853771056
0,59177364327575
0,579873120883603
0,589879263517054
0,58536125963782
0,587103067229102
0,574904776781378
0,574041658555831
0,579858446009521
0,560616415200226
0,556127112664242
0,567417916731361
0,562728049157312
0,556960941984031
0,55051696894321
0,549422509151078
0,536989485747565
0,538620385400072
0,543963086138995
0,535671622723287
0,536261146481279
0,530863621658839
0,517251936264634
0,522112136190378
0,520858845921255
0,508744409792615
0,509029866808604
0,502964720236712
0,500104279494795
0,508212146669149
0,506640218222577
0,503068947731402
0,497656923408524
0,483685688814309
0,493658227124979
0,48165809610783
0,489319004538072
0,485078630116192
0,476943205878697
0,479138763437555
0,478469552953646
0,466308814025207
0,470582254199753
0,466409981081133
0,46284665669202
0,458047428398644
0,463574116057284
0,454848202248923
0,449237684226169
0,446566684813236
0,444633921276983
0,434567291909906
0,439880407495102
0,438250274726238
0,432470860352865
0,428883386438907
0,427409712355179
0,42390360716977
0,420370170008201
0,422730708821611
0,424672382212759
0,417203680618489
0,4171863714892
0,416629863898848
0,408169094421657
0,39788065190143
0,401554663086719
0,402498214948297
0,405017831013134
0,40394924716367
0,396845257765631
0,392404573817702
0,391259690823729
0,382610998834536
0,381441515201052
0,37892698446162
0,37067226730607
0,370156479743195
0,378832641313975
0,369287881824312
0,364184708865178
0,371351541898273
0,369477556499478
0,36233218458943
0,358559626492494
0,350594012216208
0,360440751535615
0,348502312386617
0,345709695417926
0,343019781825212
0,354402973354755
0,344703707523529
0,341233013670093
0,343241345479905
0,345789700285617
0,339329845594073
0,346567434762282
0,331890648684345
0,33483499622606
0,331360687010102
0,326830582055519
0,326766362463212
0,331646535827288
0,323160423553094
0,319618893109297
0,321932285880206
0,322588096845387
0,313139303239443
0,315708580184665
0,3071228817897
0,305699949462303
0,311614706416124
0,305308277519539
0,301891876533317
0,308018530295438
0,301900657869625
0,302124101018722
0,296110015760603
0,293702573398714
0,29655075962939
0,297417229236153
0,297992956482679
0,289741641456267
0,282659933578176
0,289434208043404
0,291004168527565
0,288538757847262
0,282609125568703
0,280517690748562
0,280393280693166
0,277528378835381
0,274842452767168
0,275389394092823
0,265769965365065
0,273533069325313
0,275067195895766
0,271352025851209
0,272770201550659
0,271913530985709
0,271521620655266
0,271268487221615
0,260702474871886
0,26422625854401
0,266194168001889
0,271287203281948
0,270212586268377
0,2655799365699
0,263452329405785
0,269998846060581
0,268104423332739
0,263605200327099
0,256803184123298
0,26249630603621
0,260455339369061
0,263472427870239
0,264248264171838
0,263784288325786
0,263552011216925
0,265130341161975
0,261657858829998
0,263347303272386
0,266740416296048
0,270853850777134
0,266072025734225
0,270058433476441
0,26971983440219
0,27106379740316
0,268766408003699
0,277209194322563
0,275247625132368
0,279069325141448
0,278477986642896
0,277470769071191
0,277704423595579
0,287353039095231
0,285110220316644
0,285972570028148
0,285905827819814
0,289488195729612
0,289841511065264
0,296074013782295
0,296569821851397
0,298987851319099
0,295662788799548
0,297642312995164
0,303303396731647
0,305389738085821
0,303291270237717
0,308120284416877
0,311671744978828
0,315740064646524
0,307731813797214
0,322330649782355
0,327429717617111
0,320645253646394
0,326173349711093
0,328525519042318
0,3280009117727
0,332558737957321
0,334457448760554
0,34387453504175
0,347737705624117
0,355157426363965
0,349578748348407
0,359433198396861
0,362625441707926
0,361738673984491
0,360405373648018
0,371718685754368
0,373106332636286
0,380775915579667
0,383216430100322
0,390889767538667
0,390518440851155
0,395469297265548
0,40222911026677
0,412871148888418
0,406239438854669
0,416468098022596
0,423089018011117
0,422011055960353
0,420064968424745
0,433891882385796
0,430668950643657
0,425807637953634
0,419661821009202
0,428958696281663
0,432740945572612
0,44256214063481
0,437471247969318
0,435144618437477
0,432704056777172
0,436411960613052
0,4341385961496
0,438938486503023
0,426647085308125
0,427752018252915
0,42633551292787
0,430079300719634
0,418928560110013
0,419370711107259
0,420100881304027
0,4208920708058
0,412463705163586
0,42368524359563
0,420362706904217
0,424413691006563
0,417436028874074
0,417157409717511
0,409187021868435
0,416350662926725
0,418159554272493
0,420901342753136
0,41224743562394
0,412136983096454
0,4119036378401
0,41393792879945
0,40227825818104
0,414088334740206
0,402577672990876
0,414047418389248
0,412909247623186
0,410892309057407
0,407306151934516
0,413594770783352
0,40272859810802
0,411001530730472
0,406800522237964
0,412928310363176
0,401257061015524
0,408853640549222
0,405537951580432
0,411543068341439
0,40652119477806
0,406634944519332
0,404182159566092
0,398744073432129
0,394031930962764
0,397247901419922
0,394770260177754
0,389089542305329
0,390402478401404
0,392385992660247
0,383367977960508
0,382298274576782
0,377512482394819
0,374256976573527
0,366824350200042
0,373095242143889
0,369409949130618
0,364059245151623
0,358617480339662
0,361361574673265
0,352337583321453
0,350952612601063
0,344247914936684
0,346599594574808
0,332509462045498
0,338858929557416
0,330223635449009
0,332746958383141
0,328962414646358
0,331540736266503
0,325660403165176
0,31931822690473
0,310827109523708
0,320042192441838
0,311844194596447
0,310779907817793
0,30329830966244
0,306890293468465
0,296572120473285
0,296053333274745
0,292896770560563
0,298145234926967
0,288331275212147
0,286201066151357
0,287500621664274
0,287968735958146
0,280014237343891
0,284092768967685
0,276193653021017
0,277062977807961
0,271905830048149
0,273914972260973
0,272198352231566
0,269416621686262
0,261953093496186
0,269705565211211
0,259671597598995
0,26501417017548
0,2596833511753
0,262326580682213
0,255717303585751
0,257184907586538
0,247759108299908
0,255804386027559
0,250436514000966
0,249116208857739
0,243993912634568
0,243962628053862
0,247829265496464
0,246851706900023
0,241263639311555
0,244823871824114
0,238208382310437
0,240503082519391
0,237594770944963
0,237428950547131
0,229855481442903
0,233793564486281
0,231988574589936
0,229754779657213
0,232067026088904
0,235428246610529
0,2232526493743
0,227825355725607
0,223735863242409
0,227483297490303
0,218605939981436
0,224726183843319
0,219543453246326
0,219637695612931
0,219063796084042
0,220944061040223
0,216708553032027
0,216492609776222
0,21261870686825
0,214611383830627
0,212328601421061
0,211582607510856
0,211520843853587
0,210064349714306
0,205176802938259
0,211617728233261
0,204254192154135
0,208854979062043
0,205409645189177
0,20559556425573
0,203923379732704
0,205447717762391
0,199857417320841
0,206366551318388
0,208090255622587
0,205193830540718
0,202160199427321
0,204111856226065
0,196753983377442
0,200517724968979
0,195657256149505
0,197326756760211
0,196673876570435
0,1983959542206
0,192173212519306
0,196457910030458
0,195870546253597
0,197272419258994
0,195491106699256
0,200184793532667
0,195283753465988
0,19669144222299
0,190218018113642
0,195178991501706
0,190270249249451
0,192278268928642
0,192117132620191
0,191246288502596
0,191086559680185
0,195508622203332
0,187379546681059
0,188527476282701
0,189625593568048
0,190953176366756
0,184687312356513
0,187494202174105
0,181823061663159
0,184909534566585
0,183048726010926
0,186041691894832
0,183577302364397
0,182522296226818
0,182105891429228
0,184859795494412
0,178589432564315
0,180420849567633
0,181881443412094
0,17879400467124
0,17665923053801
0,181808293531819
0,176264944192827
0,183067496186269
0,178272369607091
0,174430863471754
0,175002004143285
0,180417244596863
0,17599358049938
0,178397434410852
0,177268664801682
0,178628837880495
0,174171255341478
0,177658443844234
0,169290653363688
0,179046115394211
0,176026655936207
0,174854068224928
0,172612627360277
0,174269587527516
0,172238370211211
0,176403116425459
0,174369604307665
0,176160673316885
0,167712390505384
0,17254162591241
0,167989935205031
0,176441659628011
0,170577220445399
0,171911305603174
0,169335129392836
0,174790404405504
0,172021745677241
0,169085239897359
0,169486909124784
0,167878498884212
0,163503127520132
0,167568180685482
0,167151745150758
0,171833687237668
0,166063137058615
0,168287501228041
0,165338064406274
0,165627024072374
0,163352034050456
0,164433126472963
0,160781332694697
0,164439008854476
0,160597409024344
0,164096599789287
0,159519829502904
0,159875894878009
0,156134070378375
0,163155818338051
0,157685266594004
0,160848714843537
0,156402420837154
0,159001429696151
0,156391985954561
0,157319316399922
0,155684485551758
0,158290328568026
0,154449280891987
0,155501839262783
0,152887133196338
0,155025869337924
0,14920593910126
0,152163800317181
0,151750751341545
0,154402523932156
0,148802264270554
0,149538798135235
0,147013641217208
0,146804485098387
0,146335500296666
0,14854031763035
0,146908070367977
0,151994159690341
0,146838652544995
0,151304158859528
0,147691973760114
0,147642574587055
0,145910384946007
0,146053332931726
0,144258204288379
0,144705460215415
0,144054234175828
0,147419858698542
0,143450370151958
0,146848089829358
0,141804136286893
0,144069778935345
0,140966419385148
0,14089479925907
0,139807735712727
0,139978362768741
0,133396498491253
0,13797371662157
0,13558542361398
0,135076911119743
0,135817959324755
0,140382291610635
0,134075013019006
0,134710099912076
0,1351175287107
0,133695879509739
0,130865303237814
0,134382458553066
0,130044816060557
0,134116073752171
0,131232499090975
0,128445899392361
0,128732713085637
0,13032959379313
0,125662787234578
0,126236479453488
0,121155813966206
0,126345526703151
0,124267060336752
0,126389459415835
0,120300335136143
0,123699406790729
0,119386480219239
0,123777868651852
0,117907236966559
0,121691276673829
0,122359574424515
0,118636577447656
0,121692642353583
0,121401893030609
0,119767504966545
0,123467226517203
0,115634652517492
0,11595072673155
0,111767883346118
0,114261419981505
0,116118158840628
0,116929615518711
0,113098124169319
0,115532668518177
0,11017102744738
0,116104121393354
0,110980151198758
0,11187460392915
0,108760335016001
0,116193208715822
0,111579773596958
0,114479552963449
0,109987703576631
0,114804221341149
0,108455908153723
0,111906583926478
0,11125315635815
0,110180635783721
0,106756350225485
0,109743495577662
0,108882035071181
0,106567947089211
0,105416367381989
0,107879710535737
0,103154890461587
0,109603287548678
0,108061298891553
0,107744293708451
0,106968156683341
0,108353062901668
0,101891339830952
0,105593576074158
0,105250831541648
0,106100583126608
0,103146230429115
0,108812174838178
0,103389947992581
0,10292528245689
0,100613820930428
0,101961304209066
0,100434141475607
0,103222735029008
0,0971067029957629
0,0965290595321936
0,0969768392871905
0,100609260258201
0,0977305250102817
0,0985306901518564
0,0994359587917522
0,102880818663054
0,0981112954880206
0,102237981365098
0,101103133355413
0,0986592427340837
0,0958946322300007
0,0981644423483658
0,0999627078567547
0,0999655439583776
0,0985304104843744
0,0956481370640253
0,0946410492995314
0,0990111226608393
0,0957139979586436
0,0970234170587634
0,0955094112303772
0,0978059309598208
0,0954917704225566
0,100747266249928
0,0979788363887803
0,0961665842341184
0,0950991856846837
0,0969078457144308
0,0963659392215711
0,0967240684949143
0,0945687107030683
0,0969191519770422
0,0953649108676171
0,0960873845019377
0,0975219028926367
0,0976214444061811
0,0936813263357975
0,0945035844132561
0,0938094109795115
0,0945160383019236
0,0915215006182109
0,0943635450944151
0,0901346421548326
0,0925063239668574
0,0919775518457328
0,0918762815445359
0,0918499885472023
0,0911143626041182
0,0905307658976212
0,0907987681477409
0,0905811933628855
0,0906503533158673
0,0846907196127272
0,0881292198490233
0,0903179380254739
0,0895007332449443
0,0889539150373348
0,0918768997269537
0,0903449566822087
0,0908360546432812
0,0862867499803482
0,08946434551152
0,0872151384171828
0,0888739965020429
0,0848723062955999
0,0860409941791289
0,0828087437186026
0,0831698049778385
0,0824021032722759
0,0842549224703394
0,084172104285415
0,0863199407676846
0,0840014460769932
0,0871066063225131
0,0885945155969712
0,0856693751844815
0,0852739780228666
0,0848963907579289
0,0865558340473859
0,0818093848925574
0,0842125338998689
0,0859416777013434
0,0814506760503295
0,0838998702971858
0,0845451860972438
0,0863225843714553
0,084318072033945
0,0833492167665877
0,0788476905048402
0,0819253388723633
0,0835224168112916
0,0812567800946851
0,0861453533853749
0,0852579698674143
0,0818375228825481
0,0823863438478561
0,0820846573732666
0,0818967570690573
0,0823163179766533
0,0826890707819292
0,0811023947848045
0,0811498013670968
0,080173021837655
0,0790988843116154
0,0790728399132319
0,0799127227699069
0,0801312958346675
0,0797442993530111
0,0809843194593744
0,0798548024290709
0,0777729485112562
0,0767493482093685
0,0760188740954958
0,0768393384073582
0,0765300368940982
0,0782124619289823
0,074545374188404
0,0766814016145062
0,0767289931121944
0,0735195131438057
0,0753807326605071
0,0748213819328438
0,0745193512410502
0,0733581652316219
0,0746678006901906
0,0731437083639744
0,0716099159710068
0,0718117553161763
0,0731307719870202
0,0714423572436243
0,0736360442392773
0,0692908276447173
0,0720306254609853
0,0726078879864482
0,07213932013529
0,0726114738598655
0,0695173752768687
0,0702806655318374
0,0677393930900532
0,0706925303113945
0,0716678715693738
0,0697316711082589
0,0705571524040292
0,0704344893648212
0,068723054694021
0,0706764795625708
0,0660054994048644
0,0697608468194695
0,0682279178870507
0,0693706991628306
0,0684649822653131
0,0687967641391244
0,0661679352250417
0,0665939579973496
0,0652786748703114
0,066042886024394
0,0669680516456684
0,0679238573934795
0,0668837630327255
0,0656689024221219
0,063690500331808
0,063451366107531
0,0663855588915084
0,0651002643243303
0,0664599221773412
0,0651222452901595
0,0653854950410288
0,0653719400921461
0,0603953162976656
0,0622670789341783
0,0623328660634382
0,0605774134833863
0,0613189893678454
0,0604029442777913
0,0586810304736948
0,0590309299930161
0,0600557716327634
0,0595684114290429
0,0586153015534262
0,0608543134972012
0,063348733512305
0,0583340008342214
0,0585465766949743
0,0618943369515816
0,0594026805225403
0,055826311219644
0,056276055510677
0,0556566913373132
0,0606700655115028
0,0561284894547813
0,0555432034523389
0,0561939719570477
0,0559651414860121
0,0566628790149567
0,0597403518845083
0,0558585501611085
0,0570005657873316
0,0574943902322358
0,0577825676222406
0,0575396028616838
0,0536288304008109
0,0564144956137606
0,0594532194404803
0,0543336324727628
0,0593054249097314
0,0579999709447102
0,0572133733136909
0,058587454404661
0,0607447387158233
0,0581866489122499
0,0599015805414296
0,0585950942769997
0,0630934181177793
0,0614589657718609
0,0628667326083796
0,06204073202695
0,0668831748512735
0,0632565115806763
0,0611888654085166
0,0556923835702837
0,0555919661061168
0,0510490775862537
0,0587443112555224
0,0582186693665995
0,0611696099186419
0,0465042379112702
0,0491861797005474
0,0548592679221538
0,0618850598514781
0,0456773983989161
0,0570183374838455
0,0495951729969238
0,0548260282858052
0,0556759249921098
0,057589249460879
0,0457887642435004
0,0543639957208606
0,050894443701175
0,0598683368885508
0,0468288136400675
0,0644492860474566
0,0511696824818395
0,0606527031802441
0,0462444885528667
0,0625698814174716
0,0425763155992752
0,0607688692989763
0,0417780286166673
0,0597488262878653
0,0389984869873005
0,0603485476750239
0,0354056430709412
0,069558984727673
0,0381531072876395
0,0716305536505738
0,034945501287226
0,0687556279686313
0,026987499616658
0,0605562402521189
0,0271955440105141
0,0720572444553786
0,0317155661987954
0,0818095789083905
0,0277928194252839
0,0720039061761532
0,0254876605434164
0,0830597152453756
0,033141193056543
0,0754724041588834
0,028492111310239
0,0777521482212124
0,043225275659915
0,0691910533857838
0,0438657433358576
0,0584970931020145
0,0655773382512025
0,0429721102850467
0,0645984612227149
0,0398067092869223
0,0783477790468453
0,0307318076555925
0,0851623944973598
0,0311202839007664
0,0780435210122579
0,0373736129013376
0,0653749358053382
0,0434902371395
0,0611418964783959
0,0512508534676638
0,0523358933574605
0,0516728952243287
0,0513668258537791
0,0515232762329426
0,0534530352687796
0,0489794028429482
0,0545024384150592
0,0439657507393671
0,0562225500062167
0,0414382216425008
0,0533585780288116
0,0439163442556535
0,0513355873361562
0,0408094374944641
0,0491416784113653
0,0429174716716828
0,0494744687555815
0,0446181805363528
0,0511804610240447
0,045163195931777
0,050041697962168
0,0431004813652988
0,0482309104041819
0,0445922166264031
0,0488826569517485
0,0430537757595713
0,0503385271870399
0,0467749846956531
0,0495671273754175
0,0435520753730826
0,0506360062202825
0,0426341708480268
0,0480299640101085
0,0457398161023762
0,0503070063835856
0,0431303960026763
0,0503825704402348
0,0439333320148493
0,0474417605887847
0,0442021607156292
0,0483593382219293
0,0429676892911526
0,0519457130543609
0,0447504490351058
0,0475850606114568
0,0432027396073333
0,0479771313247595
0,0443554600683192
0,0486340845664793
0,0432674766319303
0,0489550912216835
0,0454890375534292
0,0492280842439195
0,0460230908920138
0,0493260612218414
0,0449596727489845
0,0500472400163383
0,0436252964371242
0,0492955788906484
0,0442041900375495
0,047723444012018
0,0456049958112599
0,050135968657682
0,042039467926771
0,0488606245661191
0,0462349050415258
0,0476544824140923
0,0422309433807883
0,0484417641649382
0,0450758984933641
0,0449440887861581
0,0433058157604225
0,0452689864512319
0,0443980018978099
0,0463756821980416
0,0424416662943248
0,04789829533948
0,0433552959892426
0,0476217157455531
0,0441225416313465
0,0455394793837654
0,0430448156751015
0,0462558104352199
0,0436082406008003
0,0465640649967015
0,0422616359951005
0,0497352046649837
0,046113722176084
0,0455589376761094
0,0458076446592547
0,048385847054819
0,0448828680536952
0,0478402983004404
0,044230179954914
0,047338473677274
0,0439369517770766
0,0478045105294528
0,0457151910702118
0,0468171688264052
0,0438877915764673
0,0487016760547985
0,0450554204040056
0,049484995977018
0,0449026333476158
0,0477041747305707
0,0474023042440413
0,0474782017463001
0,0473316300381615
0,0497834163608148
0,0437393186832404
0,0509299441295674
0,0476591033210826
0,0486318076502765
0,0472777623604172
0,0488102391249281
0,0465777896565666
0,0496190340415653
0,046140168513767
0,0487461638052636
0,0465024661324671
0,0488877821196694
0,0450680940978353
0,0496050273209412
0,0482171896529913
0,0496230071348502
0,0474342523724732
0,0491480467977588
0,0457999665098154
0,0515553621796237
0,0481883449615179
0,0490239313496699
0,0443743053992755
0,0485436075028018
0,0454470074715519
0,0488284882448392
0,0457081771425614
0,0491282676608493
0,048743266755769
0,049326646807896
0,0468096849078402
0,0504641992750657
0,0481940108738282
0,0503410156746084
0,0479523284978005
0,0477311783852452
0,0472998928559498
0,050355158448852
0,047147691661705
0,0492938666335497
0,048931369880088
0,0499167737259588
0,0473793199408519
0,0514380798378738
0,0477515440239408
0,0499443738351821
0,0479525533796866
0,0509288183255785
0,0507036133158653
0,0527646161293746
0,049709491488265
0,0510859140204755
0,0483053265054794
0,0519114448888993
0,0502270988387734
0,053438411087153
0,0480922723462188
0,0523215075625809
0,0513603018209073
0,0498626137613577
0,0477144133745533
0,0512250295180387
0,0495883620426265
0,0513022878503882
0,0512881745601791
0,0488504752733224
0,0489965579041677
0,0512736053309105
0,0497918792707684
0,0536916354268908
0,0493436611014531
0,0498905835499114
0,0510428915703858
0,0509509327557758
0,0468563764568463
0,048694395625871
0,0473871832943434
0,0493103347638653
0,0500681358551519
0,0484997143748266
0,0456965757430506
0,0480864667700232
0,0468977395732847
0,0517292812707326
0,0485255116662364
0,0489505853856495
0,0481576475552478
0,0476947340311605
0,0483026498097269
0,0476910137681656
0,0456313755388729
0,0477550711546132
0,0492577389505244
0,0473196649258981
0,0464517203256951
0,0504103829289032
0,0483277818541045
0,048909298369155
0,0471731043233479
0,0486041688017555
0,0475149684950836
0,0483303619919608
0,0460369826343501
0,0490789834984482
0,0456199040870808
0,0478206033544683
0,0466395427995575
0,0464907645244928
0,0483664070778951
0,0470813790318933
0,046037924448848
0,0500509594147641
0,0465339728306579
0,0479949944644682
0,0461224007553607
0,0476287058176941
0,0462492193056126
0,0477835599102336
0,0461448282758166
0,0491593155393821
0,0473278547113272
0,0469824096984869
0,0471498060494513
0,0508738592315545
0,0452330223705693
0,0472672858678057
0,0485852948174664
0,0480858874088901
0,0463940363050517
0,0457227605268907
0,0447521064958844
0,0457342025011328
0,0463214795023731
0,0470941496011056
0,0472704920491883
0,0481460954924736
0,0448942484166925
0,0454018835138932
0,0463144819453948
0,0460478171984812
0,0438369422920663
0,045399159328828
0,0442867473826525
0,0460181487224654
0,0430501588210177
0,0452425015074637
0,0456330194253288
0,045450387670973
0,0453340810417493
0,0497184928862494
0,0489701778096637
0,0460518938904222
0,0432510923993906
0,045414496974954
0,046487343491087
0,0472248140137868
0,0466058144825765
0,0459967972309705
0,0460122978595331
0,0462292746294979
0,045896787677344
0,0455570262342535
0,0434864850341436
0,045050792443371
0,0447225487434085
0,0448812592727143
0,0466276754370912
0,0456762601537692
0,0428122371409483
0,045778391765556
0,0451817916944657
0,0434991979868966
0,0462433010554808
0,0468024037890774
0,0459163763139843
0,0505886316646218
0,0451025640793935
0,0437536605940403
0,0445177178681619
0,0448942667966648
0,0435849461646111
0,045890975798281
0,0427235607677811
0,0450114056688428
0,0444858142033292
0,0420748926866608
0,0421030285846935
0,0434904341975582
0,0408646660294467
0,041671857423626
0,0425635620632441
0,0445162420411452
0,0421856791261793
0,0440896109805982
0,0431049171688372
0,04140160374489
0,039186943831489
0,0419842083531359
0,040479233337146
0,0432875649129133
0,0428615694532255
0,0486163107239554
0,0436245687855346
0,041491305617848
0,0408227326070061
0,0404474786628032
0,0410373863512847
0,0378155344585989
0,0392263002334657
0,0408092352111873
0,0395340723357576
0,0403415844961334
0,0380272919804675
0,0364647272815212
0,0362757384311879
0,039660440196625
0,0376761479474607
0,0356655870443223
0,0366298712105337
0,0402662225088731
0,0387733817810321
0,0377314325560609
0,036991657999964
0,0380707910512566
0,0364537938103495
0,0378091971130886
0,0371274537731365
0,0499137371089962
0,0580233172846985
0,0398635442867384
0,0378748430187525
0,042671119390227
0,042075560541306
0,0372777020534139
0,0368161931096715
0,0378888044992757
0,0373724810539291
0,0366856186098097
0,03769766362812
0,0374867910737517
0,0375827119053964
0,0395009173448518
0,0374145849899678
0,0358068807493377
0,0375972649543696
0,0390564357683467
0,0380164882025979
0,0355869377778223
0,0372746440437766
0,036225416799028
0,034088373275949
0,0371481714431542
0,0370261286264123
0,038786392347237
0,0490710919649906
0,0450358271997989
0,0396640967910597
0,0424737055772967
0,0371367371576662
0,0344708721728294
0,0402929111127295
0,0389452086037472
0,0358349301138707
0,0358548666885518
0,0361142195060507
0,0351608617811057
0,034931318704494
0,039603383759825
0,0359612740223534
0,03436559550093
0,0362388949085896
0,0366986503359955
0,0344433376866898
0,03439131173973
0,0342438036324238
0,0352434042209384
0,0368426575469409
0,0376493772668812
0,0390235956844125
0,035762337420909
0,0464624634233057
0,0615912223171339
0,0403394936854907
0,0355061346295298
0,0348119559991108
0,037653891237027
0,0370706287082899
0,0347927300706034
0,0361110293781824
0,0366572371971718
0,0340224839086909
0,0371965116426786
0,0359270195186865
0,035366872170201
0,0356326243865169
0,0378764102320187
0,0350353330927856
0,0350987056749419
0,0370129984670459
0,0370130397293863
0,0345389130399546
0,0428970013532393
0,0572150608630208
0,0472426272101056
0,0397098702806213
0,0376541010162593
0,0372999716562244
0,062526836681113
0,0489991978976385
0,0369815249063464
0,0385771688485927
0,0354786188525624
0,0357682523338877
0,0359062135749775
0,0351558522531209
0,0376988236325431
0,0478107755212584
0,040112962379866
0,039538513324182
0,0360916016511639
0,0335897760571788
0,0349597401956665
0,0352054687346303
0,0342264797015002
0,0352479893668342
0,0359911839954946
0,0353439507824213
0,0349407238991176
0,0338879137525987
0,0328624956373377
0,030971681976848
0,0427911064209801
0,0448486835529578
0,0340186028569462
0,0351025450226368
0,035475570783089
0,0316047052139832
0,0482528679845349
0,0557775609349184
0,0358407179976343
0,0324672186170221
0,0345807878112004
0,0378855454425296
0,0385718060623108
0,0344140890986403
0,0322165541110679
0,0336838701597294
0,0325514480284625
0,032756427072476
0,0357066033287415
0,0335312365054751
0,0320610441926799
0,0334951890689631
0,0344494447328115
0,0337783174091776
0,0325192693171367
0,034774708170835
0,0360944016576506
0,0404790108686158
0,0651057372868815
0,0684590867148989
0,0577604697302674
0,0518435060246468
0,0430258910302847
0,0379900626112975
0,0350985500113844
0,0351438343707299
0,037686942449519
0,0377210402280618
0,0352137538817712
0,0336356212391127
0,0377426358355436
0,0335011699307799
0,0321301543415235
0,0350552001977203
0,0348989122176298
0,0316085759418637
0,0328161715772805
0,0326555240318988
0,0352057131630351
0,0332945920464872
0,0330347844684815
0,0469312037868883
0,0491444513068695
0,0361615282590541
0,0410394561532363
0,0719374152676792
0,0665574437065785
0,0470456360148751
0,0418090534681105
0,0387690658726462
0,0356406812927876
0,0345258272693702
0,0363667129034754
0,042670482499829
0,0349368448301582
0,0333611821464196
0,0355760325011137
0,0387047274908495
0,0343406654998616
0,0340434641394902
0,059602318997521
0,0792051381642594
0,0547534486901408
0,039859760802551
0,0294688328691
0,0567471740108493
0,0701313169060833
0,0431915650760046
0,0385856722330383
0,0388421790632204
0,0349536404733595
0,0362427372296174
0,0345323365686141
0,039045221152163
0,0440135160767015
0,0379685855148405
0,0359720722204686
0,0350836864358967
0,0371185150755978
0,0404385370704469
0,0419931969380087
0,0519009940014004
0,0526121607726633
0,039305751478668
0,0427973813846607
0,0428855122851011
0,034379503938565
0,0378808143397048
0,0367057548291346
0,0368635242015728
0,0548284669878335
0,0563965613912747
0,0488459523303068
0,0606975122996822
0,0535649066007308
0,0394316285471868
0,0464420967132828
0,0544495569009019
0,0495795654830734
0,0365393824503085
0,0640397629247557
0,0721235929870527
0,0784792133825173
0,057688150363124
0,0462194371961389
0,0373698748683495
0,0438521247643239
0,0330085596730909
0,0437381116379717
0,0581004162911135
0,0465603851050947
0,0385763223970601
0,0379342889943801
0,0540293057181798
0,0557253626789409
0,0491230605936483
0,0438216212810227
0,0364123299239645
0,0407227428556247
0,06469125235537
0,0423493792303339
0,0507975324240687
0,0814824169937468
0,0876664402780952
0,0805393653688566
0,0460781584283538
0,0529706013422069
0,0751695075644992
0,0563401067575037
0,0424541614310824
0,0426726187876246
0,0472935600000882
0,0369137866131829
0,0596416374867883
0,0892409598060465
0,0571804327480975
0,0464881188912963
0,0439821987348524
0,0522154370845675
0,076305572890264
0,0588240563846162
0,0415397752645944
0,0455765256502173
0,0428872062659859
0,0512836268960044
0,102551302775753
0,073122780769593
0,0813824354727887
0,0817062112093313
0,0838020609796097
0,0628892865332564
0,065328335655229
0,0507555142184975
0,0793292405261262
0,0785803434235204
0,0580417932084106
0,0390770687090718
0,0858900255694807
0,0732977489344439
0,0640584790703246
0,0552901407161292
0,0566155623574189
0,0531705401931425
0,115622691915358
0,137680039576122
0,102526176476518
0,0576613570573051
0,0721639353896113
0,0881240619662466
0,0666523788454691
0,0527569918689456
0,0524503898525515
0,0517851223674024
0,0483800479705
0,0550488449957833
0,0688760030318603
0,0572619540800405
0,0635615396985043
0,051707493537473
0,0665214933945958
0,0976037994077592
0,155970678319618
0,098870690493906
0,0976661852384831
0,10241753151304
0,10404590865563
0,0809581417419919
0,0673926935294884
0,0666605144877281
0,0745490812998261
0,0743735449614341
0,0656546874595601
0,0724936462604278
0,103582900026001
0,0834950608150438
0,115622859686068
0,0947294287324785
0,0921788919183628
0,0749965701444682
0,135880326379101
0,22073806258694
0,135198377352468
0,105163040124952
0,0985593571727057
0,141007867628549
0,15403735483403
0,115791410507715
0,0887187534329729
0,0932066906184078
0,0900453930944356
0,108686612461187
0,111616834615538
0,116281186508182
0,125724405048491
0,109336523700238
0,112993115726012
0,155272385021417
0,231804036917718
0,220699464662724
0,139943787601553
0,130925811892831
0,151194379330097
0,148376685264762
0,127532707457387
0,132441927342745
0,118274370907077
0,1873787209273
0,179371169288632
0,166408379456388
0,133499460728199
0,16996443228821
0,163882567510096
0,168905500487568
0,219302073413393
0,195384528925567
0,178119142950654
0,153952192011318
0,172963339866064
0,158039134117439
0,181250023631926
0,199309799486756
0,197677088633292
0,183009058105948
0,178714302893921
0,179301511695668
0,175299686921632
0,193342969039223
0,18662890901576
0,20276490797514
0,244839705218348
0,286448986446821
0,413113239184327
0,226841255358833
0,213776189225782
0,186993977385172
0,225300099964674
0,245229386246691
0,253201685823982
0,277569258536565
0,232481522423962
0,21054132661344
0,192380924580917
0,200343803759365
0,199211441455137
0,209429162279535
0,196994585329842
0,204381062219358
0,240281255793839
0,206558632843826
0,304470545039288
0,26744461607148
0,228424849900945
0,187661430841194
0,207704696372604
0,19039799516144
0,201976707726769
0,179135738992912
0,226019248099485
0,204474840140273
0,203352269879506
0,183276317367671
0,196157872264113
0,227069917188953
0,220391532253535
0,195915712544718
0,185136345978302
0,176934036219625
0,187723505240898
0,172420286965474
0,230616049766524
0,226289329787683
0,20462011673477
0,171730511640895
0,176701356523609
0,167897795511485
0,172884213509545
0,167772743418528
0,194249914434951
0,175346217140131
0,181447218919667
0,172957831565051
0,175678323120531
0,162520530047341
0,175187321616833
0,171001482537802
0,169688879459317
0,169580385850802
0,16729976085945
0,168098576073326
0,165194866839926
0,161584954760643
0,171640330583975
0,166195069487309
0,17591839804481
0,168086084862088
0,164836156465073
0,16442869824587
0,165066543638909
0,166894023362525
0,1674059769519
0,160940726368933
0,161889335864317
0,16000832005197
0,160239484540724
0,164638382170701
0,15859746126848
0,160458957835674
0,15680213477604
0,161269251764664
0,155624139698636
0,163309120749323
0,15898312307209
0,169191863740519
0,238933385470829
0,17863180312728
0,172115708436431
0,144063532465003
0,166524086144072
0,137435780463101
0,164792651310518
0,204981748230516
0,183116404823185
0,155395705859177
0,146128685051158
0,137915621476407
0,175081836425001
0,14463405691086
0,151957126083248
0,134208473125414
0,143736754465217
0,221726138508219
0,224448589861225
0,330661505977356
0,239510441716901
0,179119656404426
0,127480084840429
0,192992323758616
0,164149228060696
0,148360948938555
0,123287020550604
0,132889783408728
0,194246489358029
0,144190282839317
0,139753287080401
0,120371146354528
0,129352185503194
0,176881556188866
0,171538959999085
0,158746967549149
0,197914396288671
0,173692444566669
0,183346130585885
0,208710092129095
0,245787931214679
0,168523188486047
0,127390414538109
0,132880889770942
0,117896488947728
0,160806923425762
0,181199895709503
0,146668594533481
0,153839712240764
0,109746016049897
0,127742090770938
0,119636089190146
0,172692969562813
0,123203729288611
0,173866555579192
0,155293429923855
0,133641036328886
0,146789015532812
0,164538668138664
0,215408937100983
0,195687651101166
0,140885960203755
0,116145079457348
0,203603428854541
0,169889958369388
0,159559329721257
0,144328566152951
0,106262363392573
0,144383023427469
0,139783856258437
0,129045965353519
0,159259079857044
0,154728142501755
0,202780743423833
0,215285500036689
0,255406602425442
0,204861016024737
0,138985374394297
0,121891571260875
0,117334042841657
0,134523486919857
0,121002509190473
0,116409727958615
0,18175107798852
0,12123228585314
0,160824788077831
0,172647362770313
0,146379216649518
0,127701293634952
0,126833886156658
0,125709261872637
0,148494558663001
0,180923136443599
0,216019335284685
0,158218785238524
0,185559426447418
0,166323660368917
0,166845985433471
0,142326018977205
0,157982465355442
0,146985142484624
0,167083480598746
0,176742751496606
0,174242267829646
0,170534891493465
0,177182753324986
0,16636121633275
0,247673938921559
0,203193737618335
0,213185776462051
0,242478742168707
0,254229798321267
0,294103694525677
0,229321305817487
0,232534419972805
0,217906170677055
0,23304723238492
0,236487529888239
0,229004215505295
0,28480110630846
0,276785421371671
0,257961177636291
0,252091730304929
0,256278907364777
0,259506511414344
0,272820874959517
0,324110367918545
0,305413240160227
0,416447075413046
0,316513854193142
0,339634739705567
0,275716083593318
0,284513739507037
0,297508115068073
0,296258744672443
0,287304621121318
0,274974123405636
0,30254612821912
0,330826577569932
0,295485977886352
0,301302347936113
0,290493330991584
0,299622425143931
0,293005021568826
0,298101208540738
0,298062621840218
0,304812126705695
0,313927589266849
0,298121486217493
0,33589404843493
0,415020631374366
0,336215748247449
0,330972619926521
0,317851309220685
0,340585695104034
0,316483526089386
0,338257595362354
0,359910034496511
0,346498989429007
0,341743476489243
0,336782425193463
0,343434005750627
0,333001192923653
0,368690744212373
0,377243475762051
0,345932869719413
0,364464649257368
0,329134545956743
0,454352883637801
0,390741039815367
0,41121823819694
0,37739132524855
0,380736309454997
0,357214877886602
0,37191368579172
0,356526307391974
0,37243595930878
0,367183331357535
0,371496739895978
0,372820780926951
0,36287179922529
0,369722702075923
0,359584620660506
0,37341142688144
0,404379723676871
0,364316675630619
0,36104053430035
0,356753984334759
0,361704295211358
0,357381192654821
0,407391356879445
0,372922995510764
0,37764115192162
0,351456980081515
0,384710574582197
0,396234766915142
0,376128770854408
0,344354846231599
0,357909117284532
0,342760717968731
0,365785235645588
0,338102153829257
0,386759689104278
0,384370772520515
0,378999355159434
0,354403794062622
0,36728464481894
0,355369033833427
0,365325849809426
0,362933695037861
0,370830464239917
0,369917697788265
0,381813139286495
0,387011238025672
0,377602753658032
0,380660179178856
0,397127303404205
0,417839704175652
0,405780988605098
0,377068852225631
0,398388615087137
0,380181286959235
0,39748665706037
0,394971606923787
0,398706007399035
0,376323919379657
0,398714381604318
0,36654237892281
0,403605903644522
0,421277759657023
0,395272561076556
0,403495511028852
0,370775475160059
0,373947284581114
0,370013510252661
0,369135564659877
0,36174078748831
0,366129766791007
0,36830551589594
0,359374696035913
0,357094279232407
0,354342464065363
0,351884532878087
0,350416124278039
0,355403804189056
0,349026096759388
0,356660039830592
0,346635799283794
0,350245262966496
0,342819203627965
0,347677084657249
0,343644461106429
0,348516490543659
0,369350062221085
0,37517298431944
0,38205200665419
0,347151009974872
0,360985714068644
0,34857484980206
0,344421819553688
0,342471078480193
0,340115746188475
0,341490210740511
0,340650040996064
0,336732418174564
0,332823835793045
0,334417622516818
0,334229595447459
0,336784303384948
0,328253505771444
0,329799941890418
0,327585895697997
0,323928341789687
0,320263332328689
0,327080709156987
0,318806042059099
0,331564905327567
0,314849170610524
0,326397884729814
0,316234342983427
0,318705116656636
0,3115946132151
0,313661485703622
0,313802429048973
0,312004322947886
0,309934029430594
0,309081504267301
0,308207742857416
0,310483936003734
0,301059043698759
0,303388545391349
0,303701494394774
0,306740318827443
0,301980226332777
0,302070882263797
0,297614765275097
0,295836904778822
0,292252925144961
0,293911337912238
0,286158131998526
0,289393216768164
0,282453997795612
0,281955075949401
0,277277401064888
0,278053821142433
0,269431788574584
0,270374127887601
0,26739553576078
0,267700411131876
0,268435198513345
0,269218815562178
0,261609779676044
0,262312202601134
0,259495702485338
0,259629473144599
0,254829564956388
0,25847588787384
0,255787063738443
0,257717032606335
0,254982927270567
0,259819256880409
0,255147276283333
0,260137881715814
0,25438580927018
0,261605819659271
0,259313711765092
0,262694528139563
0,260212784806695
0,264368131026128
0,259889202214084
0,265477001431739
0,265392038082351
0,264900786920337
0,264529021149027
0,267069137412866
0,267879299135882
0,266684153628736
0,267505143192101
0,269077490653225
0,273748335788768
0,27264474448769
0,26963908859127
0,270170020239978
0,270507750747087
0,274010309090932
0,268456496555412
0,273081696074891
0,271239294946535
0,271838418670971
0,265642198271964
0,270351422635445
0,264885348311993
0,269091124601656
0,265536107661629
0,270731030867749
0,266354634652524
0,267668428059699
0,267078514966681
0,268477480493002
0,264347003745372
0,264913848789824
0,263903274861304
0,261670621371729
0,260036089728005
0,260908845397634
0,259951873687794
0,261321028797955
0,25921951434152
0,259011380841814
0,254854265002114
0,255345405680898
0,254117757268973
0,254263183098537
0,249584837827339
0,250053026021261
0,2454191646487
0,245336505030966
0,243554370160799
0,245928188113796
0,239666404474836
0,240965357067884
0,235244224497396
0,235765276693537
0,232930660165037
0,232620967590568
0,230160466078348
0,22952666324882
0,227541981452654
0,226692033510642
0,22307842797268
0,223907035742347
0,224494819157375
0,224878198253003
0,222945293919159
0,223855555127807
0,220868619564469
0,221452485726887
0,222389275917527
0,22548358359313
0,224687450479242
0,223990950715881
0,222503241919615
0,225516494410247
0,223930513928866
0,223676821643297
0,219105076251016
0,218532259646927
0,215912023851008
0,214714539808173
0,211284630882127
0,208374440574678
0,204556339727725
0,204938025381064
0,199914371485013
0,196933112670048
0,193458609268388
0,193210805001237
0,18991576456332
0,186952984262588
0,184656632364003
0,186529729287797
0,189350175629219
0,189238564472045
0,191706423617209
0,19563839491791
0,199004089843989
0,205443421066687
0,211371592579261
0,221158510734954
0,2265875240669
0,235250619539122
0,244742746466223
0,256698695032305
0,265534462745445
0,279667203172539
0,29240471379711
0,306580261527294
0,321004607905881
0,337915557039918
0,351229768750422
0,37206576416048
0,387069670780454
0,40876854746626
0,429490206211469
0,450085932426618
0,469006219074323
0,494360970837197
0,512710888277938
0,528822353259924
0,550134068410471
0,567450189850832
0,581183955531696
0,604019827520521
0,611536647027261
0,632559865680941
0,639237317125857
0,655454571134989
0,657988516810384
0,658518610969732
0,664029231310557
0,658758874001096
0,656687465793323
0,659927214656919
0,649055523931611
0,652829062502964
0,639048118226157
0,635575988213218
0,623363852928796
0,619131968184006
0,607622187058372
0,607387814989897
0,596466520589819
0,599339545903302
0,588899065257723
0,58074838875483
0,581797813128596
0,584364317677788
0,58343681362338
0,588836262702132
0,587867124537335
0,593273778648638
0,593245137308411
0,602666988090587
0,607360829701526
0,612325295565249
0,621257214918087
0,629253612152553
0,63598305797363
0,651555357558746
0,651964884388182
0,654806983096998
0,655980088753293
0,6670313371355
0,672651043021794
0,680335343011998
0,683508992834113
0,684667408428018
0,689950789054758
0,690720957857566
0,695652671432086
0,703770540981037
0,695048275906456
0,710368991272794
0,699014466515179
0,7030517579336
0,707892227730309
0,713635093647383
0,721802919253752
0,727619664010039
0,735608585378126
0,738987033880561
0,743819627063333
0,749846333298363
0,759856780315848
0,757143599696424
0,762264164647217
0,765188943295472
0,775608849168176
0,779785623989612
0,788454323378879
0,806771039314605
0,81882783944447
0,832026940726958
0,843637095628878
0,858228556469005
0,876601572507981
0,895105601978676
0,918952253632101
0,946317523117515
0,958920487395199
0,991766522992736
1,01014022984735
1,02960989537162
1,07087457498556
1,08742910725402
1,0975397377474
1,0984263101254
1,13512510181011
1,12800326418164
1,12726481582311
1,11956206921218
1,12442016435535
1,12454690185904
1,0955517733596
1,08801843535001
1,0965692844166
1,0811776772035
1,08677318704487
1,08279925070545
1,07889732628207
1,07976743055349
1,08027394482046
1,07860398596782
1,09621228435735
1,09461305526422
1,10791518535663
1,12446108122365
1,13780799411029
1,15436895188501
1,1563813687412
1,16010964229762
1,2037957157439
1,21158794802582
1,22180514107313
1,24310788741919
1,25592142619637
1,28444091780078
1,28465721115347
1,30609394530349
1,29926800128789
1,33152888467545
1,36070899401054
1,34922579327126
1,36082768397633
1,40230019233551
1,42097783331323
1,46339469993707
1,46603022440476
1,47799259861911
1,48465104168663
1,51828844672143
1,56800263877968
1,53663563262967
1,59625583211796
1,60965264204185
1,62794121292042
1,58083623398438
1,64219157388922
1,62021914485878
1,68860149288145
1,58428085174512
1,64938419849321
1,69378880560543
1,68168688734907
1,71592928845889
1,69341137000735
1,70329392940745
1,69642644074654
1,60319367545296
1,64759282154143
1,63348032702279
1,65214817477037
1,6507911293168
1,63191157166878
1,51731893872249
1,55232156272027
1,44870316170181
1,46293546856739
1,41352299886588
1,39553624914335
1,31348426796121
1,33083099853803
1,29247990616911
1,2796348419329
1,25358317172875
1,21724877110746
1,20217650530317
1,22046264655163
1,17855941980508
1,16254039401573
1,13778521627844
1,12766925521776
1,11008526820497
1,09227830065001
1,06017421181974
1,04003513420671
0,987855498836423
0,985871240272479
0,971750556666218
0,924726665830007
0,883654747732332
0,854423177098261
0,817622129657317
0,782969003103027
0,746539653218243
0,693988019814962
0,654456770649853
0,624727023794874
0,592788921545433
0,555842301266489
0,517752515213189
0,491125492748318
0,458804711071257
0,432702638603046
0,40587934135532
0,380844491598011
0,358112715434429
0,334617764012378
0,318272829531696
0,300058938661717
0,28782667873499
0,27572402350428
0,261767239727725
0,248817771073357
0,242572713055315
0,232171724408543
0,223295643488464
0,214867686026757
0,208856134725219
0,205633608948248
0,200559753822421
0,197604583469524
0,193318469138458
0,190526348587743
0,189074315857711
0,184138130938466
0,183961514895854
0,18696580890355
0,187291733210663
0,186654393593638
0,189874509120861
0,190125888372793
0,192059863003019
0,193829484625283
0,198221106742445
0,199563971177711
0,205341641878523
0,2140097418272
0,213322534288776
0,217410072971617
0,22303470193369
0,228010177724335
0,233301538862951
0,235189406315576
0,240516528965798
0,243433773485498
0,247513586232323
0,243612049420764
0,247659223296565
0,247451171667583
0,24557998477508
0,250026339814878
0,247608949485114
0,254496256199985
0,25453838682895
0,251746825459069
0,251755942070045
0,251354820716968
0,251829488223773
0,250098648704364
0,246767704463834
0,257943385537333
0,251644996988329
0,246779591986014
0,251396934281534
0,244660069460194
0,244947129445032
0,248887069596379
0,239394399680704
0,246451801637568
0,238484082438494
0,243138197439594
0,236162893526803
0,233188902826503
0,230625436212039
0,225219245447794
0,228546674111802
0,227708348734716
0,230732560154045
0,230083544406597
0,221846880733898
0,224892246977977
0,231891950199566
0,236738768047631
0,237138438980358
0,234980299751201
0,242576821853076
0,247766986164493
0,247970697655889
0,257213546790484
0,257210895224044
0,25899772658692
0,256104169348208
0,254342419121657
0,251754187846744
0,249584182299689
0,251149237737034
0,249928111112014
0,23614459625849
0,236445561507296
0,226765039360504
0,226802944357092
0,223087260356028
0,218221167082504
0,20567738382142
0,212150829334938
0,211197546805471
0,212625479864194
0,209558323248891
0,220652506395223
0,218137126211732
0,220735483397699
0,222961403836798
0,218106571077334
0,218326267922123
0,217753649615944
0,21786997799177
0,229132622746481
0,225703195584137
0,230181864636548
0,225477877178639
0,226441058036947
0,22702094287515
0,226454367261952
0,227053088097554
0,234013537685274
0,224080451330467
0,235016546223726
0,234392060786752
0,234504511494671
0,239620468182252
0,238698327303627
0,238137426755586
0,238489438195047
0,247479572864249
0,235626644638009
0,223262975784342
0,238685967144665
0,235235928233633
0,231740057518184
0,231201380922803
0,236823940998624
0,229956986709035
0,235091703726575
0,227878077042174
0,221041339966752
0,221687839694158
0,217646021972223
0,214517452064046
0,215008707570516
0,217061704499079
0,21764465807985
0,209404069771065
0,208358187116794
0,194168358869333
0,203276935765307
0,195350368724016
0,196994015293973
0,187150584652783
0,200042724309142
0,187249409844489
0,18590736490093
0,187874283280272
0,178996527218586
0,188589289494812
0,190182458496934
0,172160959716503
0,193350297325565
0,177108193026427
0,181820502997151
0,173916975877224
0,192962554649978
0,181343934595817
0,187103317893431
0,190575307393386
0,190312531732878
0,186600075313615
0,190823465781001
0,189297765047139
0,195571564528143
0,189164024590508
0,189030831770452
0,189916320165087
0,214047172780478
0,200592010453343
0,195737385964617
0,201473479862779
0,196936410925081
0,213449520587614
0,218273265277251
0,210817654178533
0,222242511990447
0,226640208168842
0,228507020752738
0,24023680775617
0,233538536502216
0,245083645413506
0,269279930574333
0,254155023436207
0,275213899714468
0,274753923525481
0,282435743327898
0,29154129204685
0,297302164052356
0,297786777042421
0,318465987308928
0,310944828977655
0,312193628352878
0,30939600940983
0,328015737564635
0,325712508032141
0,33784504470149
0,313958680895673
0,340193123909141
0,314071514884308
0,311747960445446
0,328017263676463
0,312756862711398
0,32097303910718
0,346567860763687
0,320134949471559
0,326503855883615
0,330000628794306
0,350364342877316
0,341096026960635
0,363148753852311
0,339504862206828
0,343630580318981
0,361479687294233
0,363583582600878
0,352301733283453
0,36917726133216
0,341135260048568
0,334567253373248
0,34663480643899
0,37154505355491
0,346983237344225
0,346149641087282
0,334964649020577
0,353502559707255
0,311019146574588
0,322470449646585
0,316665385257509
0,322425845175029
0,333001470285014
0,322166735703995
0,300959385612819
0,293705781088295
0,301047503957872
0,289829876878901
0,272812797240193
0,298758625062736
0,306022968032883
0,324934418881681
0,309486727091704
0,327196385806027
0,298946186155647
0,308731786790209
0,287312891028656
0,317679185292074
0,312711917155766
0,321427073619452
0,287988742831969
0,306663507558828
0,299092592620132
0,322864386419523
0,308084242891634
0,334910179816708
0,326718345468331
0,320394502852315
0,308081275017828
0,336167406060034
0,310125633609248
0,312836193271916
0,333251889232077
0,341319700529958
0,359078321577188
0,384397513162751
0,347504210657616
0,363959758784591
0,348298284973059
0,325039229977388
0,366555382413924
0,391718348779941
0,383725640486009
0,42390837424156
0,462023056765934
0,415702340528931
0,374980020493306
0,439816753481972
0,408818633320199
0,429040942433136
0,443627479950859
0,44157344468302
0,46243006082384
0,436413246704978
0,416466072169337
0,440658125936176
0,406583974647103
0,403055557038496
0,426114610233171
0,410726980754522
0,429014770265211
0,477824335126509
0,42314581812921
0,380093133798243
0,394278712653345
0,413852813381299
0,400714989417977
0,406212990058793
0,461534861122198
0,45552463241242
0,398389697958909
0,440386968542527
0,358330477656633
0,436349809760103
0,46752606044215
0,460156342310378
0,413798453970473
0,451762873006841
0,420417965083582
0,469299520420792
0,416839358817348
0,454582983732365
0,360140665712592
0,385494482938224
0,427237847958419
0,34522682168007
0,377091475719913
0,441820751191363
0,394487646628056
0,525111848079785
0,36176047071539
0,357188312403858
0,390027035798388
0,476036317145321
0,390404441844458
0,435119758277738
0,513980915440111
0,613464313198442
0,447058570810977
0,443214935725578
0,487860583564844
0,641434655323191
0,352044331830209
0,316110661034528
0,557645528985855
0,581145090581
0,628543481200204
0,383972593397958
0,419874730248494
0,516674006682664
0,398702410081563
0,155687266760171
0,3004264702578
