3596
4000,36533379555
650,420452594757
1
2
2
0,0852987266939245
0,083069247229127
0,0926495334862457
0,0878164395432307
0,0974456455806568
0,0904800340188627
0,092814508600208
0,084523354583521
0,0877537098716613
0,0906206786317219
0,096423984200463
0,0885417808110999
0,0859456571325097
0,0868356099782492
0,0892292190414633
0,087198636596447
0,0915942895382088
0,0882959489991381
0,0886430086845024
0,0852994809051308
0,0903856206418298
0,0846006262955421
0,0751158618829952
0,0872098567160318
0,0922633676979822
0,0857194519341424
0,0898663639432998
0,085362061386901
0,0931927908301652
0,0782241650478727
0,0865016178875437
0,082244873097042
0,0951649454096036
0,0905204805298118
0,0813532794106033
0,0822043586978743
0,087521083198259
0,0856870180513503
0,0908267958161074
0,0871281180030101
0,0908077468446847
0,0949767682110978
0,0886378240445336
0,0897947944700162
0,0914238469355733
0,0959256404207872
0,0784556905495334
0,0888599723240221
0,0908878623361017
0,0900985496090626
0,0942319186492335
0,0850243788455202
0,110304683134922
0,0987674083418553
0,092920427904153
0,106597879843271
0,0976336310246545
0,0917082852156379
0,0921731057575932
0,0928674638676197
0,113388284893691
0,106821131332399
0,0894855616060776
0,078675851881784
0,0858123821336762
0,0902919585892257
0,0834664142976578
0,0801117005597442
0,0835704360114784
0,0834634067672518
0,0952545375984644
0,117149509716058
0,114447151150128
0,0905375247257735
0,105198223829348
0,0941419234195744
0,0896626029689269
0,0852390105343624
0,0676832913044624
0,102175692608169
0,110358105845928
0,0922637547153031
0,0882777327102283
0,0752747034659788
0,098597869260867
0,102774756862917
0,0858737945186509
0,102670696640415
0,124659119206257
0,0909729690345996
0,0745869193440497
0,0812569252818117
0,084197250061662
0,0788635507634411
0,0877641243435708
0,088150288086182
0,077169861614301
0,0815685249957046
0,0773427485175873
0,0905271653883429
0,100390050076491
0,128677746513222
0,129879839079263
0,103120034003122
0,150985588589707
0,112522663980372
0,102843049526533
0,143608179660197
0,107151889723028
0,0926633036967981
0,0851384572201414
0,0801113180020336
0,0892387919118233
0,0857579617407436
0,0842045378888436
0,131606372857615
0,117350168350646
0,0872093062404427
0,087083562643305
0,0770885399062136
0,0745914658647839
0,139500873883788
0,131961464542255
0,0984337287230854
0,105002239920989
0,0821984384076432
0,096280316786138
0,138528085077196
0,116646294478601
0,092486054748941
0,0833027457371933
0,0871723300755357
0,0752521436772465
0,0943711062351783
0,133653177902252
0,0939358263718664
0,0782433536676737
0,085563911334818
0,118319084969719
0,144428250925163
0,102330269575085
0,0860644648959067
0,0802441476478748
0,106380619004268
0,133921216922234
0,106315349188336
0,0898889023892377
0,110589560780591
0,0886781071214612
0,0835572470733627
0,0784341374542206
0,0794685494180904
0,104063783755123
0,0970529633895174
0,0865916543510748
0,181556478345655
0,147266477766132
0,144412293124387
0,143449430755573
0,0935204771588195
0,0965183091410416
0,089928808508333
0,0762879632057711
0,0704552169667302
0,0795941008560418
0,0746856503645701
0,108659900294593
0,115632541646726
0,0884366486301993
0,104297657855931
0,125431923932977
0,105456584120319
0,0982286398347912
0,182156377216052
0,10549619599869
0,105808516281867
0,132923403556608
0,110640323710227
0,0723701477810779
0,107302263788255
0,116144436015402
0,0869914924588147
0,0855521335659345
0,0797248445735149
0,0925648573302726
0,107969995251869
0,0956079446810912
0,0899505914019902
0,0846209090192424
0,0868602823901763
0,117276739454236
0,166423025661295
0,124866580890505
0,0970537193657075
0,0820966367779366
0,079313393289983
0,132399105784453
0,116465734019547
0,0861313846221408
0,0723881974747518
0,066716616408824
0,0782570305929678
0,0670859321296523
0,0838946631339541
0,0685145444629315
0,0738629220800862
0,138430896836784
0,100639618431468
0,0880369198314622
0,0815033147809968
0,0945591220658636
0,0955170935273087
0,139412664901305
0,122278658038287
0,093720773701573
0,0898302325686722
0,0862853162063319
0,108755899180499
0,104996097356209
0,0826279541662661
0,0789061924506014
0,0767782406894751
0,0790600605190897
0,0735910799189228
0,0763043909982874
0,0780872580615669
0,0715400269882606
0,0798025981586208
0,0823937665200973
0,0856019020410622
0,0897559861343146
0,0910364794104166
0,0863110844010439
0,0810017092847922
0,0805026905732466
0,104288668985421
0,11277939112188
0,0874855708073017
0,0903748805520227
0,0804307772435767
0,0736097258192042
0,0714757207105548
0,0756374600777346
0,0818468900477754
0,0781600529664091
0,0988481761947815
0,121049526783966
0,0875598399639188
0,0843939584251603
0,0718406729405517
0,12240133765875
0,0958061104123292
0,0829212312319003
0,0738430696800578
0,0828345782066398
0,0736804033275154
0,0937609795791958
0,126859000234359
0,0914870136446729
0,086224837121889
0,10749917045131
0,0895905044873829
0,0845112054883401
0,0909435713870582
0,100444774601418
0,179018222615241
0,107624027123619
0,110290906717873
0,177987610617831
0,106454473189551
0,105478862735313
0,0857955529514178
0,082108517545784
0,214445379252793
0,144071840438049
0,0919601250211317
0,102662690434759
0,110965278387709
0,0933679350031975
0,102243038333769
0,0882623506508647
0,126717748521963
0,132149186618083
0,1717198317603
0,166456571074552
0,0783427665478009
0,137782340499581
0,122372584763929
0,0925173097003887
0,0869123898491226
0,0857955013021317
0,0876254407969203
0,122215743587154
0,111128876911824
0,116134380548405
0,0971224413209656
0,0955862332130089
0,14319019724415
0,100275976002081
0,0845387965644381
0,102869943463233
0,105476650495592
0,0879007016294422
0,0907596156800374
0,0765056076024475
0,109221557307125
0,0791620695833283
0,103977920614541
0,154083736402086
0,116244918169377
0,104284856553233
0,124677966134127
0,0959132902909696
0,0848454183270339
0,0794083578889694
0,0833406676623951
0,0847388529027706
0,0797862708418645
0,0770599231980738
0,129489989829461
0,0891809985289545
0,0921284337880829
0,0797786917664632
0,0879000837989737
0,0837430508799653
0,0835629901336592
0,0874698800280762
0,086859588637074
0,085945872021045
0,0899473670147711
0,128524932697914
0,137550204774871
0,0788623458141963
0,157891041716458
0,129568552361315
0,095518435160319
0,08841224811863
0,0907625972790655
0,0908021774419532
0,0915125452657871
0,0901937401015405
0,0952140989887557
0,100708312445282
0,124240240304494
0,106091427225005
0,11563335208143
0,125383726001422
0,190981651683229
0,200627825557866
0,127003790710808
0,114790212335505
0,0919289534609696
0,159360015875422
0,146264764407871
0,15185611479174
0,138157275268406
0,104709658966186
0,112042582819758
0,0934506326209853
0,107010776515263
0,0990513512390488
0,115888558088073
0,105505200368945
0,122995456053358
0,109965792890533
0,113851907037387
0,103285237563243
0,137410140013391
0,165262812330733
0,133263648847942
0,119929779928815
0,134288254851831
0,117764562777445
0,188065211591804
0,159373015707471
0,23184685808545
0,170585845760692
0,204822981533456
0,196915486741881
0,146901165431147
0,144107131993692
0,134664493473244
0,148286019365035
0,140940112636585
0,145204340386184
0,144967013405613
0,137035775807808
0,146268314304328
0,157067259642707
0,145025841208371
0,151079183918811
0,149492531208294
0,187302234122066
0,160928076535023
0,164279031050913
0,160261300484712
0,204826779808134
0,256672768981829
0,223854129844645
0,183600820336854
0,191305329553542
0,170459125650211
0,168411802978337
0,189125446160578
0,175299303840519
0,201587226122462
0,195182269772562
0,231127427508125
0,218905190804874
0,239156528786055
0,221139537166283
0,192404523159434
0,233622325565749
0,22280819992507
0,233836807679769
0,243649698610275
0,223894727449069
0,21559350332967
0,249285373851072
0,251403359249278
0,23918079374298
0,254140925308774
0,217832907193991
0,229727886208431
0,216889908470598
0,244990737466486
0,219268300728855
0,264063111121291
0,240705326781764
0,254910846595344
0,257023283974518
0,246704055807461
0,237193136447141
0,292102962856082
0,25383865181794
0,268765325747388
0,276409094180625
0,258407106529084
0,279011615059143
0,269061033369392
0,323985802759043
0,305650216596066
0,319484146718728
0,338306100752063
0,287233700588373
0,308772089625875
0,292964024240673
0,303396606147478
0,295793643165938
0,319817128014387
0,305753046965403
0,317073465383073
0,312306079527381
0,331214234128336
0,318136822584609
0,332578968533454
0,325828949370755
0,343192540434948
0,328373375368802
0,337260399676826
0,334032361435917
0,356588350731442
0,397408685782471
0,428114651476544
0,410295167754631
0,414180774020134
0,362557202333686
0,389340941026118
0,378101288457225
0,396243697049085
0,38719409350929
0,398322126661553
0,397796236615061
0,407255231443391
0,401356509257502
0,413425574182677
0,405990519395552
0,425543563310674
0,436733095304376
0,462205641972607
0,427597131299103
0,440175621390481
0,429153510462151
0,444789398103073
0,448728505659157
0,485829986883452
0,457139566361603
0,498682763636616
0,454694396343711
0,48127631728933
0,455115284482325
0,486346054081175
0,474825156354461
0,493763272974438
0,467003104541203
0,497918523877169
0,494595559970658
0,517799321509515
0,505293369376853
0,528304249490727
0,521116446680771
0,54825786716751
0,530971701239566
0,547474181463807
0,532141530444535
0,563324076055137
0,557757621423157
0,571102749363879
0,546350963294078
0,584966863897282
0,551124623424387
0,619807517413314
0,57055926621277
0,608242316496199
0,579625208652877
0,583093046471667
0,602769420104807
0,59231516674883
0,574573505177247
0,564166471269599
0,610914887427515
0,634762045826603
0,627033171181161
0,615772871802483
0,623933919851193
0,624865863812583
0,65163171167223
0,677488064954473
0,619851943685902
0,64637777026604
0,665089154406232
0,693649571334588
0,670282364006289
0,704858046647953
0,654535658254791
0,70397338668441
0,654984039146858
0,716576986708692
0,684616170288674
0,783117737224632
0,686016491824334
0,746905844922272
0,716293726003606
0,757510755743265
0,725398727890013
0,788956402672859
0,740104726776008
0,74111588515666
0,758264354310003
0,745256033727397
0,743146619926869
0,765876423234903
0,742978350267647
0,788363333581601
0,779645524729705
0,810974405488723
0,757473914885332
0,771987537976436
0,771847933718324
0,848543095582415
0,796975098005766
0,861692185184984
0,769047108256079
0,815960963888667
0,768043248229379
0,869633796233281
0,79333643054138
0,829502374751721
0,819944474098869
0,909403145055679
0,869283865431989
0,869335311053213
0,873598008982101
0,921356616777364
0,856952948135621
0,881328695369873
0,872850812869381
0,91229935852762
0,909658953136988
0,911925493403084
0,905588356139025
0,924740758040373
0,846381055369418
0,906490220931374
0,904177173946203
0,963541070916874
0,9435516156598
0,959778177678868
0,912505478888732
0,998569760493348
0,930594574896929
0,953799265592746
0,86652944472566
1,00283792100682
0,90868372902418
1,03810518392839
0,946481409030721
0,97819523416772
1,00193689743942
0,987748548429665
0,983583699731602
1,02326680766965
0,924682504704947
1,05242868702767
0,989198500028842
1,12182695141082
1,00417167371084
1,05342732492096
1,00965022250011
1,06394820127486
1,00695357460226
1,05684661987545
1,00308338002611
1,03585659879075
1,01567832127093
1,12457590966742
1,05898765231728
1,15581073307925
1,03305349125629
1,07599269680806
1,0798073475268
1,14423986447452
1,0690810739878
1,14518646586638
1,05055597769653
1,08265586115509
1,07955725082421
1,12356175303939
1,09791946728454
1,17462853290933
1,08839360502737
1,16887491423524
1,03853104420761
1,19408706801737
1,19857253515668
1,12454040036137
1,19535661821114
1,14905778646324
1,04446309986654
1,1281498181113
1,03405943542671
1,12146032214473
1,10416627740354
1,15187978862849
1,17967652615457
1,25808953868892
1,20791336761449
1,24916770958023
1,1474283576482
1,2702486434785
1,16549501250528
1,1918586555364
1,11885646632931
1,28248735000217
1,1559904124463
1,32599141094167
1,21560055262834
1,3420033693495
1,18123209041168
1,46139679813675
1,17918009624271
1,20774738766304
1,25194092650344
1,27601988503041
1,179486614719
1,28453452489459
1,21387199822194
1,23349897225041
1,20777020602721
1,26380646778269
1,25684790846792
1,33731309902866
1,13619860745574
1,29696277445655
1,19568252671432
1,25537626364312
1,22304493413453
1,25783811787127
1,21538266276546
1,29878519146585
1,2960095064865
1,45953635624781
1,23941255370579
1,23008083972583
1,32179655199678
1,4178543638902
1,1979604076381
1,3264151355892
1,27988344889498
1,28380405356362
1,33439749448951
1,40083900248455
1,23831850607026
1,3998742229882
1,24522243359663
1,24238395214102
1,28758747787859
1,26951288738937
1,22484539845693
1,40320346785589
1,1908947534583
1,31037788434377
1,2350813771516
1,24886764949852
1,23391423607785
1,36797910325165
1,37018357525067
1,34630689400409
1,22347880914566
1,28525696670121
1,26290989752388
1,3450835004855
1,27061150027835
1,3274277963639
1,35017431100053
1,33306935510429
1,29153047673133
1,37007798339345
1,32223413447332
1,32640928158598
1,28344207582609
1,35948429663379
1,26374486522799
1,28080482540113
1,26498878405881
1,41242893318387
1,28957560217057
1,27274641150427
1,30781095965941
1,33283851869222
1,28604707610711
1,428002854682
1,31553034425165
1,34768656631003
1,29728266851702
1,31953161742428
1,32972653470038
1,30427722232946
1,30526055122979
1,29828972364672
1,19981017051996
1,34111459709824
1,28435235966754
1,29474358454823
1,21920841583566
1,30708990346401
1,24728885930377
1,38980398581281
1,27603997786251
1,35278091515931
1,26231432188133
1,24095703623584
1,2256178873919
1,29223422051268
1,29863089227537
1,2873969485224
1,20879636572308
1,24903311545241
1,28711659763467
1,29340794957922
1,28952768332565
1,26712202670738
1,27854939487702
1,35995257648457
1,28679243992163
1,24117842748202
1,25343931328003
1,29213706728376
1,25668087677061
1,32204789520403
1,22521184117572
1,26069710538515
1,26164665557787
1,31037479817773
1,28241081433418
1,32710368476683
1,1966423478572
1,23235637340171
1,231408320063
1,23496363516486
1,2514516908483
1,21481714894349
1,25612615738861
1,24580181579566
1,23358573916371
1,27629701849137
1,19880672821428
1,23142318588961
1,22605975892249
1,25552421192302
1,20332293594717
1,20352847788247
1,16058273895938
1,29926910680516
1,25268988446088
1,23840858178526
1,18577550179142
1,23597474681074
1,16977741035827
1,20304878040592
1,19612048109252
1,23340358992285
1,1719631318154
1,20685590174279
1,18937840687436
1,19740071905733
1,14552532631167
1,21625545657003
1,17352008273863
1,18803427308746
1,18311277797096
1,21573726497484
1,1972556329941
1,19679715114476
1,18219170436751
1,14600641236091
1,0987512905019
1,14613690697498
1,12006313902243
1,15713390492309
1,14831247641255
1,13578257117921
1,1227206971137
1,16566659887769
1,15688569082311
1,17923200731694
1,12268648305181
1,15342779076021
1,19984787002417
1,1445469295622
1,03284671327062
1,06844400985696
1,11628230915017
1,14883699853629
1,09919348831692
1,10732036557095
1,07495171484202
1,10578885854315
1,06691691651478
1,13038782022605
1,06232815712608
1,05721309150168
1,07936394849636
1,06078411034136
1,07517053313604
1,07816822417416
1,04311885124266
1,07783752194418
1,02655425434161
1,00552268999477
1,04691010068143
1,0417951488103
1,01659167275685
1,02651563408591
1,02585170194436
1,05621599703892
1,06635303663572
1,01514099101027
0,977353894477736
1,04319670063192
1,01452539241832
0,99575157089474
0,989508161929407
0,980297483401588
0,977962122918659
0,990141511352362
0,925045649842654
0,955050769048816
0,983853101815097
0,999799404717227
0,961235698687396
0,946678364163494
0,95102321995379
0,960055527364391
0,93387865085688
0,918109095147865
0,91228851096208
0,95425073213918
0,934065364702617
0,908654979211399
0,902987404575424
0,923607708661818
0,900782075890751
0,906683699600903
0,908921763611716
0,897493494834988
0,887997792037369
0,888028997511395
0,88302811352607
0,875232085443056
0,875813151251405
0,876019021329905
0,859858222243039
0,863487558820425
0,858721865719323
0,864855603323245
0,862182343275198
0,844099528556906
0,824148307455879
0,842112221720305
0,831362872829653
0,824506965495541
0,825833154064732
0,818680656588385
0,807226502230817
0,82931669171892
0,796613906970373
0,808251757772436
0,789690822228784
0,78301012075508
0,786505906423602
0,786778963500724
0,775515307325343
0,785415631061909
0,780031276105388
0,781889481320275
0,768265736285949
0,767390036820989
0,753892866984203
0,763508523647824
0,746654183091481
0,723870483059199
0,725338512145345
0,724492761641723
0,718622060136492
0,734739954134553
0,744303379124641
0,730112410089731
0,714126380946992
0,718499169191998
0,70902344062693
0,68489337467626
0,686604345678447
0,685941117947645
0,684306130707361
0,682506423059613
0,680745083030401
0,680355170969606
0,678035441722673
0,670743900946921
0,651413039661847
0,662444538593084
0,673442141933564
0,650493419769861
0,652385419671525
0,663546172909774
0,647750154561605
0,636046801646148
0,638922521290268
0,645913721771866
0,63101740427912
0,622565777109544
0,639624751060228
0,622203475257791
0,616144287157265
0,61179725164557
0,62248076871428
0,608076092360467
0,595856774099589
0,607735314853378
0,605928108488964
0,58541910664394
0,587075393214076
0,593926227212491
0,587123945899953
0,579658556850059
0,57836840527536
0,567557704954152
0,57292069743347
0,577757863386138
0,566369670365055
0,556861125247218
0,565605034628723
0,561254961471593
0,555202752647721
0,559804208085155
0,549988543023857
0,539640746727055
0,543217820149951
0,536071588118531
0,530722191424958
0,531976562320462
0,53541936417675
0,544203937197664
0,5299926709682
0,519589785844524
0,51579060355069
0,51393915666427
0,516125820457139
0,516109661308144
0,507833570924165
0,507874874572831
0,507482113832642
0,498037275127078
0,495459155887259
0,496170824016255
0,487375909123418
0,482732097394643
0,477055109823122
0,474111766133657
0,481570156836915
0,481632017643248
0,474449593620077
0,472759031570844
0,475435130528689
0,468228149477604
0,471372286188759
0,467231423645883
0,463954952090744
0,451692527516255
0,460368232073303
0,455857485739288
0,456256340677568
0,446020097298483
0,449152668141688
0,446606797876536
0,450518143684151
0,444658363344086
0,441558044020577
0,436323776167385
0,433809721327173
0,430599500138969
0,435082957012309
0,418811023969038
0,425825188211601
0,426862337000201
0,41213472832454
0,41388422395973
0,425395045365806
0,42122071579543
0,415358561524615
0,410317420352569
0,402908921757052
0,405487116795233
0,406830462628861
0,401966840641006
0,399203000006595
0,399267754978892
0,400610362764228
0,396020228126908
0,395237184904465
0,388428117157837
0,385621206565904
0,384465865424942
0,386038545855852
0,374544529095351
0,379947059123755
0,383466595381283
0,376048623052134
0,378603749605208
0,372251013309606
0,36911911088994
0,371215648247406
0,369710880771849
0,378233434517006
0,370695975410187
0,366623142064781
0,36893023538679
0,363326887951442
0,357933843526188
0,362195395517757
0,360081253638015
0,35838791996162
0,352548882177813
0,355821948989299
0,356535468698505
0,362791321310319
0,356481465167907
0,35101675567666
0,35062876998298
0,360124708145181
0,354615595109784
0,345634864208369
0,349525870828959
0,355705746781651
0,346490887387139
0,350970218112377
0,35004453764162
0,347690612092886
0,345706016250618
0,353133776604928
0,35243141320431
0,352741044293705
0,35117386424986
0,358016680115749
0,355156326521093
0,356205528418289
0,356871114857216
0,358640075090928
0,355323293970469
0,364987374186538
0,363794375451672
0,362452337853537
0,367628394328421
0,365407162824703
0,36377720261545
0,375047401029762
0,372784775049123
0,374472166298409
0,374329248230039
0,382012470015535
0,378895973570972
0,385584044126528
0,387916022087742
0,383187797096159
0,386097405604469
0,390838170099983
0,391212546605324
0,395751497226627
0,392567992756849
0,406253906710502
0,399519634850669
0,406506199701146
0,407069623094888
0,409060382069276
0,414021002136894
0,413735222375892
0,419593217767543
0,432160923064459
0,429611806071322
0,430874779357111
0,425252854482214
0,434620148354225
0,443351844680212
0,454030154862377
0,445578918632953
0,449773918469616
0,461548108811651
0,468279417367215
0,467732077092085
0,467841648803821
0,472137415726121
0,489094070451645
0,495457365780729
0,494970745297502
0,494460479966895
0,502567079595534
0,505204073813606
0,522856266738366
0,515006914535732
0,531633505353998
0,531713828410274
0,532980783609109
0,528542034765188
0,536269750863633
0,539547216980242
0,543967945812587
0,538994003814888
0,53190848157709
0,540097872933471
0,548590563479658
0,549335550416325
0,552378788445091
0,544763650227309
0,54606636044346
0,549319897426828
0,550532216875785
0,534826366773844
0,551310645849515
0,538166608395475
0,542559845225584
0,53324790580123
0,534211771685717
0,530792295378503
0,536559714574567
0,538810365660737
0,539716724920932
0,519578217664592
0,523702536144963
0,527472502364389
0,533738009912741
0,524971659076695
0,529041333922088
0,525105536810645
0,522368392256785
0,519330816406217
0,522698301811049
0,518703531040253
0,518296410705715
0,509487107301168
0,524086581814915
0,522040440537953
0,521969494794459
0,510862236856398
0,511750160349472
0,518692201123182
0,524863710655179
0,517786449767042
0,529787934220164
0,517626430900487
0,515971958873093
0,516525773876574
0,508391285049566
0,510683298302881
0,514054242964665
0,508535770934249
0,505882313125338
0,502738470872777
0,504752344558084
0,492801206739157
0,503468906961846
0,498864801832737
0,491371393724069
0,483826437582188
0,484968042563326
0,481989814243835
0,479586508563955
0,481539503723701
0,477954806800938
0,464404414070189
0,470838626102185
0,464784432141134
0,461660210928835
0,457658304033946
0,453910716290668
0,441210371949781
0,44496626913736
0,43651576789554
0,440197575385498
0,431422981928242
0,43365841797226
0,429287492172448
0,428351903406475
0,420156587210016
0,42390631009203
0,407719640604075
0,408270222629794
0,408625274291846
0,415608905498212
0,404279899422249
0,396903121514985
0,397501585713049
0,398218575142879
0,387783028922067
0,393138365721512
0,381355338722594
0,389758137139334
0,385496316084156
0,374980072705065
0,372826222997709
0,374682575939822
0,366555699830583
0,371731600859288
0,366872382617361
0,369061271377185
0,360532578746674
0,36509649816126
0,350927058478402
0,359040460551855
0,352975821459211
0,349130966385125
0,342905066830127
0,35392081129733
0,341779902220696
0,343312795220822
0,344841497950401
0,348026350083606
0,337978632487862
0,342388343522529
0,335419966722111
0,342426319849668
0,333564124253239
0,334237588057669
0,328545828749752
0,334719463850559
0,326108959287004
0,324097568455733
0,325443990468916
0,328582635152266
0,325947832794743
0,32613199783706
0,309717171938119
0,316827597461547
0,311874852619557
0,315165060987937
0,317394937419815
0,316790374994847
0,308711607821428
0,305695638282099
0,30377747077477
0,303317977870137
0,298964534026179
0,300374524985211
0,296748314907208
0,303194365487642
0,29824360127603
0,302004599811437
0,297741470427243
0,299356618105392
0,294215005637033
0,292717263424191
0,287155109008909
0,293255444926023
0,290097578697667
0,289602099626666
0,281748181554438
0,289607882845545
0,283026648522737
0,283362439550471
0,284868423379044
0,283570878756529
0,276681526987508
0,279891157197445
0,277467172263036
0,280654275488377
0,272414981063807
0,276532118889283
0,278148962349667
0,279245496690671
0,275388386093173
0,281223402340961
0,269324041180679
0,275722977459125
0,272687472309513
0,273616052328918
0,26985426044842
0,27537112540377
0,270642200810708
0,272429527637505
0,269611058553236
0,26840423909633
0,264814160929185
0,271159336644752
0,267057310822949
0,270622770281624
0,268637097817167
0,267331207588655
0,264907100733085
0,266939624911354
0,260761365786434
0,261684015768674
0,258273926551007
0,264925539438971
0,262887181330166
0,260682208978943
0,255026653844564
0,266756515655458
0,254426294673909
0,258073338084318
0,253381908220976
0,257259559482037
0,250383758128961
0,25046386836482
0,251072531443627
0,257632903974194
0,248030176250755
0,250088669995993
0,250083613998384
0,249250736840479
0,246134010534366
0,251060819867182
0,246585022809062
0,249088396588015
0,245431853467063
0,246817587212082
0,241114584306131
0,249287706043631
0,245303340005463
0,248212496039836
0,249424563973303
0,24606537725882
0,241640607095203
0,248295824648252
0,240297721390352
0,249231327463544
0,243124408169123
0,24728748071868
0,241023489177865
0,241182530606383
0,238955146451473
0,24327803954073
0,242797222525726
0,237390027040326
0,239851946936296
0,239357946357167
0,235517158568017
0,24265836813928
0,238361993923187
0,236904417256177
0,23916040631142
0,241708019740681
0,238435797941168
0,238982101822623
0,235176887723279
0,234540003705007
0,229156522863737
0,231570684263802
0,229350634960792
0,23492950452864
0,22842097246081
0,227514444818741
0,228733612340873
0,229588433095692
0,227058295746356
0,227405681462289
0,228496999545509
0,233955716523086
0,226662383766225
0,225148677003597
0,226106409249401
0,22696291513349
0,217743363695662
0,221083106648074
0,220049044976938
0,219471875944288
0,215315414156636
0,221066444007947
0,22130291308328
0,219113629764789
0,215763662556339
0,219703391973915
0,21463848547187
0,215437391474899
0,215238697362217
0,21800473036728
0,209514860102743
0,217724064752474
0,21097597841697
0,215582380025347
0,208702904109451
0,211135743151147
0,212369918528075
0,211715612692764
0,207691193688402
0,207051891204255
0,202249112718184
0,206286657788312
0,205528769200874
0,210991395623596
0,207512025146993
0,204134263867778
0,202554177452048
0,209581540882693
0,198552765311948
0,203260403590903
0,199666676616937
0,204177243064957
0,203464608185717
0,200161405029592
0,196818450364337
0,202694536541971
0,19585361002675
0,19793465005748
0,195737901801047
0,195881883550987
0,189934592691738
0,195363528843551
0,187882503447797
0,189214745091581
0,191469229483174
0,196375652801938
0,189731030750867
0,19060320494159
0,186150044685255
0,188727899567301
0,184544093485835
0,18228822424073
0,181914005305281
0,186768266078281
0,181397662083396
0,182122897310399
0,178708017109301
0,179541889559308
0,175879949812936
0,179262429698161
0,173134020006072
0,175383231520844
0,17390263716407
0,175704900599879
0,171680501275505
0,171634629271666
0,171646109111437
0,173919933961883
0,167721423883647
0,170789339236122
0,17081825628445
0,168518079977927
0,167208113341975
0,166701337584092
0,165297005959132
0,167723438284652
0,162471146474313
0,164666205638277
0,157775963213919
0,159885878684218
0,158862022223194
0,163148632462446
0,160889005975058
0,159327310038436
0,157639666883051
0,160926487046871
0,158563052341364
0,155121719338052
0,152895940048189
0,157372980738244
0,15853594063296
0,159559177579578
0,152288322770887
0,156972087703628
0,154801752082459
0,15531335498847
0,153498061508879
0,158217307029807
0,151362349603004
0,156528854670519
0,153084065850954
0,152793790686784
0,147507414598818
0,151079858131459
0,146672143061484
0,149429170950553
0,148500325497243
0,151586690943712
0,144340076201077
0,149111262330304
0,148561458787872
0,146870621949781
0,143585891656326
0,147390614574265
0,145225681487698
0,149284590568729
0,143101022604334
0,143287449341429
0,142224190309339
0,145142138279057
0,142401001590229
0,145050680279808
0,141219175894393
0,13847177886476
0,137757083163636
0,143309821472792
0,137903047727637
0,137341047095354
0,135454832664259
0,143832664060136
0,138989314479427
0,142230353931864
0,139076145617966
0,138125747141539
0,133305910524117
0,137444239955078
0,137871866705244
0,137000687995755
0,134190336389258
0,138238221186528
0,137282463694598
0,136334805623394
0,135565636967843
0,133588884875464
0,133637345073746
0,137011971579505
0,131756331317476
0,141029458576513
0,136364843725285
0,137036567927244
0,132432647610526
0,135031801020511
0,130272318573058
0,136097053396422
0,131193651356677
0,138969387274722
0,133281307114094
0,134237028750329
0,131672036551625
0,132638235731413
0,131024450836134
0,13479182733369
0,130271877149965
0,127627556383974
0,129205606979052
0,132686964538378
0,126520686610135
0,128839677346402
0,130562173407976
0,1308016501381
0,124177713328861
0,124965103728788
0,125769863579717
0,124363264553308
0,123429583810289
0,127864606365043
0,123338204136286
0,126918979571924
0,121868210173901
0,125024801353905
0,125890069003848
0,124289808162074
0,122432245725305
0,123895553518853
0,124093506323993
0,126886189539424
0,122361834113808
0,120904500345363
0,118879028233864
0,119817943160348
0,120191406075418
0,117578337979149
0,11686812556475
0,120169487545906
0,116523577797829
0,12002288943249
0,119137740401829
0,118648688904289
0,118152458450189
0,118867218392203
0,120262311223561
0,121196541147157
0,118297876054499
0,116662218915566
0,118462581828377
0,117732417702943
0,11604829926453
0,116476775571721
0,116979076079897
0,11586686132368
0,115542237825067
0,116950167339625
0,113444571717017
0,116513549412074
0,114440593697434
0,117829418656747
0,116095393644448
0,115964579973675
0,114251428788116
0,115864587868215
0,114888145438774
0,114616416100525
0,112025405474284
0,118486721335675
0,10927724420903
0,11326316577343
0,108485466184647
0,112899682005986
0,111076985699009
0,10986989362718
0,10935698673916
0,111217218844559
0,109288450345833
0,107894553817657
0,109946280708912
0,107580197799245
0,105690171408466
0,108968627378838
0,10702839534652
0,106333483893728
0,105892301173044
0,10864271065368
0,105052487554012
0,103509033505415
0,10209180839885
0,103634325059275
0,100567650277875
0,0998207816077148
0,1030950052542
0,103751419352462
0,0970635252417072
0,100412954224886
0,100331204386627
0,100905830814396
0,0985454808029153
0,098030265513192
0,0992440750130417
0,101243230373661
0,0954442463573826
0,100658564685369
0,0968350304059397
0,0950623179365187
0,0947275711848204
0,0978843950176135
0,0989711937129949
0,0974130442361237
0,0956003134520085
0,0966879908884527
0,0962754087225367
0,0940308849764406
0,0929659283569223
0,0961718807909763
0,0923777890814852
0,0928182037565443
0,0931445083629294
0,0953058331609553
0,0920228219064638
0,0917367042807328
0,0909674379836184
0,0920621870957155
0,0906667117228073
0,0918880116643385
0,0905091631419409
0,0916445565796934
0,0892244787334813
0,0894062724429985
0,0877190683738133
0,086303372308814
0,088376788905099
0,0881561222250379
0,0877989942164581
0,088199581467585
0,0888255674817783
0,0853701033870874
0,0857149868960255
0,0828522938288871
0,0836621035508297
0,0819380382903642
0,0819534183120479
0,0810108064887154
0,083315320611804
0,0844152732239406
0,0817674559860992
0,08159614716849
0,0840796144056191
0,0813442309773985
0,0799332728810277
0,0803981581955014
0,0824319340048619
0,0776697668016121
0,0778656275487551
0,0767976571600344
0,0804845241053282
0,0779965072660165
0,0780689043981314
0,0763401618848395
0,0777920977596474
0,0783562919754508
0,0794151013152909
0,078845568534114
0,0775154369051759
0,0753012685423708
0,0778826328609798
0,0776025879444908
0,0748671560478446
0,0790492741358137
0,0802052338781249
0,0752065536028279
0,0756145244210594
0,0763570070712083
0,0764659840366231
0,0779486007669953
0,0828173558128395
0,0797141259800785
0,0808786147265496
0,0788157035790735
0,0848586214064842
0,0828135498206539
0,0847503157105447
0,0803271299919398
0,087230765746224
0,081157019898662
0,0824675309492247
0,0783270728632725
0,0771154655207278
0,072627439515687
0,0763687102304004
0,0798915636936773
0,0826856369255163
0,0649069239284377
0,0687047165732269
0,0741353457757867
0,0821653467738422
0,0646155252611663
0,0761988470638546
0,0707287667127673
0,0687516266202556
0,0747340837274005
0,0742738730139496
0,0658188669598529
0,076643188479628
0,0668407477242698
0,0792735676032585
0,0664146283337117
0,0818466081246774
0,0701225587319601
0,0807311992800164
0,0649613586698078
0,0834586252419991
0,065051388430056
0,0795344479907573
0,0625838577165582
0,0756486107640628
0,0567475511188441
0,0799885266472067
0,0570498843569401
0,0792805403763112
0,0586199940208291
0,0859638281295675
0,0541761604734566
0,0847436593619403
0,0458239884739623
0,0804593173887566
0,0470979628285042
0,0930225433452384
0,0493284209439239
0,101266870684407
0,0468898752508449
0,089648133089424
0,044961754705875
0,100770754603824
0,0493224626181603
0,0960285931971152
0,0452219671232743
0,0947767569035193
0,0566359035350805
0,0924511824272277
0,0586418252640685
0,0820748446664147
0,0773534198983855
0,0683746115878096
0,0784820254746073
0,0630422483783446
0,0925710088402757
0,0507620628876371
0,0976449342181013
0,0494509975946731
0,0944811705041625
0,0539912995625451
0,0869075692213524
0,0607026739855536
0,0769256949034141
0,0650452106847537
0,0683370406534516
0,0680815546032749
0,0694148001430577
0,0683958061432056
0,0669737499412708
0,0653511730262229
0,0688979385677296
0,0609026272814716
0,0728784072115341
0,0585974817583524
0,0687494426731644
0,0627962358769375
0,0666697045130356
0,0586358611325795
0,0672490255834941
0,0620519550911951
0,0660241778629938
0,0649656662409621
0,0669344778385839
0,0621594110302663
0,068117673900643
0,0609440429436796
0,064968186348398
0,0590831735122023
0,0639132052095787
0,0591303067164699
0,0643576611847096
0,0622497009218082
0,0674277895713581
0,0611268801015246
0,0657633754674966
0,0610854379104231
0,0659146039908293
0,0626269921161546
0,0679398631334909
0,061285651298489
0,0670096570163289
0,0611759244992105
0,0655387663011229
0,0619625415201026
0,0670459229926197
0,0623570376530546
0,0685627385808352
0,0624744286006612
0,0632008855121317
0,0601626284092314
0,0673115850085296
0,0629586370351312
0,066107460724627
0,0612307564458107
0,0648154797493166
0,0628340983146607
0,0654200740044344
0,0644866116542459
0,0665101714505846
0,0602752276221536
0,0661711453330723
0,0608377220799011
0,0661793925744994
0,0624677944556902
0,0669988531017047
0,063951812179202
0,0681268914555856
0,0595117033635227
0,0639864627418672
0,0623112839463312
0,0655884531540543
0,0600771572523728
0,0654261921890189
0,0620054324204357
0,0616076356278505
0,0596794009631994
0,0653185846510689
0,0609868312339646
0,06376219852978
0,0618604017869843
0,0633076847524908
0,0632123011824196
0,0644561392054317
0,062352815740362
0,064504716993102
0,0606943777295296
0,0637862068996059
0,0634825210450953
0,0644316487110185
0,061896045314212
0,0678700868152506
0,0643903248033492
0,0650409768588481
0,0625644955492799
0,0649856020522032
0,0616122641261134
0,0674984275703423
0,0621997060968698
0,0651035767660072
0,0626890684301741
0,0645223656346086
0,0656963028581999
0,0672755314731613
0,0623598467247311
0,0660064150029983
0,0629685213655879
0,066708661215767
0,0638390280777233
0,0675663857224323
0,0665019360478556
0,0689428934644238
0,0673245512348677
0,0683174797666055
0,0644243423687341
0,0663647981097609
0,0676094486907822
0,0676950735882413
0,0675512570645559
0,0671616682339449
0,0675979803497869
0,0686922882543525
0,0661044653943611
0,066868939484865
0,0663731929680295
0,0704695452054611
0,0677094265170754
0,0705842541004941
0,0662393669604215
0,0677272796594584
0,0635704287406893
0,0691577126318438
0,0681214758673081
0,0702979786408277
0,068263302693916
0,070164104050902
0,0661720788162313
0,0654551539654265
0,066603945095971
0,0697230074220685
0,0669753471463166
0,0702894757906523
0,0678352042653102
0,0691864215860658
0,0689636737348327
0,0708438634353297
0,0678395284252348
0,0726962522315684
0,0703278236991089
0,0679752124994649
0,0689220620258996
0,0725615265686923
0,0683713987820656
0,0703255227268031
0,0705751404309449
0,0739342944305793
0,0704617424627487
0,070914192120105
0,0689074256850889
0,0730412818431028
0,070865736586976
0,0710155001000554
0,0695289062416881
0,0740252415601177
0,0715291346154632
0,0733887870227471
0,0707111487767737
0,0727944782361561
0,0747976393724956
0,0757557364114428
0,0722180904833353
0,0742719460098249
0,0713662036217317
0,0733834383629521
0,0707924245785204
0,0719853129480049
0,0712755766954844
0,0727972977912715
0,0724040116836639
0,0725205373592161
0,0708920533497817
0,07352977388542
0,0706613996025842
0,0729199631052922
0,0698511371677749
0,0733062321330873
0,0723856748756239
0,0732280043311413
0,0694635650102423
0,0723961384956531
0,0708650418508314
0,0711167162464259
0,0716485190508435
0,0701069810076568
0,0675065977248351
0,0713043993951254
0,0694543686013288
0,0713819084738267
0,0703663593925712
0,0701372268150612
0,0683425601398534
0,0699879732903025
0,0677461946857831
0,0704392895825066
0,0676641884597305
0,0685637434944252
0,068447195246025
0,0664273161296109
0,0666314507050277
0,0710696160484319
0,0693422968368734
0,0693147811914205
0,0687784156008491
0,0718582573078407
0,07055175578647
0,0715947581875495
0,0700038965489835
0,0709378891026365
0,0672088499451398
0,0716237759981909
0,0678641683934063
0,0670747063972905
0,070840748768123
0,0695075018194527
0,0675657221682628
0,0684891672251884
0,0674604035996843
0,0678034760613214
0,0684969391111763
0,0674826259843395
0,0688620784885092
0,0694841472775684
0,0664186779902184
0,0687110903278439
0,0676487127200805
0,0669380944364474
0,0698044345344781
0,0720770291022032
0,0664027832228016
0,0708670658905482
0,0692715628950158
0,068001267373513
0,0682432459144563
0,0675834320380695
0,0664727071892517
0,0679899629268756
0,0650230594188259
0,0684482833307712
0,0644707695955917
0,0694580874075255
0,067454231061241
0,0680972381885082
0,0671569810471492
0,0663251220685785
0,0640648517530531
0,0687036818943643
0,0657820556733822
0,0648808012787636
0,0644588112832764
0,0663382434621229
0,0649236998268674
0,065348467720918
0,0664521614694533
0,0716904822671238
0,0698796192115139
0,0679867906399182
0,0670783334349784
0,0658606626474707
0,06562847589479
0,068090043049379
0,0673649254879071
0,0657489730988043
0,0674009313028564
0,0681760313873069
0,0653779524774866
0,0663806966173048
0,0650154143048473
0,0651908099331095
0,0651247331654062
0,0664562093185095
0,0691847184103507
0,0675533527804009
0,0646549041638319
0,0667803809823681
0,0660987317343777
0,0646580810762384
0,0652299666861319
0,0658575839435775
0,0664787902536523
0,0698134596613801
0,0650353543687375
0,065466507069381
0,0644059233079147
0,0652679167684021
0,0643755757997404
0,0656354917746385
0,0647519048629861
0,0650566577366912
0,0619900008623582
0,0621498219056906
0,063243750448436
0,0631883757722333
0,0603126172447291
0,0621190433883158
0,061939564534573
0,06065927581749
0,0597059448799405
0,0620021770294082
0,0600890765449615
0,0594889136785389
0,0572001823309006
0,0604598544566678
0,0580479513045811
0,0629845708048672
0,06205745831439
0,0665408870476592
0,060942113260322
0,058849002394125
0,056641252410373
0,0588575821028427
0,0582589091203006
0,057855590001311
0,0587595331062089
0,059247725910343
0,0561900120874587
0,0587076943794169
0,0548503914066941
0,0544240647356037
0,0558941659225413
0,0555475435006771
0,0544726816272399
0,0530956400329961
0,0549918755178225
0,0572064826319947
0,055822928662719
0,0552690613763772
0,053660829022225
0,0559860195466159
0,053405197574524
0,0541660805612627
0,0559407815883566
0,0688119430485513
0,0704289528020429
0,0559529933865071
0,0555986163489921
0,0592108633959979
0,0606013798267782
0,0547173178241546
0,0541616145584728
0,0524456481067744
0,0532288238061544
0,0527719063754021
0,0528962296920825
0,0552735013556425
0,0549694768886216
0,0547454284483976
0,0552629165573765
0,0539075124484523
0,0547026498567825
0,0546190237872318
0,053959224126026
0,0533536076461652
0,0537306846270073
0,0523472461775793
0,0504992185808614
0,0542688565937879
0,0526062396832648
0,0546585754445513
0,0654455730659697
0,0630162792428954
0,0559806460327955
0,0576276067002085
0,0531652982823579
0,0508982049282185
0,0567174388332525
0,0565559392085462
0,0517522783516819
0,0513100555416917
0,0520419790439155
0,0526742658960264
0,0511567310040133
0,0555659651637892
0,0553677408924307
0,0509108854327507
0,0521487426213287
0,0540885580499787
0,0512907742695603
0,0510288230533059
0,0515194450823375
0,0515455871660591
0,0528742074383484
0,0557046614751465
0,0540060172402906
0,0514638657789333
0,0627868402422953
0,0760162025072412
0,0563145938838041
0,0542964696258964
0,0522211183846498
0,0539142005099857
0,0536486851895691
0,0505872771198164
0,0503830437447971
0,0514962521820007
0,052845161089077
0,0562439760632262
0,0509296750618382
0,0505024429858586
0,051858077132799
0,0531476714615692
0,0505358763152761
0,0529721672742818
0,0533294174319157
0,0529406610910847
0,0521681797237225
0,0601250658540727
0,0734235530679949
0,0638980090123853
0,053660464512847
0,0527228048372047
0,0538576274106931
0,0786430268957839
0,0638504969019676
0,0530761489798573
0,0554172212962029
0,0528035914476943
0,0524831564703695
0,0510941727344102
0,0513946335793504
0,0576102440937091
0,0634897272797844
0,0558190635189433
0,056241112679761
0,0507302223390068
0,0510723688924916
0,0499823186287804
0,0501344776587572
0,0486621355480513
0,0494735690153834
0,0513749714588507
0,0504939051468537
0,051330321569225
0,0501088279716995
0,0500889141264739
0,0486829437976241
0,0590561125397818
0,0605713657029525
0,051930822313597
0,0532900013753604
0,0519169821063454
0,0483604398457042
0,0651653500762108
0,0710189013590804
0,0523121631117291
0,0492126675500045
0,0484482376078196
0,052314521369033
0,0540592687191594
0,0511521738987436
0,0484765895693086
0,0503882775816534
0,0493648865113601
0,0492006121772375
0,0518150122037933
0,0483443826189073
0,0462409694736618
0,0482536614218857
0,0514604144954751
0,0514423190481001
0,0484999373748681
0,0514830855192354
0,0546284204735643
0,0571580161865066
0,0801213258403194
0,0822378177136903
0,0739119814403092
0,0684895406879103
0,0569633820252773
0,0530545244538629
0,0526833149057194
0,0506525688384037
0,052139052354982
0,0536673796741296
0,0491762728928956
0,0499124812399447
0,0549951654431492
0,0519974947952715
0,0499277743522115
0,0506800540421087
0,0516903644897941
0,0480130927461902
0,0465029418631055
0,0473007678401987
0,0490485865811303
0,0483448987544572
0,0499155271088759
0,0631893367520754
0,0632560315787664
0,0507503643132843
0,058465605602813
0,0908720255009294
0,0813800285914236
0,0611478842978016
0,0572613040619517
0,0541898973905037
0,0505947852895544
0,0497362200493487
0,0543928255763668
0,0602960878639849
0,0501902110770682
0,0485741138385662
0,0516570776172898
0,0545035206756733
0,0502847530329086
0,0489355923025971
0,0752444244034631
0,0933781634408002
0,0695141058431137
0,0560584390841367
0,0459954001170938
0,076000111893736
0,0869629273104099
0,0575912580197539
0,054440187156564
0,0536940539916438
0,0514480879210487
0,0511777719513046
0,0484361599396037
0,0540455789441334
0,0595303094911036
0,0542164831487242
0,050856940002647
0,0488733467564097
0,0532383273073731
0,0573149527462028
0,0586756303628766
0,0677140009552746
0,0664724851846798
0,0556356729023519
0,0607691567920356
0,0599685909925726
0,0508456803187271
0,0534287738187609
0,0530835208138798
0,0528411945195642
0,0717095653117278
0,0732030259990102
0,065915435791335
0,0756666898902564
0,0681309057033886
0,0553188887648979
0,0608320558562382
0,0724966368059784
0,0650749448834075
0,0532610842365256
0,0825035647167545
0,0898566735571995
0,0950683879277396
0,0734736233749226
0,061715669483046
0,0538743206423144
0,0589258319951517
0,0490115356529875
0,0612243861878317
0,0754247489708959
0,0636295213460362
0,0549293674385395
0,0563672300698006
0,071040384713872
0,0733209824919125
0,0657370274034872
0,0611148924894378
0,0543058026033083
0,0607990743812503
0,0816819747131902
0,0609164476879886
0,071086697202319
0,103051681880707
0,104609267069714
0,0934673511858055
0,062984745917998
0,0721775605753994
0,0914268220912411
0,0732924744409705
0,0627919436174972
0,060377906240048
0,0628590970205545
0,055909545064223
0,0805678048154884
0,104921357040173
0,0715571570345344
0,0627041082438512
0,0585201998214002
0,071548938060796
0,0960035313744908
0,0767406889244167
0,0622720890113174
0,066113105229927
0,0612319345255393
0,072363893648494
0,120739140551028
0,0935961425383556
0,0994188333159352
0,102717125366773
0,102332124497486
0,0816956646069787
0,0830462064949369
0,070682503248683
0,101249202023133
0,0997257222723614
0,0797979059856517
0,0650747460742892
0,108207347627602
0,0924020105546407
0,0814886376813314
0,0744815419384858
0,0765141749132373
0,0787029054039364
0,13877906929825
0,15297310262293
0,117313068017488
0,0767228798890344
0,09531272233051
0,11000770509933
0,0879485263576088
0,0746722892638913
0,074589338048473
0,0719630221874865
0,0689217110585407
0,0773231196100118
0,0886173975204912
0,0789485310763445
0,0868619671672223
0,0766555691670187
0,0926002527086446
0,123644818863737
0,177740012310747
0,119875306740366
0,122229388895338
0,124871687771318
0,127454055469288
0,105344038223171
0,0893650195446258
0,0918479796071828
0,10186344589774
0,0980748000547138
0,0921783241617242
0,101741342196195
0,131207215309066
0,112145836618791
0,144349246815234
0,119691246122175
0,119051962360482
0,106276126684392
0,176737675706928
0,243669302327359
0,160563842164826
0,132393785937853
0,131259376903798
0,182868370515579
0,179168155129092
0,145527180375086
0,124366030332606
0,124065918602318
0,124242527116261
0,146675295814124
0,149539463017745
0,157190071015982
0,167133352884925
0,1480021201752
0,153512489397283
0,198286659920192
0,27428485210796
0,259864448401338
0,181321331680691
0,175547476611543
0,198974895086831
0,190516794581767
0,173236072232427
0,179500047461215
0,16973693799803
0,232536735341219
0,226492935253017
0,213484610593353
0,183766337274599
0,221422698701475
0,215710873534533
0,230413669845439
0,266519551577391
0,251156676103473
0,23746202822146
0,209988978697567
0,229521066519809
0,215784408488968
0,242329560483498
0,259564413726997
0,258531779313395
0,243531259684119
0,238313918628121
0,240062236191041
0,2435549603463
0,255945076789051
0,251019949615927
0,271489765287052
0,314930604482842
0,360350381893126
0,455705673859632
0,297683728791476
0,284457271723964
0,258496138429017
0,292915865876374
0,313536325039729
0,326396520614359
0,332399422052184
0,302976367132738
0,277556559555428
0,262113734454583
0,27229919681077
0,26527095199718
0,276455410028645
0,26662381826548
0,272197992473521
0,302946633496956
0,273948048671522
0,354613477411441
0,321333747105522
0,291262205414964
0,25703221329913
0,273488533903579
0,25311963359511
0,268149713322935
0,244572953533913
0,285187816116072
0,25997229231962
0,267467578865383
0,247764238535093
0,25263366134509
0,282090808016732
0,276721149634567
0,247295703695285
0,238714148535472
0,23537270700828
0,236650643987303
0,22163038562228
0,283707777740531
0,262158486511893
0,248475276382415
0,217800053101607
0,227443365603915
0,214645448764271
0,215441035140095
0,210018616337813
0,234224539310163
0,210418982621675
0,220428837064285
0,212294516010841
0,215297649346763
0,206807953887179
0,211257206407447
0,210917647002766
0,207549904697122
0,204993345468899
0,202537916176939
0,204743707295104
0,202552455322047
0,194599511085576
0,204285033565633
0,198454541470709
0,208176443330033
0,200943354973168
0,202546276073459
0,195256533721859
0,195661825822587
0,199805173090556
0,200787559390232
0,197945214929083
0,195214193918095
0,194114891402069
0,190829282484513
0,193344953663536
0,197118701950989
0,193887890572055
0,189563700252656
0,193671881256414
0,188560831785965
0,196340441595246
0,194198758707086
0,207256063594192
0,26221212844053
0,20725338356073
0,203458740340602
0,17800604469807
0,19629849642352
0,170578979652067
0,199814241029224
0,239931151015441
0,21304472478117
0,187269524668569
0,177463127881032
0,176970820236906
0,211662596347487
0,179878487070635
0,186983715749663
0,167115417781148
0,184257945929533
0,253863117937264
0,252793149446424
0,345926981111381
0,275276040658222
0,211164131316935
0,167422765067569
0,236043671296849
0,194611369393156
0,185900713770796
0,159274968121886
0,170899064195572
0,229130855892493
0,180255757833006
0,174993232382821
0,156274109695768
0,16944809505054
0,214555330909135
0,208032742225532
0,198363970833189
0,241593434325007
0,209678215782607
0,219817329002114
0,254197877488464
0,286330365687365
0,199290294759189
0,169346703159892
0,168519069153841
0,155578437664055
0,204345124746331
0,214685064536342
0,183438602674196
0,188156875073991
0,147143150303798
0,163251286693367
0,161331196820371
0,212464427337112
0,157606330366638
0,210261546732702
0,183212391540399
0,171703049239373
0,18537033039225
0,207327427265488
0,263623291370263
0,233098256254843
0,173562840400546
0,156886627549986
0,246524316409407
0,207291069869833
0,198694635081389
0,180726758419258
0,146162937771671
0,190799831056966
0,17876986389623
0,16819663876135
0,198867495583089
0,194858732690983
0,248808784027567
0,25260280467931
0,287078465932342
0,235278797512482
0,173871517074554
0,162038111192169
0,154305709811656
0,172230004498048
0,156790422107666
0,161957792912276
0,223901488031138
0,163176461648671
0,205437973994095
0,209200498901187
0,186517807449866
0,172869655282983
0,169258351545694
0,17133378293239
0,194825783749798
0,227765272213871
0,255817879746278
0,201447237312148
0,23207438652716
0,211129292870624
0,210902093536235
0,190860628526812
0,208610192886972
0,197004848485943
0,215289227732464
0,22854018483751
0,22288529627169
0,222156891696128
0,232067968755096
0,226179727657306
0,30809310908076
0,259884643881555
0,272608103717403
0,298988143004817
0,314647543660867
0,360270266546444
0,300525211373163
0,301390775535106
0,287830464141783
0,302589946776008
0,310220976803999
0,307020019023273
0,359154302796077
0,35104946896836
0,338483611774988
0,333135785146214
0,338789187138478
0,343073823471749
0,361059755120603
0,406239172115875
0,393206400128287
0,491410412721388
0,402710369984954
0,426100219220865
0,370581877076884
0,378087753252988
0,380799380617181
0,381522820695203
0,379988394533879
0,366263146836991
0,395483053998956
0,413497839635877
0,381254885663293
0,391444151892173
0,375351305080115
0,38539919483116
0,379694623517177
0,388252062847117
0,388790261356496
0,394727785767595
0,396355786863816
0,388175365650764
0,427864520427406
0,502032901274531
0,42780812609833
0,420628460168976
0,405307949729067
0,436544731374318
0,408470140445508
0,429928700383746
0,44680200296555
0,440785519058555
0,439646634097594
0,431983550455677
0,436009379088306
0,428689783015613
0,470653113653475
0,476762412440416
0,447709789862338
0,460799793720082
0,423232291561912
0,554382864936918
0,490472708877301
0,506879442917834
0,47307389755677
0,480805227303764
0,458128494792869
0,469267799286564
0,454860505748584
0,479065141250054
0,470337500582349
0,470561441373531
0,467168233223519
0,464165836164465
0,464289451628799
0,457769033518775
0,469798363634525
0,505718601949736
0,459180780514918
0,456622983785932
0,452200541547896
0,456215180719379
0,454983091148937
0,500587133671541
0,469689063576637
0,470754485886071
0,449894282572422
0,486839499491816
0,494337515432657
0,471252517068996
0,433839444016875
0,444754528326718
0,434693442377086
0,458855079082222
0,429098054637833
0,483454586943859
0,479985650000459
0,47471539774741
0,448240781632525
0,461560702577031
0,456403493962062
0,468713117428908
0,463819266562395
0,473529050328505
0,467090229509495
0,487984776444171
0,487751116080292
0,479833510030781
0,486327425220988
0,505691351818074
0,524791409441993
0,522844340478254
0,49045418022183
0,50630854437993
0,492578344307446
0,511459080319657
0,506698108647371
0,51444080128024
0,493972577064909
0,510631311686903
0,486672159076453
0,522254864734469
0,538493621732027
0,50856973014776
0,520062477557412
0,49496630517322
0,492026722037604
0,483873760657493
0,495208804737173
0,482765437978981
0,482810427249792
0,486920585561294
0,480404443708575
0,476107166826891
0,476942730562412
0,479013522420587
0,471215315862648
0,479285163211271
0,469247492309443
0,475419570355969
0,459560137099564
0,469723911203089
0,463110249161796
0,467316279060026
0,459640135077475
0,462083085265165
0,490551716318815
0,491710842072581
0,496677673284204
0,472964983150123
0,481118641944585
0,465834899237626
0,460811507853367
0,460776111369051
0,458124117156668
0,458023051317638
0,45732343935363
0,448730688855117
0,447845221069049
0,447761790904466
0,442983412880777
0,448069008110732
0,440603372415438
0,438387026599053
0,435478944364667
0,435850952692761
0,430114388835471
0,433309299863758
0,420870433655635
0,439868936123054
0,419858272900886
0,429449250284889
0,415961981965331
0,417987056257589
0,412983868561278
0,410273476235216
0,413900497993563
0,410623700548828
0,40327025939668
0,406125250310069
0,400133054186609
0,402354684155534
0,397705804411005
0,40363580817524
0,39484097046886
0,39998396819598
0,397616965834778
0,399805934906576
0,392825462900726
0,396837552439368
0,386288271446846
0,391007903746348
0,383473149181173
0,383599610088754
0,375485060764732
0,373925057444581
0,367509707797686
0,368720458487841
0,356515766345939
0,361364452460419
0,352840622645932
0,357338132582355
0,35641466207662
0,354652195393727
0,346604889393141
0,346426368514109
0,342039245288292
0,345586179630195
0,337928590068264
0,343438187249707
0,34171252713168
0,342086682882734
0,337387470517411
0,343304670953071
0,341066051700139
0,341036299112512
0,337894203084839
0,340656639617348
0,339489924958025
0,346777547763387
0,342353723041557
0,34723574960183
0,343449583219425
0,341677377038547
0,345956205004635
0,347555945565447
0,348944909424838
0,352238315882462
0,344254678711047
0,350591122180469
0,349106158772736
0,349970040589114
0,355250382389722
0,355863826766006
0,350917334431332
0,351759052193647
0,353127679912941
0,356120408569352
0,352484048736099
0,354953191614467
0,356320959482653
0,353420403903146
0,350811187549139
0,353316064902864
0,352370205284017
0,351105893906326
0,34824620662566
0,353771817351808
0,351429997726399
0,352433165806211
0,348625126445048
0,351027768340051
0,345267942518942
0,347567558444949
0,343619015665026
0,344815150249265
0,34088777642972
0,343155989308552
0,341179361927334
0,341640866455871
0,336996554682616
0,339246403944862
0,333700754335859
0,334378492870304
0,332999676678156
0,330633388541116
0,325634081089053
0,325109766436403
0,3212484515649
0,320527967043938
0,317509049664903
0,315164898612816
0,310519999998923
0,309336473023181
0,303180646494059
0,298279568124679
0,299274572170499
0,298298332024318
0,292631613167105
0,291663473011445
0,291138341703134
0,292587032074427
0,285383352530383
0,289902720888228
0,287648570787091
0,288400553946044
0,283767169161148
0,287369221752527
0,286354744823972
0,288422611825557
0,288584899476871
0,289337329845164
0,293096380335707
0,291060474260067
0,292020507648409
0,288296858089492
0,287049237544654
0,28646421297359
0,283007782372786
0,281477641662507
0,27634927674525
0,275475293542625
0,270000973710568
0,267574381501617
0,263982901058392
0,25747490244372
0,252752957422072
0,248832974770835
0,243230991004154
0,242847832940119
0,239185515302975
0,234657943568004
0,233207039360189
0,233084355908747
0,233617755354723
0,236422500829102
0,234556979465636
0,237339735649045
0,23967132129651
0,246744912641009
0,252074395072298
0,262904502876339
0,269060643146566
0,277920234080876
0,289050234724568
0,303276872017663
0,311501815128929
0,328737513636336
0,344169145220624
0,363272621744908
0,378009295355525
0,399586975519939
0,420014540667057
0,448445556201227
0,469934932040087
0,499555993679782
0,521315017488238
0,556416437957025
0,576989680696267
0,611059817519647
0,640961210591603
0,668815481289438
0,695892910801679
0,720724213089983
0,742710272287461
0,768469761285874
0,798466713017567
0,815027911636113
0,826925761460867
0,84192808706521
0,851495618485842
0,849796951502306
0,857574169208012
0,871199439792049
0,86067567824235
0,848101334374555
0,848828090185382
0,847634633759181
0,83213832971064
0,82516503310178
0,804469054041348
0,801014983064978
0,792706374191418
0,770422809272112
0,759682659053742
0,748550287286585
0,747327429414566
0,737246772063851
0,736260402904349
0,72756671643959
0,724801175307698
0,718942853937621
0,730226677633099
0,731678286661484
0,736654035510367
0,739393023289643
0,746533586490006
0,756004437251804
0,758579199958098
0,776049340956062
0,775913668127219
0,78617933954101
0,789040709909432
0,799504874097096
0,793848024392698
0,808557257334125
0,817630435300757
0,819384553249568
0,831647105147813
0,834399036995804
0,831190308890587
0,847361580264519
0,853493448253966
0,868099962124664
0,862850763048953
0,872592501586812
0,869344279463956
0,871422053620615
0,874513272611774
0,87692358204235
0,886307928662344
0,889515734167804
0,897789018035258
0,900845907720609
0,901853024520194
0,915185859518887
0,902072831757005
0,913435813488593
0,910488339502322
0,911626404750061
0,91366498779661
0,926279072223253
0,933641502440316
0,947331477583188
0,947140816990711
0,968030349095442
0,987352316441767
1,00269622663008
1,03801313052689
1,05197926266572
1,07957473122756
1,1127729707772
1,16499830330717
1,20226888357934
1,21589583531139
1,25169662176329
1,28984131616744
1,27560833387182
1,3271425641726
1,32229061567106
1,3387773741032
1,33713439298632
1,34541432266225
1,33002472857067
1,34494603276777
1,30759172906087
1,3157723232351
1,29493618452383
1,27090294606899
1,2492957679584
1,23395259389547
1,23713228173019
1,23291026245034
1,23770674314823
1,24174368705912
1,26844878017102
1,27075662711592
1,24044946494145
1,30031255260004
1,28694292324791
1,28563190041893
1,36787403077901
1,38088178672177
1,38720257864847
1,41957618903394
1,38855544979087
1,51277054958535
1,47704264152143
1,50357357753707
1,50383180089748
1,48746508060162
1,51657056588985
1,56090310084275
1,58120527574286
1,6367466879203
1,62504065019616
1,68013543635881
1,65925339765517
1,73977701902934
1,68558066043619
1,67385607288213
1,82639624674356
1,80600256542238
1,78183841590871
1,83029743655808
1,94823393396939
1,96234648911763
1,8950286553806
1,9809338558013
1,89550262019205
1,94211923636676
1,94645418279959
2,30627420948409
1,87186871538156
2,00994948581008
2,15225657243979
2,0388294082538
2,17423874555614
2,14416449163379
2,04771064673373
2,2295905414932
2,1441047512354
2,61752013831454
2,23775542588328
2,10084400763075
1,94557266272451
2,21427751104332
1,99308872290337
2,18534632926307
1,99229541501824
2,0015735971295
2,09013896913116
1,96096008579274
1,81297205835813
1,96889549620241
1,85279093205461
2,0491504576938
1,97557482533554
1,88496471633283
1,72702644321334
1,79333569214229
1,77421620234455
1,81970718165088
1,78061359364929
1,80812444313982
1,77476342732052
1,7373004137418
1,71108763545675
1,69227271099428
1,64257352953435
1,73210410241462
1,5948944340805
1,57229853839719
1,57749718698331
1,5241835187181
1,43766712800886
1,43706406899337
1,38270035448809
1,29498191343264
1,21733340756358
1,11199220065875
1,11366504605331
1,0376475448308
0,975341554951637
0,922183727889951
0,858179166466651
0,7936125596275
0,747872245104361
0,705344829433132
0,665122578310157
0,622031096301256
0,583818578368139
0,549602237628506
0,522896336541174
0,497895665570511
0,478689829031928
0,463469741612747
0,441606237993726
0,421080966255888
0,404417840480518
0,393274727986567
0,377824402057651
0,36863328837253
0,36193459134589
0,352882697434993
0,350478561665272
0,343923908447194
0,335783382271644
0,327847297059172
0,32783198121529
0,325470060249905
0,322804721237853
0,323449117070607
0,329086294020738
0,325818223173791
0,327404996026063
0,335157771252793
0,339911772203934
0,343335695948559
0,348940552234925
0,357842283999606
0,362315265651195
0,378566742291897
0,390777575568094
0,400864759535832
0,399666237606392
0,409782912186283
0,417500424241614
0,426892765260256
0,437856814637958
0,434011470185775
0,436471754262544
0,436792616909727
0,437113908892083
0,447244774500632
0,446624684587096
0,448019227846499
0,448666110507892
0,453322907087126
0,445106395012155
0,44509386598486
0,442583782744478
0,440715203285159
0,437025747503603
0,44173621103638
0,439880816455658
0,435535409150768
0,435728066835366
0,423685399952266
0,416574013394046
0,428914802419969
0,408544014306136
0,414378933642468
0,4029640648588
0,404050489439918
0,397527471903953
0,388449328374707
0,377086990814441
0,380636471537822
0,376046307783996
0,373833581394573
0,368994357078547
0,374779963250317
0,367612211338473
0,365782119116634
0,368818694487623
0,37380172902504
0,374644246257707
0,377510082948955
0,379765848546964
0,383589105249952
0,383033839933916
0,394958197485826
0,390606348816044
0,390568386828929
0,391245246799935
0,391989934072307
0,387589337856297
0,377278967494877
0,371593162076126
0,370689020617255
0,362542348541587
0,355099343121254
0,346315066900712
0,34395408756288
0,336111775318505
0,337121941983156
0,322786519467956
0,321659349824316
0,323615365932264
0,328271873980517
0,326186798743746
0,332945579445692
0,324479837450022
0,333720334849872
0,337289877450466
0,335667119629599
0,339306726250667
0,338360863519492
0,341443239707305
0,354661731879177
0,350480811160302
0,360608410289179
0,360278518871919
0,363692221921544
0,375565911665362
0,381997080135862
0,379104137579473
0,386533975091605
0,37116388962526
0,385387323094824
0,389276544479706
0,394882436271606
0,392823797052956
0,393670772065209
0,39357125333412
0,394320781894439
0,39626966347186
0,38950133512574
0,379848763198328
0,400941086278173
0,390007414631937
0,392214724541675
0,386325603914289
0,393966861516859
0,386953237110804
0,396466770078705
0,390511396415526
0,38539625932645
0,384243134184863
0,379688968769323
0,370591547610617
0,381949516169291
0,369932636654531
0,363769936900425
0,363102915514034
0,364641296076516
0,340766748451824
0,363158763640728
0,350835111027672
0,340724804774399
0,324811639169906
0,329949249988871
0,325115439467052
0,322197943543256
0,311794551438199
0,307727279683129
0,312283885949649
0,31468667032492
0,29539057708264
0,313462729499413
0,310074985289445
0,322121348520234
0,307694031148642
0,318937707211253
0,316415848903921
0,315909110036779
0,306595780920314
0,308493585395246
0,319124648035218
0,321352289699251
0,305033821816451
0,316608762574808
0,314664086434521
0,332277923567507
0,335440402170093
0,342535687389118
0,333789454041931
0,342457692465138
0,344079729614636
0,33424875864824
0,329772502628559
0,347477832235087
0,357933255592082
0,361068065911806
0,368686375170853
0,37529310045062
0,366007004468833
0,386633192333566
0,389155700218665
0,407598320537898
0,407273211167037
0,423660328555163
0,43391116818195
0,446259826977187
0,428617672865811
0,457327367641314
0,462821575616964
0,460723564234749
0,465150858053326
0,493559430050365
0,489366418198166
0,484605421209887
0,475706077767328
0,520236575981265
0,474531007248358
0,513140048325605
0,490340808638
0,500948410864838
0,520623309154218
0,521555687466564
0,498194300014448
0,525867601883511
0,509990748736172
0,515089565180998
0,505294676728268
0,525275804008988
0,512742650545484
0,517857551470694
0,556499451252464
0,553486566529057
0,568062767525489
0,551010817403288
0,533603576772586
0,5640280839607
0,563034160092283
0,564025276017116
0,575272416173266
0,562113190602626
0,540465106487047
0,574022225514962
0,540401075449557
0,572413222281879
0,52558750124572
0,56282769578921
0,515145097251004
0,514592817781711
0,542386255341318
0,52149072971761
0,523136015030611
0,526901983223755
0,508660018394384
0,47772238803165
0,454964412227866
0,509924492594832
0,497390970453092
0,517227839290242
0,501714444491723
0,516829732811636
0,485713588609495
0,523656577177114
0,506321038809315
0,514438200127399
0,477860608036844
0,463948335868397
0,452605031905673
0,492346344962867
0,529411273836011
0,537259277541827
0,49987476949606
0,493507293415102
0,497102657217471
0,558541227479494
0,520709933178873
0,578042037773077
0,525776995222332
0,539217354635824
0,553889410227848
0,532316162990099
0,555943414658469
0,594682325276392
0,505677037953827
0,558629375531857
0,579509344194808
0,545539662269633
0,57007699621152
0,630057568193032
0,607376755805241
0,589721320564881
0,621628152183376
0,628656906263106
0,641975657128716
0,656259152204737
0,617285114824236
0,745115026257758
0,698784434778248
0,707125223443406
0,72408638700808
0,67352564473939
0,6445056315958
0,758384200357458
0,69105120191958
0,682382866662287
0,67807524732192
0,634632566730683
0,697986976609066
0,715677907141973
0,662689460428835
0,691811295449601
0,71911568362793
0,679502397078871
0,580633446427232
0,705129229621461
0,652830659843765
0,705138424879345
0,689341868205028
0,630235579479784
0,765451935743816
0,740219389968439
0,630641473626162
0,65198644022377
0,541950882829572
0,758928971621556
0,537560141528853
0,517098674017273
0,575783968231942
0,659266602497937
0,540735836892234
0,58778502726253
0,574021915410982
0,510824044876363
0,648440741371646
0,826901258431063
0,66975557958207
0,786551213083977
0,6266130986932
0,666405870375152
0,58896043830511
0,881250997438964
0,802898481114169
0,840311216971124
0,724158262349668
0,810654627645895
0,65936407165425
0,809320027074308
0,68724376459041
0,946828262513308
0,65523684471643
0,617870606782603
1,27605221815152
0,630946143654104
0,614077200177351
5
0,988886327174069
0,56312577485054
0,585284167360466
0,232672278282046
0,989753330121824
