3596
4000,36533379555
650,420452594757
1
2
2
0,0605395758267064
0,0670383458202583
0,0761359535940249
0,0655349260766129
0,0633013063865349
0,06229189231444
0,0675596532130519
0,0693206641163263
0,0538051670629638
0,0659399823690877
0,0716450654825021
0,0661006437122711
0,0645094806375242
0,0606572786022024
0,0600774837004534
0,061106835595616
0,0696349501982957
0,0715767125030247
0,0691390138455017
0,0570796970711052
0,0633588849336173
0,0670565782440474
0,0609828988133889
0,0641834719670813
0,0641887609006696
0,0677616660266071
0,0692417495079012
0,0709036712725312
0,0647062671994052
0,064799564640638
0,0642699065937757
0,0640075010348145
0,0727052661810515
0,0628029927044595
0,0609351748259808
0,0621758994181901
0,0621218878605838
0,0670395170851568
0,0605100611039415
0,0685508993218601
0,0763500860964987
0,0672791236160253
0,0681042212382531
0,0673849988754293
0,0649223808724573
0,0772677938101697
0,0680567930366004
0,0739483299406951
0,0669806018133911
0,0685953580179455
0,0717917890472466
0,0606423234932893
0,0754477921671445
0,0693112376554459
0,0657852534849348
0,0876587674507267
0,0788916801699858
0,0629521338910653
0,0696888635704296
0,0633055624510244
0,0877374371598454
0,0952343807337302
0,0730625858446613
0,0679147372099879
0,0624382871506058
0,074365144834651
0,0542801820326885
0,0672810389394877
0,0593184292849416
0,0734537152546967
0,0618642259079523
0,0953372441522417
0,0889524973930562
0,0711932786393192
0,0767215356384449
0,0730123789105973
0,0582021052542014
0,0633826838387756
0,0559864383822096
0,0871475861600837
0,0806524855815834
0,0792217824289153
0,0637683378763464
0,0590142494281116
0,071955493649476
0,0880940826146329
0,0598725184864504
0,0757795723379958
0,0940026169295071
0,0809649378971132
0,0607752546232096
0,0664549282071313
0,0588545711715395
0,0657193797793648
0,0661711119665034
0,0650928784709523
0,0602888401930181
0,0678823515635551
0,0544529704354286
0,0684756305161389
0,0810022361315524
0,069840603169442
0,132036414146288
0,0686875788691648
0,146508330913348
0,0884657643250293
0,0680200237646342
0,137421131562553
0,084098218257971
0,0825349035784536
0,0594634796301974
0,0699065508436635
0,0682563680660685
0,0802427014288015
0,0478910948950589
0,106351460152244
0,109780974416352
0,0741849478009613
0,0601263280423913
0,069267649830718
0,039163074363872
0,106679618805584
0,122848304313386
0,0687642063869381
0,0920716213141487
0,0707329664521187
0,0633829179381974
0,119082230455153
0,109565275099616
0,0721058661574583
0,0715526664973407
0,0609962360125596
0,0658142173788551
0,0556751419993703
0,135252898233171
0,0773566726538745
0,0684304594505713
0,0613219315817952
0,0929384346351572
0,15490941580628
0,0842809041686743
0,0655424340701936
0,065443166296108
0,0663905267993001
0,127134324423495
0,0973953254991488
0,0625806156079545
0,0847793929077091
0,0793113509727425
0,0586103811260662
0,0641047407883895
0,0533857051580863
0,097006377692112
0,0816980995741672
0,0419446325577702
0,134540775883264
0,163953068045656
0,075611974125897
0,160749230914691
0,067498149929628
0,0968517226439619
0,0696275728826096
0,0686283316860305
0,0558152099660193
0,0602410904287208
0,0494667660623468
0,079942914339262
0,106537014841051
0,0610396039043337
0,0742817486044304
0,110119175881283
0,098235346800625
0,0633586734146242
0,16894741064739
0,0961578033499528
0,0614170409406274
0,126842853068741
0,082342477122415
0,0560987361896122
0,0743187138536595
0,105157187114476
0,0618177450754944
0,0749020768587404
0,0604067894027845
0,0704233412779631
0,0844459717519179
0,0813957360506986
0,0630669288565611
0,0767465882929161
0,051156719494414
0,0983917328380837
0,127707955360639
0,113695400449348
0,0615427673515449
0,082603850015763
0,0360351120393195
0,115241282385377
0,117272994248581
0,0647486788654263
0,0672156579841573
0,0550002064194428
0,0587843398000047
0,0541718645260255
0,0565220909540884
0,0640613104717369
0,0312404223344565
0,127366915597413
0,0891140222561621
0,0748994629454621
0,0625795742035902
0,0710466933422739
0,0682790382696311
0,13277710643463
0,113363036571397
0,0619887348418311
0,074655012668516
0,0598124835817907
0,0846931791289802
0,0939527898269253
0,060789758054573
0,0632608915971179
0,060231883879196
0,0612937157964409
0,0540514744345685
0,0595349617761712
0,0549254230210808
0,0608062979607815
0,0644764921706611
0,0642864430992902
0,0634952621595039
0,0705243925847904
0,0685175856542442
0,0707705520632327
0,0654041157853108
0,0582267327092715
0,0725612274600915
0,108475831165515
0,0656152599294545
0,0667883993377335
0,0568986573321252
0,0663276920868246
0,0544769698227437
0,0678093049042433
0,0513151241228202
0,0656482723145226
0,0478395022846096
0,118932437824813
0,0654164689401415
0,0719184236295229
0,0489661267019883
0,102357987055222
0,0829879813501554
0,0639905545705311
0,0607283891076708
0,0654691955747147
0,0518750122394561
0,0617010461053725
0,107321685540586
0,073907319485299
0,066318733945946
0,0893449152962247
0,0734331040939059
0,0611201086032863
0,0701566688761317
0,0449614986149665
0,170254224102531
0,101976008741219
0,0526398590547066
0,163037675341639
0,0952903520775881
0,0827260937840178
0,0707666453933596
0,0313532258646666
0,20879277727832
0,136083956615358
0,0821632409078489
0,0729049047120069
0,0972085009339815
0,0683045914712351
0,0721502130038065
0,0770012086761909
0,0812970037286653
0,104791310256448
0,127554576487348
0,17325082100891
0,0463636953195536
0,113966923075677
0,116755514882242
0,0666354687951239
0,0688027833408766
0,0611958410984058
0,0679976674728301
0,0897154327325738
0,0870722231272367
0,0895564435246864
0,0881360019977367
0,0579573279911696
0,117320989609539
0,0775473817581496
0,0638696077825509
0,0767635193140267
0,0857329788096534
0,0533545115393277
0,0731990823670735
0,0527143904343792
0,0819332202983229
0,0666849487379079
0,0652197467910151
0,135016489980446
0,0982041013641349
0,0661097704049118
0,121621264278916
0,0755947469265068
0,0605580536457976
0,0600153163190503
0,0581193264264175
0,0565002596822908
0,0613292907163001
0,0425419694945358
0,105603878861767
0,0782600812295892
0,0647050621968502
0,062176093697023
0,055102450384252
0,0551520933323651
0,0550059085992689
0,0597348742126532
0,0602481189196229
0,0611568161970872
0,052448806129929
0,0901156724134225
0,117554982812834
0,0417440246517548
0,105797420343023
0,130553438548431
0,0655535684199269
0,0656897306797826
0,0523564644922923
0,0679312691106184
0,0526097090596935
0,0610344847125945
0,0542549200753489
0,0677838643676482
0,0936813634433118
0,0842923737560483
0,0659629847127701
0,0800731448753953
0,137336947441684
0,170673288891145
0,0883834851816001
0,0810347966690338
0,0416981176303227
0,0998456439729478
0,123293962766876
0,0831644504490996
0,114526397761574
0,0611899036390518
0,0767428110392775
0,0567216830099102
0,065449186311766
0,0575239976188008
0,0682348462366053
0,0613903405772625
0,0695626620246423
0,0645678109055331
0,0622672911616893
0,060853129380278
0,0612500027395107
0,120922072839551
0,0863012597232123
0,0641297163814786
0,0782370942630337
0,050216816222188
0,100419580484573
0,124342959327856
0,120445621996848
0,136593472332202
0,104145279197529
0,154064889168684
0,0743987612224722
0,0848518324412565
0,0612087920377678
0,0748321314888948
0,071110298013524
0,0750328692548905
0,0661983250388323
0,0671467936114824
0,0585597530729806
0,0845171774710013
0,0576629590967269
0,0737403862246326
0,0535547171093327
0,103632472903198
0,0774370349407948
0,0757987272472359
0,0662944373245615
0,0933195584035923
0,147178007208181
0,139481079242327
0,102512713995911
0,0867635279561448
0,0833053822826877
0,0719451540033857
0,093592052128983
0,0631778375315691
0,0894739746443789
0,0839792350464711
0,104969611205315
0,117987960434158
0,107564328257677
0,114930510221735
0,0680996331668445
0,108420946330677
0,100478707850622
0,101915262002557
0,122693479623899
0,0952142520052974
0,0784812785200645
0,0994408325827705
0,122870625059529
0,0868096607263632
0,124481034029907
0,0828187089221527
0,0886918154321908
0,075638953468046
0,091981582941952
0,0775991206774641
0,0920432616806395
0,102068940736568
0,0849786121674275
0,0990945816464343
0,0968208444221843
0,0921451606465554
0,102110797352576
0,112345687415333
0,0924601903099722
0,122828805270723
0,0809823250276753
0,100636388590124
0,0826271212177691
0,117419373253764
0,126515387007156
0,105314615035908
0,144111787735664
0,104876301735072
0,102596503185347
0,099765499604446
0,09745385847567
0,0955684522170525
0,105546086028186
0,102907221237088
0,102940055677614
0,101929038591244
0,111068812039916
0,105000519581583
0,100213458327174
0,11824549413106
0,104048876525378
0,106795546676313
0,109384012165471
0,113843714590351
0,113162818483071
0,152714131739832
0,162283756003708
0,143733388662637
0,152562933355388
0,120426345716683
0,12963936672327
0,125407649531974
0,122254039616974
0,1142615603776
0,144252108087953
0,123196438979762
0,119035128144792
0,123538615317518
0,119432000590609
0,117101846866015
0,122914952319982
0,138412840867505
0,142212946986575
0,144511013899019
0,128483084125181
0,127482475512673
0,139752616034459
0,139133448025078
0,1489920804623
0,14048134482315
0,144404447380925
0,158805659049535
0,145894992846351
0,136429801763142
0,146757521851549
0,149153447502621
0,136095176229823
0,143175059627034
0,145444793298226
0,151287721351583
0,151134326585422
0,145414346581764
0,136011661320318
0,155410262676866
0,139137646829817
0,146149932279498
0,141538674757176
0,158442660769789
0,168762234245041
0,16075905157561
0,169815015808424
0,160053728799036
0,165471651159455
0,176060451175968
0,172646152969184
0,158786329251194
0,14441824371444
0,166403984443392
0,172727354901197
0,175704108557816
0,162795214894093
0,157555061847033
0,163750315694596
0,170755986846943
0,167972627536591
0,176920587377883
0,174792638937428
0,185948355515143
0,180401189503997
0,176324845791996
0,178922338562543
0,192107224330701
0,188180838190284
0,192743472736209
0,185857850660903
0,188673630078414
0,194190519904266
0,195933721575536
0,197555766471381
0,192610753600253
0,19467491551827
0,198824477277682
0,198507469594621
0,200028952352442
0,187093097270059
0,197608200493524
0,191960167393819
0,206670605503988
0,200354297664789
0,207159286134198
0,197272450920654
0,210430547775292
0,207537803996811
0,216464360542714
0,213804088864649
0,217551219408427
0,214159118820473
0,215621518694901
0,221246461781547
0,21301740017549
0,208526945505152
0,219643922901165
0,219244288231602
0,213013514078989
0,216588355212808
0,23278791426052
0,225360588824383
0,22384138718448
0,239063770564954
0,229334215951848
0,214505649197261
0,224977862519792
0,227844087681933
0,230325179579282
0,219909071250113
0,244378298925917
0,239711771153598
0,241510047587439
0,240418673193884
0,24093076670511
0,238399349435231
0,242941569787329
0,236312403024751
0,236431603500888
0,234434714248222
0,24713987252814
0,229324867952321
0,237301442195022
0,248921931102116
0,2494888371638
0,240427445109759
0,240134534825819
0,243940610126931
0,253276090706168
0,257335952914
0,263595355741581
0,262406369173335
0,271526930423051
0,260180206582551
0,260908178955229
0,257003423259561
0,26110876735507
0,250053266404179
0,243162392029178
0,262282010804557
0,259925012664066
0,24958174229082
0,261514632810047
0,254907980846168
0,269976196251733
0,268409636362373
0,271974727615229
0,261873785635009
0,26938338300221
0,278282478489424
0,280065866731654
0,272147122483622
0,27908172602874
0,276164126381232
0,269951036069594
0,275271938492198
0,2796984323519
0,277701994957571
0,284915095713269
0,268153758858871
0,284596963374055
0,285960244640193
0,270187793352525
0,269575762108561
0,285945466067123
0,282678069213526
0,294322823287831
0,275509110952772
0,275048229127408
0,281616443910106
0,281233790707914
0,27584610318332
0,286213368159129
0,276704622693943
0,292313334682144
0,278545818259155
0,296273148855636
0,292796323127642
0,288652998611585
0,276355876354797
0,295344895228823
0,288200960900535
0,296026399479003
0,293780755970973
0,290669463867951
0,290027748270329
0,298790696149712
0,296316200673343
0,301282433364333
0,293513986604061
0,289438121334344
0,290101828995713
0,298665272745526
0,30002646777325
0,30897193277415
0,305083989481413
0,315102992888338
0,309299444504153
0,303597691909032
0,305770810887615
0,311163018407648
0,289728825582098
0,299930490166981
0,314062229275798
0,309531317060914
0,301152471027752
0,308767555932462
0,296973449805851
0,305352189060637
0,302768108300327
0,3006926415615
0,304395577619131
0,301478638313306
0,296320830438667
0,301984727268765
0,296239954253569
0,314696728211962
0,303994421277005
0,307531156740854
0,306255373776719
0,311760764161573
0,300505831468616
0,319469646925874
0,303394853259917
0,311564372350132
0,313605222083908
0,302879023387955
0,297891332885342
0,306598043511606
0,300797412642755
0,306981519187706
0,292433928194855
0,30449323718282
0,302573919709442
0,312427222317751
0,310254980473856
0,312009024224109
0,309715731640044
0,309344874051237
0,304026505765706
0,305566006063954
0,298364209782226
0,308586983442914
0,303201154154676
0,311957145628245
0,306273676081105
0,30883708512749
0,303332958188051
0,303348474666204
0,310133410958258
0,307838289923283
0,302113537012655
0,31903728467002
0,296844758303668
0,309530493732124
0,306094991895558
0,307735495480411
0,303396329932294
0,305925052738262
0,301176526634191
0,296467105284151
0,304708978790687
0,316542113835582
0,300991107573204
0,297370943653508
0,304280729279288
0,311446508083794
0,295647397701941
0,303531908693585
0,304691776764098
0,3075064904881
0,297252253334813
0,306996888214326
0,3052131083188
0,307140980032161
0,301315603198199
0,29839656404507
0,296453366922774
0,306763398870928
0,298302434923251
0,30482689717135
0,29825515320311
0,299769209078591
0,290169845144333
0,296140835874195
0,299760118931467
0,289965125224171
0,284027854409783
0,300885480059975
0,288403860031826
0,294540556583875
0,289646087048515
0,298553475682097
0,29786804092467
0,291259431061548
0,286066478647988
0,298903641805636
0,281948233891607
0,2903993949826
0,293651237031996
0,296479394438842
0,281987106486046
0,285081143511639
0,286070194226772
0,288762293514578
0,284096157231128
0,291897356107405
0,284550072982219
0,290677955453749
0,282109409456066
0,287876329975566
0,2793823231842
0,281330117784047
0,279372114717624
0,288120130537919
0,289252800799687
0,290455164417926
0,283085029806661
0,277447827415164
0,263936857560368
0,278109743005546
0,275027836603159
0,281836107896221
0,269788198128284
0,278587363496766
0,280303274746948
0,279300211754481
0,270416129553877
0,272346185120119
0,271592630763653
0,274355766826563
0,270652738931541
0,279131992372585
0,265495684651362
0,268667434034711
0,265061425659242
0,262128264362494
0,26397852181868
0,272686280732909
0,262247080915478
0,25912829987761
0,259116905844996
0,271612746827325
0,255559572111473
0,261294793483737
0,258712197660134
0,257097771145925
0,261465806569227
0,259793254226144
0,247840817160708
0,255845904464035
0,253542677851214
0,262793882023491
0,256102910629264
0,256721424135374
0,250474048063879
0,253360700205877
0,241794630752291
0,255130580466695
0,249294232658995
0,251662264035984
0,255218102522886
0,255948791460603
0,240372596712255
0,245193083939432
0,240271804486878
0,246881459409094
0,235590588855619
0,250225249384719
0,246295332106605
0,242874570539158
0,232155549516661
0,241189022938216
0,234554452263551
0,236604034694949
0,235227047465191
0,243208673946412
0,231790908283202
0,235746096112744
0,228942970803812
0,23676038130492
0,230278315519676
0,233099399632337
0,222505649930652
0,232524224078635
0,22713879435323
0,221416667123505
0,221545399660555
0,226126169289584
0,218359633118037
0,22316970086776
0,217341097372437
0,22310974186814
0,218035718392489
0,223354617381699
0,211859793386099
0,222001840688944
0,214206667454039
0,212972152971929
0,219450251213576
0,219860994246861
0,210516262702124
0,214430852348114
0,208946368203488
0,208440457275269
0,198108484321044
0,206266350074188
0,204201280755047
0,203397992218181
0,207090378913008
0,205684553922085
0,198528650886208
0,204446519121385
0,194729460291501
0,205091294032559
0,197060508463133
0,199657763896708
0,191641076702903
0,195533307391363
0,195232605897623
0,198581534079938
0,18784193321575
0,190744919354428
0,181305548127457
0,195340016571173
0,184726237172157
0,193883648340637
0,184162188486033
0,193885316514581
0,186048171946763
0,192062390621897
0,179178353094024
0,185494832549742
0,181119491965042
0,183776654103324
0,176907949971066
0,182571178058208
0,175604975096532
0,178839299460521
0,172195117348531
0,182333788613159
0,172888279990402
0,171812197045547
0,167875791081383
0,169767242213583
0,16880643188268
0,175102298089618
0,169325915447199
0,170359752734338
0,166026635752673
0,172729509091978
0,164454450993153
0,171188453560077
0,161638776992092
0,168798580047941
0,160360615971983
0,16285974628437
0,160679944313083
0,16023212604447
0,15402188803861
0,165814839959055
0,153570265813121
0,154313917008304
0,147819126079443
0,157588441999584
0,154119683210377
0,154177163658927
0,155904810829074
0,158307542013356
0,147159094420649
0,14731656888479
0,148233520820318
0,146682961010112
0,144072713012053
0,151449559555444
0,144838182285683
0,148028797470339
0,139702232275501
0,146593301214861
0,143084548642202
0,144756845497376
0,13832735116418
0,140693483277924
0,136169910453406
0,140440750375211
0,134777992150657
0,137427609308639
0,137948975612969
0,14382765267854
0,133598151664798
0,135647525721131
0,134974772072307
0,137881377844066
0,128552545710551
0,138309419462834
0,126620650337875
0,137439740851756
0,127976269744253
0,13230795855434
0,127297965253461
0,132547756732174
0,129377320041061
0,132001715603773
0,124054634317304
0,130515067178611
0,123946061740094
0,132143103701368
0,125861256018599
0,128828194791588
0,124176565719676
0,12860933908609
0,119469592056817
0,124407835383097
0,118747563113684
0,118568486102566
0,118180572269051
0,12890867631507
0,120158934880421
0,115487794654337
0,112962565014984
0,118338302741518
0,117060007370373
0,117040152078895
0,111470313487566
0,117612227254772
0,110179783476562
0,116105224483121
0,111712955035235
0,111876758742461
0,111155286999976
0,108839741728281
0,104166375027618
0,114353479120241
0,107886289619969
0,109634665564816
0,108337335272145
0,102784652470967
0,102253610336602
0,113158096403651
0,103277108490148
0,10730256389135
0,103222322088282
0,107650768093794
0,105539451506858
0,105169419327865
0,103853925806117
0,107912919862198
0,0988609467788444
0,107931370046937
0,0995493740420759
0,107350155245533
0,097263270934206
0,104474281695771
0,0970927709279086
0,106747290497921
0,0979104692267747
0,105612576427661
0,0989635927302475
0,101225943962928
0,0941757674961919
0,0994899173350351
0,0971525047848997
0,100837392312385
0,0937966723716143
0,0955820082383837
0,091375788037136
0,0975602390174273
0,0918687307525165
0,097431239544855
0,0946594126437746
0,0927694856006247
0,091403079339405
0,0936783574801264
0,0923352031871126
0,0953022732076435
0,0909259964680137
0,0920765151073202
0,0844026991113979
0,0906412404114157
0,0916905077990727
0,0906960057287325
0,0875070406154987
0,0890412681931926
0,0816899475359521
0,0867915697586743
0,0867118939758584
0,0895742258469802
0,0848957880880429
0,0849784496674527
0,0829036905001673
0,0875799937143975
0,0823064576385768
0,0875239863787669
0,0803708927461392
0,0862960012581256
0,0832618850370371
0,0824777409763285
0,0842958617226768
0,0868013260742539
0,0839953307761872
0,0889647728179655
0,0798715054135693
0,0803582261362495
0,0820070629231779
0,0860314254197881
0,0841514773410904
0,0851574292228492
0,0797106089082417
0,0877966693153368
0,0855646555782951
0,0834472159890842
0,0795882788368923
0,0840300327859451
0,0809631193787021
0,0850077270371689
0,0785599763386079
0,0838758058566158
0,0811702687986119
0,0871404472658069
0,0795763940791085
0,0833662896938401
0,0809670643901765
0,087167087591644
0,0818042553572625
0,087656305966174
0,0822180259276035
0,0890825366076237
0,0821818240005649
0,0869538462862699
0,084584792203817
0,0888709020372631
0,0846445987777518
0,0886929526734834
0,0876863673510789
0,0870839278605025
0,0823100302585139
0,0881173851582307
0,0866110708623042
0,0916283411366635
0,0831310196893018
0,0909081683998736
0,0896962883192068
0,0920479793559772
0,0881888633434451
0,0929225097088982
0,0912991991138088
0,0914555308341816
0,0910468975761742
0,0946755747748659
0,0932483655411214
0,099861139726233
0,0923744698029832
0,0979231869052585
0,0989192102248568
0,0985366111775907
0,0966438927486443
0,100512657975431
0,0983065779308984
0,0994503629568287
0,0945276892222559
0,101012179487877
0,0975122712269178
0,106253485425399
0,0948082277745969
0,104969991622813
0,105354035392736
0,108712401979961
0,104204155143463
0,10818503967461
0,106964495119912
0,112895496621633
0,111124366984668
0,112175807335856
0,110956733916113
0,115410456988175
0,108610266198834
0,118295564335318
0,113782965085712
0,120113795060115
0,117166939216896
0,123308009500926
0,113681693009417
0,121496290424898
0,115856411591771
0,122465242908448
0,118708283071214
0,118309263206439
0,117702701647734
0,124921418298636
0,120192912721546
0,125496224185611
0,117146316219605
0,126076083144556
0,123659849651494
0,121912839070793
0,117870219853228
0,120081799199639
0,113428942549743
0,122596958109442
0,11299691988152
0,120791480776475
0,115038554102111
0,118227510181767
0,110164872004045
0,116888639384435
0,110296269135679
0,117344916959297
0,11488929884226
0,115360794395918
0,113310401232243
0,116319881329918
0,113080033157848
0,115368956753412
0,111669293201265
0,115086736159957
0,11241702602505
0,119419689932724
0,110884525772382
0,114628907505695
0,113159086264178
0,117743659023164
0,113387561800301
0,115167400280241
0,105341110524259
0,115072573576815
0,11217069452777
0,116092231054403
0,112887229110423
0,112433797125461
0,110551634321342
0,113436860573406
0,109265897615962
0,116814968101208
0,107719142539458
0,113638492999575
0,110535544045668
0,115678829180749
0,110048126751231
0,113724037465214
0,110346369502111
0,112070206246481
0,109491892647801
0,106708528170686
0,105008148182108
0,107570383410835
0,104528682318345
0,107084086798008
0,099742276351806
0,105092204784167
0,101566553711611
0,102979907936105
0,0987573159431722
0,107737720974025
0,0951577245053996
0,102141526110141
0,094664665020214
0,0990939199420592
0,0922784399726266
0,0974786769618593
0,090759882804993
0,0950351381551554
0,0931347392799176
0,0951802303090333
0,0927786740473131
0,0892632042858672
0,085753300929036
0,0915234268959058
0,086142707848399
0,0926550044749019
0,0878808021598346
0,087374669072236
0,0875136361488402
0,083998095043898
0,0784059598456824
0,0911438816418737
0,0858566079498337
0,0808099389833199
0,0813899685589936
0,0860883491816254
0,0823770769743358
0,0832542033190964
0,0797016659791638
0,0841646960874924
0,080092806780635
0,0834184488187528
0,0777367927380416
0,0807468623993984
0,0770869688988585
0,0786109029310155
0,0771806394531931
0,0800745494918285
0,0748069245684923
0,0779672901938207
0,0782685586559248
0,0760468005605889
0,070505040239157
0,0822874209063958
0,0747387966609366
0,0834617518703571
0,0748255663380408
0,0750854344344717
0,0759228358772504
0,0782653994022091
0,0723631215022307
0,0751902768686792
0,0761197463650201
0,0753101017297499
0,0746035616070941
0,0743128610862073
0,0692415584372068
0,074797128101729
0,0704150285153165
0,0728265854567268
0,0725680311225988
0,0749645272179404
0,0679696074976749
0,0694088855601492
0,0674000737715436
0,0673544228776159
0,0630535889618585
0,0678348742872068
0,0687647326025446
0,070992437138657
0,0673422635423244
0,0704097698307141
0,0679839590818545
0,0667384464106594
0,063065092464626
0,0662376998098966
0,063157975603842
0,0655620486396617
0,0650109985527086
0,0646465238374006
0,0644581754179018
0,068183199547368
0,0643926566221077
0,0697308290933006
0,0625904020141255
0,0641361277160912
0,0623961693000107
0,068516162691711
0,062291740470943
0,063238427516473
0,0613605760676518
0,0644325503362503
0,0639298632194027
0,0689037711023623
0,063071917354442
0,0644686734547621
0,0619697679295221
0,0664504015969225
0,0629230835951984
0,0628312470655916
0,0607076971035496
0,069788877578795
0,0611722650246593
0,0634555949619444
0,063710971337172
0,0647632794734224
0,0629206282004211
0,0663506326827977
0,0615499868926974
0,0654207861554925
0,0644845569135403
0,0612807361381453
0,0623295017646627
0,0667845118923313
0,0620675810661309
0,0633099827781936
0,0590294581745994
0,0611760446278883
0,0580128891046285
0,0652854618685198
0,0582062746199857
0,0639629060786984
0,0564636297657575
0,0595988712148585
0,0593032437273453
0,0609597079079672
0,0529334628433243
0,0567573344553438
0,055669822576575
0,0610201432905637
0,057483507319121
0,0584770231992022
0,0590624569311399
0,0600349322791868
0,0583974300869557
0,0592806857128961
0,0540489699499028
0,0605443408345917
0,0578566165028831
0,056904651534687
0,0562120373845636
0,0575418219307863
0,0574270578198062
0,0557810149296418
0,0563210129540439
0,0586698113113799
0,0515665894825786
0,0597539372146761
0,0517461690933943
0,0590508263561259
0,0581356281995526
0,0562369000801139
0,0547342558441761
0,060645465660591
0,0568228963071392
0,0602257361483362
0,0556368024180186
0,0578622562114861
0,0575538122692275
0,0584842806307614
0,0537333092411113
0,0633175823713921
0,0573692161832245
0,0543691460900034
0,05573733263225
0,0596841209868733
0,056923591753716
0,0597770314731042
0,0586740307123407
0,0552874627441425
0,0533097311965145
0,0572725821298369
0,0578550528701801
0,0598052487387287
0,0526651597256854
0,0550766177771259
0,0543039265814189
0,0527017657666549
0,0562677951065986
0,0551585202372675
0,0555881380882127
0,0547849027602444
0,0548462770084932
0,053747289517654
0,0537821316964883
0,0541099705842112
0,0520905834392215
0,0550995737753142
0,0505173831885115
0,0544919416566731
0,0491401471124531
0,0535679875474136
0,0550614339127045
0,0539458852138917
0,0554610789906046
0,0539878735558329
0,0512536126930268
0,0495401026700549
0,0488617768274599
0,0527137447128555
0,0483869721548369
0,0505643425299154
0,0495225909501236
0,0528003627979836
0,0490049726255458
0,0513498623636823
0,0514106940826611
0,0499835899664751
0,049680532954842
0,0487041464275969
0,0504187149008511
0,0515015259986437
0,0516610149362751
0,0535251394043338
0,0493046760126197
0,0506206452260222
0,0508548908351373
0,0535353989346731
0,0476033965257246
0,0505255663291041
0,0478125786565291
0,0515551863758602
0,0508224632232933
0,0494735909457263
0,0470657540281174
0,0547530072344816
0,0494668339255352
0,0527992472113872
0,0491200628171636
0,0517876827251483
0,0444398060928069
0,0471093588357289
0,0457780876363296
0,0463251992827637
0,0509184029939578
0,0501460878162603
0,0467250013965374
0,0488597065682773
0,0458069686537303
0,0490682810051008
0,0466258046033248
0,0471968674723225
0,0443283645525645
0,0490759633123139
0,0465186975080166
0,0464995148513973
0,0449200886752144
0,0460883588498348
0,0431589875581984
0,0490543855711471
0,0449846154449057
0,0466000726256599
0,046165204709649
0,0449851316264925
0,0410596024064701
0,0433442659377973
0,0438746499303509
0,0459886706745771
0,0407083437158207
0,0451242967159847
0,0442366099562716
0,042662770562557
0,0435807323170445
0,0408573459615848
0,0425831886707363
0,0454553958501346
0,0424719839476035
0,0439635737099701
0,0403382167465109
0,0424353779585914
0,0385897696491395
0,0404853913258624
0,0413948699700877
0,0437405723504806
0,0416851344907076
0,0434917602701778
0,043586193713458
0,0426089900467633
0,0380723567462622
0,0432187973445832
0,0441149421176413
0,0424815439433362
0,0407443526994597
0,0423888895457353
0,0396373493447311
0,0448011395962944
0,0435256919217256
0,0423162055793621
0,0411080704145708
0,0436183602717614
0,0405898243250432
0,0407513965923157
0,0385769452356937
0,0415922906676172
0,0393232478642911
0,0404603786353948
0,0408342950312947
0,0437191719467899
0,039222688665919
0,0401423192593426
0,0392919544912605
0,0402483232366684
0,0419505380072975
0,0425322598916381
0,0402978537098376
0,0422462292238298
0,0392166872998157
0,0378346958069321
0,0416976953850004
0,0413526542190924
0,0403542340273703
0,0392098239075898
0,0360285523125703
0,0359469930752608
0,035705267421266
0,0386149694265722
0,0338746347170041
0,0354518190478583
0,0381752836182675
0,0410610661464575
0,0379188714776767
0,0387062590612347
0,037122931307804
0,0376461630196435
0,0366739601850263
0,0363865418164454
0,0380335192955238
0,0398416142741264
0,0402896726966382
0,0356123852688486
0,0367000219866022
0,0396311500968595
0,0363875704983944
0,0382882046745815
0,0363958036825801
0,03629683349667
0,0375561845553839
0,0389577127189451
0,0364519824182118
0,039172088936373
0,0375081662867646
0,0385538504581732
0,0396259801518151
0,0372203642787812
0,0378277247896184
0,0397464775487198
0,0386783480366825
0,0391297398501733
0,0377824454517769
0,0396872444824481
0,0366551994615944
0,0402538961202172
0,0376017613725394
0,0366055998046887
0,0380851365918102
0,0375817104728369
0,0378987470615673
0,0363807107794128
0,0385782459310296
0,0365230460386074
0,0379358315331556
0,0361584557551673
0,0354033046538813
0,0363208148553215
0,0350942310915848
0,0361031864984899
0,0365440397080435
0,0354873100508595
0,0324374606338697
0,0368849261494487
0,0361375921004211
0,0363432332076791
0,0369981190498993
0,0368230245856775
0,0354654278066646
0,0368123901782498
0,0334667675132816
0,0346764588948168
0,034501328553562
0,0323126711070484
0,0341782365546061
0,0316464803359933
0,0339532685804599
0,0328155111485657
0,0310553438542559
0,0350451293603585
0,0326804743461592
0,0330426904524132
0,0337880184117646
0,0345492425172668
0,0343672514817602
0,0349129820882112
0,0351262878099026
0,0321980023587106
0,0335069939330991
0,0347173142881033
0,0319785724747592
0,036670930013583
0,0349826058984097
0,0353469859865661
0,0348083015628843
0,0347302493245466
0,0343096021009401
0,0334932426956986
0,0331289132164962
0,0342750326886557
0,0370178574177553
0,0340220188365816
0,0352931912985673
0,0344705125422864
0,0344880554784773
0,0329871626642229
0,0335500124806603
0,0363977048130117
0,0342303540469072
0,0331233913457299
0,0353603182066852
0,0332433255936981
0,0320810281649465
0,032300616511384
0,0319308819865655
0,0352973433296843
0,0331617420328496
0,0350839389181117
0,033289441892051
0,0306733169768395
0,0330620437953617
0,032322357047161
0,032323109974075
0,0325976236097952
0,0313141072376465
0,034876051620188
0,0333034857357878
0,0289246752483088
0,0319083128576507
0,0302123597966594
0,030366630052404
0,0321647339996123
0,0304943231792442
0,0327183038020836
0,0305451004654125
0,0288159406165955
0,0312890350262128
0,0319430227043733
0,0318092918710769
0,0275986812642106
0,0320212052699801
0,0318153554299288
0,0312481376206761
0,0310260706834419
0,0293935815592309
0,0304468999423794
0,0318903890663799
0,0282386244460743
0,0319040637441258
0,0307650535911051
0,0295843118459361
0,0291583789598266
0,0308162335553709
0,0330026660679823
0,0308421911193861
0,0325002874909698
0,0313730944332555
0,0305620319923321
0,0318583062568614
0,0313488459155477
0,0320602014174484
0,0305952775720486
0,0282278782206262
0,0294019529819395
0,0302492878837635
0,0306253283297694
0,0316188900785154
0,0289624221134147
0,0299422359246881
0,0287387051995181
0,0312190569370907
0,0298380151136121
0,0282811653339447
0,0298846910946645
0,0300365940299814
0,0290472555714779
0,0294062128714633
0,0298457545608556
0,0278321218582014
0,0273111325498857
0,0286265654861889
0,0274205437285156
0,0274193863053632
0,0257009329071574
0,0306952529631664
0,0294034903604499
0,0270287133490546
0,027196539592467
0,0301100555865912
0,0264207202412645
0,0259490177287161
0,0289603074325521
0,027861230726823
0,0248017393219939
0,0274089162060879
0,0265209332522871
0,0285357426638781
0,0257386009571788
0,0253117366221888
0,0229563588238344
0,0249625899708733
0,0260177747541765
0,0287705505436565
0,0277065688625748
0,0269726436780015
0,0245347593877157
0,0292036886057331
0,0256480216813249
0,0260485199898574
0,0275320512507936
0,0308362809868046
0,0263062358702282
0,0271812134788845
0,0263054513453242
0,0290359243198867
0,0283437271244385
0,0328357891689481
0,0298712761757623
0,0316815843256056
0,0294599306292762
0,0322848562080965
0,0303160298946479
0,0354960102013475
0,0339324694086154
0,0346415753361794
0,0327043644889197
0,0325166291289017
0,0251016744048384
0,0261826491670732
0,0253507632328556
0,0302525982792736
0,0320116506185169
0,0338120745253684
0,0144440140625244
0,0217146362354029
0,0279246532563267
0,036116129567315
0,0213755863134978
0,0320950305224851
0,0216205482651886
0,0249659684105842
0,0246706761601514
0,0288105582748572
0,0187102564172717
0,0247266656544561
0,0249074926454177
0,0284065685761533
0,0201815261003821
0,037058370839935
0,0275443038000972
0,0322839930910934
0,0198404323279349
0,0360948244148231
0,0163474218463913
0,036493153701082
0,0170775651636491
0,0342426581942652
0,0169854554898879
0,0339184746814939
0,0158039026527516
0,0366709603816499
0,018635885197424
0,040576690482286
0,0129019514438563
0,0321971950097941
0,00372886206895664
0,027710915732866
0,00887302061833707
0,0433474486992829
0,0175025666791019
0,0481224730233103
0,0112012795168999
0,0283253149343063
0,0175659930672846
0,0424297157439423
0,0228818070287808
0,0300950991890847
0,0184182710983829
0,0362553558278776
0,0345597285381816
0,024902938699385
0,0352858916625054
0,0221232542114718
0,0540610472494238
0,00670808225780024
0,0480598831878035
0,0114335186517167
0,0540900236141532
0,00811679558888046
0,0558723154720792
0,012134316498272
0,0456738846892038
0,0186351552937878
0,0363538097522175
0,0228739929484083
0,0297954086231971
0,0290490739676085
0,0265867454838213
0,0262389439737752
0,029563267474031
0,0263127496609083
0,0299933010335411
0,0244436020289169
0,0300306737152883
0,01937384817328
0,0292641410855988
0,0180521187260441
0,0275949628455933
0,0217633890467376
0,0261377480078037
0,0197777522668999
0,024407697604132
0,0178459220734672
0,0247118020820599
0,0234695646390714
0,0264329342210766
0,0211117695507026
0,0270513210094737
0,0200912819802923
0,0258797228554055
0,0202218841848687
0,0238485967197437
0,0206429022529129
0,0265900864713873
0,0220661043135097
0,025568533176406
0,0216131668480578
0,0259825258904224
0,0219287016758341
0,0249856806470818
0,0207168850955825
0,0275584810397706
0,0220620456704347
0,0242830321455184
0,0222281847560141
0,02397059002426
0,0196038016829343
0,0230026995474302
0,0219430524327739
0,0264900101665933
0,0225587224452697
0,0242677992175558
0,0210346581251707
0,0231261107115648
0,0215037420967223
0,0245453792030049
0,0192799540295402
0,0239078873236882
0,0221146589225011
0,0253342465378098
0,0213673684315073
0,0255777888222736
0,0204703046360834
0,0229207842500801
0,0212437416298746
0,0246319938828237
0,0197172809108717
0,0222285474886723
0,0226055171525468
0,0263651316778833
0,021308808779908
0,0226237050327291
0,0218151815391956
0,0221244251667547
0,0189020458958091
0,0248968959351908
0,0210314692361071
0,0201380515481542
0,0197439897679405
0,0217182927877667
0,0203341023207984
0,0224963901627707
0,0200103998479083
0,0208556252308441
0,0215273197554272
0,0241817046204545
0,0182389377879933
0,0212027263637238
0,0188876879915858
0,0216514029002389
0,0218987884422433
0,0215235674137349
0,0187528605350503
0,0243061284579277
0,0211759502085109
0,0220447850420135
0,023108122723146
0,0232636182374766
0,0206388104504716
0,0232802105146849
0,0213186672105347
0,0239906204940372
0,0200473269376001
0,0219305466142429
0,0228407812787337
0,0228798450665437
0,0204510543056989
0,0218180062457397
0,0212209588210741
0,0217714988315999
0,0201998162303657
0,0229969026135175
0,0238412060281773
0,0247718545846712
0,0224978920836549
0,0227737899165364
0,0189865671755323
0,0242589538885714
0,022064014774539
0,0219346131302779
0,0230594010835071
0,0250361567033294
0,0214803065919064
0,0225582834475109
0,0208959263644717
0,0231537876404265
0,0216150318874483
0,0235301484016795
0,0210550494595363
0,0226438740410826
0,0233207520082037
0,0231862384335377
0,0218009960733972
0,0225854390919881
0,0209424675902833
0,023575265780649
0,0228958010545099
0,0235740110061425
0,0206772270690215
0,0209644739647608
0,0188004931209806
0,0212937150295177
0,0202097808107609
0,0207837687817786
0,0206538174846712
0,0195630709301179
0,0218869168380625
0,0230605208696027
0,0192393602304611
0,0218719699541626
0,0216513853823127
0,0186898282748526
0,0196816526106284
0,0237388540926633
0,0207016752982075
0,0218814730364452
0,0219405406695704
0,0233612438583487
0,0220825149840921
0,0216840574944994
0,0220509539666847
0,0226118487685307
0,0204060258402175
0,020931272612569
0,0208467611079968
0,0211567645021603
0,0214205669114615
0,0235483867615928
0,0199979291890908
0,022559453983409
0,0244903436276459
0,0239720294146067
0,0223515974129634
0,0228381211107713
0,0220644169497506
0,0215040381846102
0,0230356105281793
0,0239761349896953
0,0220781039794164
0,0214831808277079
0,0207251753241487
0,0213210557031574
0,0206082667323856
0,0223736630401398
0,0199097514283042
0,0224212350935051
0,0216000995136816
0,021706718780112
0,0220488506223675
0,0222539519922531
0,0206240349387877
0,021063371009112
0,0196870786910728
0,0215282894300842
0,0212999545872918
0,0204431123598038
0,0199250979233036
0,0215403156586492
0,0194708986745134
0,0216333233962947
0,0229407940318335
0,0220219262009503
0,0201642325986572
0,0216193085605782
0,0197447651199341
0,0201713269950235
0,0212079262519191
0,0203322409720164
0,0204265190665275
0,0183820396120848
0,0183176093453089
0,0224950300628963
0,0222499487739597
0,0211914411096965
0,0226608998582724
0,0218932564065563
0,0204619793869339
0,0208369275780806
0,0210130707875895
0,0229818794093078
0,0207922085670497
0,0215702319921434
0,0205392264063458
0,0212433090785753
0,0227476686761804
0,0210736867803588
0,0207000113073055
0,0225564449511845
0,0201681544632111
0,0204284104637509
0,0205128648640624
0,0203267381361399
0,0218747514967277
0,0215040199992524
0,019832762856402
0,0215905213702338
0,0207926292057031
0,020766182198274
0,0208400690589329
0,0222737881425337
0,0207817262796584
0,0217505093426746
0,0224206609964085
0,0192663693469393
0,0213036458485023
0,0200416943334929
0,0179221873030795
0,0192590558524443
0,0187573232102751
0,0218798658450394
0,0220930274643028
0,0220290127479895
0,0202092484442843
0,0194938831004838
0,0198189013753167
0,0185990386421135
0,0185645454493092
0,0190858391314687
0,0192611970666192
0,0186665454083293
0,0184308759608322
0,0195159738466789
0,0200259420825243
0,0197720408171722
0,0198980746284592
0,0234654411075855
0,0233832345739848
0,0199757562169472
0,0188954308181408
0,0207837326902967
0,0207810846920842
0,0203603482663465
0,0206559768797275
0,0193011244334311
0,0193534148109108
0,0202006524159691
0,019753809106593
0,0193816967396176
0,0179733062757522
0,0180482584676466
0,0185578197501413
0,0183924833253626
0,0202281732954471
0,0175055216671491
0,0173118758574702
0,0216560122803517
0,0182095676870046
0,0176152206724852
0,0215515405584646
0,0214215676758618
0,0215814287120299
0,0247972166610878
0,0237093866857982
0,0179071245320917
0,019061413497069
0,020541585145982
0,0209858443084332
0,0214604658904782
0,0201599693312386
0,0202872786672095
0,018674481933759
0,0170201226754098
0,0202647600173963
0,0185638534460949
0,0188601722834931
0,0194155988742212
0,018539691845882
0,0183623371259711
0,0196890823001056
0,0197942359704234
0,0208560749928023
0,0193277087708443
0,0171808451624055
0,0171009389655567
0,017738684212663
0,0200522515579231
0,0214869494390345
0,0240490225500569
0,0222478244676971
0,0185755310438226
0,0182584232318514
0,0196921873602964
0,0179624258200421
0,0160148075645479
0,0194616487633066
0,0195464777948356
0,0178884185690226
0,0189477257275884
0,0164656917552684
0,0151534630179243
0,0183175377350366
0,0189870446060881
0,0167724773993725
0,0146224761057516
0,0179447703671923
0,0183669701552416
0,0177191700099949
0,0185492761115328
0,0189126524223537
0,0176638212337994
0,0156410376681548
0,0168140287065482
0,0164675346025762
0,0314412200558643
0,0344943428502092
0,0202209383094063
0,0181874935281979
0,0200630770619612
0,0215082131979746
0,0181301728456519
0,0156115152374614
0,0179220338572183
0,0177317559540375
0,0180076006928988
0,0190504361653977
0,0189192111166709
0,0198716094088432
0,0187537550857095
0,0177462503020011
0,0167794195990342
0,0180269329505041
0,0187207010225102
0,018822769199919
0,0178823764223593
0,0174279965984189
0,0162659424929081
0,0150305749548671
0,0169318388180728
0,0166476873900266
0,0184073962188027
0,027047769275356
0,0256338452531496
0,0206405681640083
0,020710360679248
0,017776200346491
0,0139611414900075
0,0194294696491091
0,0189466861530995
0,0163885497626077
0,0146129607117617
0,0176339235060262
0,0169765912275101
0,0164360356713911
0,0200172694783773
0,0169987326128911
0,0138435892417131
0,0170713292067616
0,0167090050245537
0,0148089258702325
0,0145759508705181
0,0168194985521395
0,0144325000466054
0,0184796065884391
0,0191176887343438
0,0218240074852334
0,0152188827300626
0,0284785046744505
0,035150888641401
0,023305729999493
0,0159504820681144
0,016845936031342
0,0171226637538494
0,0177467059601295
0,0140970735451514
0,0185185237102156
0,0172812410335589
0,0164107141462074
0,0192250132943414
0,016860448206872
0,015087860156859
0,0175700488337621
0,0168685810985661
0,016097862326268
0,0171123496004403
0,0185712746912625
0,0177661122391152
0,0164274022465326
0,0234606186967608
0,0359102279479276
0,0230068519284613
0,0213503882027712
0,0154118969854098
0,0194860857764844
0,0401161783530794
0,0300071270021439
0,0203339717681091
0,0190441028119002
0,0198116904973025
0,0169300415676335
0,0193788642435623
0,0138039991472618
0,0218623233758507
0,0250339687576818
0,0225830878369439
0,0198583862837846
0,0180421296326972
0,0160561617596415
0,0164371637580989
0,0166012580916795
0,0155574368971617
0,0159366626978414
0,0182503062955396
0,0161921040057522
0,0159457477588056
0,0163416030075312
0,0145395061348981
0,0123199001241537
0,0256295559126877
0,0235603095350817
0,0177871441637174
0,0168404971207116
0,0180552033006403
0,0102847196231343
0,0285230815960157
0,0313432502907184
0,0214469306987529
0,0151952264999837
0,0146491079062293
0,0195798128504975
0,0202188002359279
0,0167765023524406
0,01473539477179
0,0165548563204169
0,0151160967871857
0,0161070936382337
0,0164310711843245
0,0173713093491863
0,0129415480543779
0,0156910340214929
0,0167007324942653
0,0186128806027488
0,0130085396821324
0,016400291932863
0,0165357876958871
0,0201152342294773
0,0439274697500662
0,0448329609877145
0,0407556971441868
0,0314240269430529
0,0250798163059311
0,0164016603157388
0,0184510472519968
0,0149622428838176
0,0198370919341004
0,0158495875628045
0,015854481624747
0,0160841837485274
0,021101981907615
0,0148890870265957
0,0150683232659308
0,0143326452291881
0,0181677535921888
0,0131061033228932
0,0154546330428173
0,0138004662071607
0,0160600159444934
0,0131532197545045
0,014475692037349
0,0267150323908473
0,0263716629930889
0,0192039865014193
0,0178171304460648
0,0569224379097441
0,0381543461189745
0,031414122385783
0,0185236572662886
0,0212162289947794
0,0150589676039503
0,01698770796539
0,0152449132420391
0,0233565566034817
0,016589727824017
0,0169355904822746
0,0149305678088658
0,0202405679808476
0,0161054501503278
0,0149215544778338
0,0341086667718321
0,0546323950878847
0,0356084346324839
0,0242415935626675
0,00787138855356137
0,0409482165020888
0,0462117536194107
0,0248672724256698
0,0202234870594864
0,0199045126162525
0,0167096721257786
0,0163519592365879
0,0154644480267711
0,016789688343454
0,0255102246122532
0,01736038957939
0,0163717948411734
0,0138996417403072
0,0175537012806539
0,0209941046616737
0,0185417436620526
0,0320447823704991
0,0304885013188209
0,0192761023685017
0,0232536913379162
0,0215868099841212
0,0168799200024038
0,0179865876556962
0,017702100808743
0,0131591459822831
0,0344401506828575
0,0325528615109707
0,0283342293147108
0,0397668952615238
0,0310054966714447
0,0182817229593618
0,0232730179355214
0,032023140913302
0,0328503494531692
0,0107674214183579
0,0482572586872911
0,038983136726191
0,060154007017178
0,0329019468745587
0,0246556190219276
0,0165066515735637
0,0220327497938917
0,0116979926624625
0,0202049533255471
0,036837973071102
0,0212629548571939
0,0226740081782473
0,010722511483498
0,0380728798665011
0,0281461549353611
0,030731101992677
0,0203092345297146
0,0175928277885922
0,0158567175297723
0,0469189072617807
0,0150956203587484
0,0304696731706959
0,0523051260177267
0,060546875692389
0,0593185747440218
0,0200702836777969
0,029870641557058
0,0520808064175598
0,0285251856917708
0,0223923857890736
0,0146735631404377
0,0262893965565705
0,0102255532453912
0,038249213897646
0,0599443990329898
0,0305738002366499
0,0253696460117435
0,019988538313585
0,0259471002837632
0,0523676289307976
0,0327330112778952
0,0210895926478943
0,019804671689829
0,0238642974508386
0,0187386018866258
0,0869772845842171
0,0331606263785322
0,06275777586134
0,0424456145796029
0,0589357476646923
0,0298176870962518
0,0416383021525566
0,0204278264520395
0,053947365554073
0,0467994399986621
0,032994628759954
0,00897849917875447
0,0598211759065351
0,0383632503191757
0,0361831191261923
0,0260928195922615
0,0246217086810458
0,0211593364943134
0,0782016563279828
0,099024949693702
0,0712792708835513
0,0242568297822911
0,0393661382616582
0,053218330264914
0,0334293853329451
0,0233684947058182
0,017575011672713
0,0178760923371762
0,0168826516381208
0,0224241672936962
0,0363812738960297
0,021757979955231
0,0340874103930445
0,0147564127129528
0,0350160199380716
0,0459971854852141
0,110724366302075
0,0584991058572116
0,0534159310130101
0,0680256689275984
0,057631242116846
0,0437719241487902
0,0239524988926234
0,0256831560448139
0,03799411274766
0,0328526590579378
0,0250309450878551
0,0277179207556307
0,0668962289462905
0,0329083449014964
0,0752078314425145
0,0451883024562677
0,0475272794146581
0,0266494827159008
0,0720243782320914
0,183504531776571
0,0703491254164467
0,065186840018574
0,0374702452834865
0,0996489464936284
0,0886698822110616
0,0593713261068724
0,035930723919185
0,0391952677743705
0,0290903488281209
0,0475429215642318
0,0475153346352588
0,0557513301831365
0,0610929623502092
0,0469743015699228
0,0427045583886414
0,0826579479154302
0,133985565238771
0,146182651031048
0,0672336878302889
0,055387315446012
0,0698941742525148
0,0667541669113891
0,0432547589786362
0,0572086257813294
0,0285933117198849
0,0953257714987346
0,0792844470413855
0,0750157883703748
0,0416679687157235
0,072658101134435
0,0724265003846987
0,0596253022716375
0,12533199127897
0,0789591607445961
0,0836619943700516
0,0439247941943303
0,0674879009631905
0,0452210115340934
0,0647453642651233
0,0815391978663543
0,0795793965228329
0,0713771274786626
0,0598500684683538
0,06286604675108
0,0584513981506808
0,0672052196068333
0,0613368218971116
0,0753648469220848
0,111152939024806
0,119225120053786
0,297582251320872
0,0951508146757055
0,0970263500323236
0,0594943311580419
0,0952576939268643
0,110510316326293
0,10341615995425
0,140277745831474
0,100004340717055
0,080028806447254
0,0628197051623848
0,070165128618976
0,0638612538680245
0,0703536303918152
0,0645569350030969
0,0625012142754638
0,111687589563371
0,0612251839528159
0,167178203658525
0,102843535741249
0,0950486480740558
0,0592501250835892
0,0739352590655429
0,0558266397657155
0,0750904867960791
0,0429129313268745
0,0863223573355492
0,0699559897120135
0,0722038237958027
0,0576750542988236
0,0580301155402654
0,101086696335077
0,0884555261271226
0,0686196484488555
0,0632140236959677
0,0515322768428122
0,0637431120261339
0,0405984097199981
0,104582526905919
0,0913107620291243
0,0751801026309153
0,0495496983201481
0,0525969037113618
0,0503243106020559
0,053393599135506
0,0472484838673078
0,0688534316678274
0,0511084770088533
0,0589898093094474
0,0555164068880127
0,0522175694698304
0,0497793784614948
0,0523602681653434
0,0546765403786983
0,0502166187943527
0,056650851035606
0,050518051775228
0,0535222121742919
0,0471895787481279
0,0447510232741078
0,0544483498986902
0,0515919256879849
0,0582524542127072
0,0505775541816067
0,051361877786713
0,0525626642293224
0,048703289358894
0,0527303141047242
0,0507543405008471
0,0487374986178687
0,047765845602844
0,0489924677976599
0,0478597489997378
0,0513832190541885
0,0495471920006212
0,0508770519345318
0,0445901383122675
0,0507333785683599
0,0467920990974368
0,0548835705733776
0,0549873995068733
0,0527311816800288
0,135745402418999
0,0637653575087207
0,0684823249243441
0,0412941730583123
0,0623332044758006
0,0395111392770272
0,0566194613405146
0,105546998439874
0,0763809850388288
0,0582332327750999
0,0484395468221465
0,0430173834610948
0,0775279670940176
0,0496968071931615
0,0533143779918911
0,048242379804655
0,0410459831806319
0,127460908397558
0,0997776582227423
0,238603976563798
0,130794734790301
0,0933668861937823
0,0386886496666215
0,103987779237294
0,076357940538256
0,0595323024489456
0,0454327788988304
0,0421743674518116
0,118152944457157
0,0575748114808863
0,0581728702826985
0,0403931105059769
0,0476698997307077
0,0904230722511936
0,0930744559700745
0,0704240328283408
0,110612570725222
0,0864308711347255
0,0904203401905549
0,132203441855426
0,155253230785723
0,0911099648930143
0,0513510510205012
0,0579398959571698
0,0388965967858347
0,0817517232117011
0,110376582678634
0,0622300461091015
0,077844614996998
0,0360952671776604
0,0560920715621619
0,0453328509224752
0,0960684790935726
0,0486465823832239
0,0898252696959276
0,0871700539742797
0,0492752502520565
0,0782968052820807
0,0715059398097089
0,138853715803189
0,115309499888774
0,0689371930743793
0,0410120065430325
0,119995788592615
0,0904213607648749
0,0766600185899357
0,0708336241290795
0,033186373661203
0,0619332449723199
0,070808590663851
0,0480564781518607
0,0891687901428899
0,0717235338929361
0,116089809409089
0,12526700897727
0,157416365646703
0,116058816237865
0,0575471449838339
0,0451115249029867
0,0375640603962286
0,0483799874272037
0,0462688677552898
0,0331508778941095
0,105236665122366
0,0345672037740207
0,0711518133316376
0,0876646031094028
0,0551704125531562
0,0382305695341656
0,0409014223452583
0,0331506256137777
0,0565723108278681
0,0768556618801918
0,115229869044549
0,0547037903421608
0,0810995315698874
0,0639073071937315
0,056361740855213
0,0407771547841782
0,0482982729636126
0,0367269474259631
0,0496986448229326
0,060587655029271
0,052360852394069
0,0478274500002757
0,0556317191768753
0,035839111026323
0,11156784423496
0,0694077986655876
0,0622363255666461
0,102395644759433
0,0873719162001973
0,147725639214684
0,0699222537258599
0,0741817187855561
0,0561605490479965
0,0624745776296742
0,0706475304148169
0,0541203227396865
0,102095367447903
0,0942592504803531
0,072008327189968
0,0680858724188608
0,0663197000355362
0,0700014906209546
0,074955423066656
0,125026186962315
0,0884852787277272
0,201776983068045
0,107377531715515
0,131425360891457
0,0746729813381308
0,0777163787738069
0,0902295124624704
0,0846141693477366
0,0807902119602543
0,0677769303740934
0,0888549879662018
0,112031040363223
0,0790636927848964
0,0885903645843957
0,0725534382187922
0,082439109625649
0,0719948632400835
0,0783093053833144
0,0803233852413211
0,0803695435996984
0,0857737074251766
0,0733868201345278
0,0983602210970579
0,165701517179376
0,101443113430575
0,10269126165232
0,0787951576772579
0,10200786464484
0,0815145753847362
0,0946216925494632
0,108575426319416
0,0953672232571588
0,0940783523725858
0,0908244906209424
0,0868777325881004
0,0847118202188715
0,111850087442982
0,120364297170015
0,0842114967629386
0,111719232913309
0,0663753291365727
0,181606633793956
0,112382076591491
0,14220529401031
0,10842918383645
0,111326695693066
0,097049688269794
0,098310530450019
0,0908274060908031
0,100822817292104
0,101755164630484
0,0987974934273833
0,101250507181302
0,0900374805218751
0,0980409485319073
0,0875783301753573
0,103743491602413
0,126575591244605
0,094901265696203
0,0957731111321982
0,0902511386231249
0,0993025534531923
0,0894390753251491
0,135048819064803
0,107171148466971
0,112082046561791
0,0971935619936574
0,122571953487914
0,125282402450079
0,112608640033227
0,0884724983932734
0,0992287243526243
0,0817094524118624
0,10289152527577
0,0781835334035312
0,121520494644888
0,117881414232192
0,111403205506186
0,0931797676072002
0,0963430913899474
0,0881780074291491
0,0989629258399406
0,0905722615577074
0,0976362389459075
0,0952832015301351
0,0995788067101174
0,103224251326553
0,0948148353169013
0,101266792699169
0,112921476618763
0,126826331837523
0,120204403898714
0,0959100284515338
0,105061840474277
0,0917791973176727
0,105275304100783
0,105760998986837
0,10660323282202
0,0915268350620374
0,105487012686747
0,0855875182225781
0,110879969572244
0,135872834260554
0,104247268943213
0,118884838835904
0,0923281189465113
0,0961107807481432
0,0901244066305246
0,0951841345056611
0,0888540607162162
0,0904468006521241
0,0976097799264274
0,0897513221114224
0,0890992301678751
0,0893577167071021
0,0849008893756782
0,0870857521532975
0,0931508634562562
0,0865905240982149
0,0882824393976563
0,0857221149474741
0,0863093651241025
0,0810831014037305
0,085350050028746
0,0860232557835792
0,0863598422078215
0,107037524091563
0,10884321756009
0,1168893387827
0,0927215382228949
0,0968051170560591
0,0898771687927009
0,0856031997181027
0,0844580109317853
0,0803766881639315
0,0844149072483269
0,0831822143793004
0,0840364268055066
0,0808689114350136
0,0829037123030742
0,0802758756185812
0,0829918683486617
0,0788823325560646
0,0810475202572965
0,0769779609963268
0,0821124931091904
0,0767258490305509
0,0855925679554444
0,0771695494100415
0,0957822410208819
0,0804587691210598
0,087076040782782
0,0805389346484389
0,0805315817105277
0,0789851828817569
0,0789376124781031
0,0804732426329319
0,0783136948201029
0,0770198539698041
0,0784605440756573
0,0763600788179089
0,080828260065747
0,0754031879525463
0,0752987022974975
0,0750126813364577
0,076359789769936
0,0729665895500923
0,0747112913885782
0,071450655998259
0,0747629614897559
0,0706120451335804
0,0745386134496204
0,0677193873935544
0,0741483495516967
0,0693838939748596
0,0701507424261373
0,0683241464546545
0,0709785213028475
0,0649866145426813
0,0674273155398103
0,0643549349438244
0,0658254105538498
0,0690264207053622
0,0703583210796889
0,0650362431359489
0,0649035745174326
0,0641312856907507
0,0649623086218397
0,0628254020297557
0,0664587696623644
0,0662465150103373
0,0659867239464192
0,0618504735802729
0,0658443939576769
0,0629086329144007
0,066553717786068
0,0619824801187445
0,0665599656287925
0,0654213957218102
0,0683808420465301
0,0663272283896543
0,0677436326352224
0,0652839019832194
0,0675744194788524
0,0672537614622656
0,0682109960125273
0,0659430745751739
0,0672955557567104
0,0650224872546459
0,0651281026211898
0,0635273074036437
0,0668236102833402
0,0684629191081929
0,0669348586785866
0,065469953453718
0,0661846438600244
0,0671057097799663
0,0679870886784488
0,0649532107593975
0,0701422341742964
0,066467185225603
0,0673012543092591
0,0661173330992035
0,0684590551784779
0,0663085089120678
0,068057373986709
0,0633593746588756
0,0689358215853187
0,0662915685222447
0,0690422042029969
0,0673111606843203
0,0671685925583594
0,0656651986662011
0,0676984034447584
0,0673902513352423
0,0652906861314162
0,0640737887365652
0,0664746284710132
0,0650656985747551
0,0653659243613386
0,0620693044699369
0,0647806389237826
0,0621049281422716
0,0635453165092549
0,0626477814615884
0,064839515208123
0,0619487337879413
0,0603264378205644
0,0585796002487013
0,062703506379647
0,060627672531526
0,0591312968188027
0,0586711529535437
0,0586629874390224
0,0583362585202734
0,0585482075331631
0,0568250516380823
0,0578527960309313
0,0582358465259111
0,0583554299961484
0,0581890859111876
0,0584903870774586
0,0558553322511631
0,0577068550456681
0,0586365804128553
0,0572528881280918
0,0553428700810092
0,0568112601826432
0,0550199716978823
0,0545180303772349
0,0545858839568387
0,0576252198848065
0,0570976033540039
0,0573079080608103
0,0546100571964646
0,056604089037287
0,0567220300198856
0,0576569900181797
0,0552551849386145
0,0549290744276195
0,0536708728947057
0,0523190505512753
0,0519541741489029
0,0524981399846157
0,0512790554251588
0,0508114359516829
0,0489813586992435
0,0497693521529691
0,0488482128661216
0,0496062652375414
0,0477450167313092
0,0478492336599747
0,0472477738109554
0,0492675085085417
0,0487916834720393
0,050222770182285
0,048278223558322
0,0494342894488177
0,0510096343839622
0,0529228668358197
0,0544279823702113
0,0586063369092917
0,0597547999147106
0,0631160730917831
0,0652878184679852
0,0690847920128739
0,0708772033365574
0,0749318056417275
0,0778389449121036
0,0836649954333484
0,0841446834650035
0,0901989512592516
0,0928671228066188
0,0987524017675708
0,103627638560854
0,109529349476267
0,114255928161163
0,119080305619135
0,123324262534438
0,129949490079165
0,133706571219892
0,140827870897672
0,143477594053147
0,148293591966589
0,150449031989166
0,156887722742104
0,159796278508881
0,163394821163182
0,163202273164134
0,167300641296553
0,164676429032014
0,167373673718278
0,167154984007002
0,167487581376517
0,167139027028429
0,165618006387272
0,161805354605155
0,16540482299412
0,162270546465353
0,161285877226907
0,157251322353504
0,154312363849359
0,154369878612635
0,155044821763955
0,150740113501059
0,151517604225021
0,149509410053714
0,14875138399774
0,148621317958226
0,149147812849975
0,148942675762746
0,151039429920865
0,152435181455991
0,15296839435529
0,152364079850937
0,15562408627471
0,159300264998284
0,161244482899711
0,160048923029659
0,164815368584344
0,163703951890467
0,166841934693676
0,166693946657692
0,171135190956532
0,168523408254722
0,173128335093573
0,174997900824129
0,173796978261822
0,176896999119247
0,176571377308585
0,175128479757726
0,17884323513936
0,178570687396451
0,182503619529999
0,178302865702131
0,178920488224547
0,178932348711434
0,184206977603926
0,182659461505788
0,183851926494923
0,184580993918069
0,18993350558422
0,190429044183347
0,191683045606304
0,194084257019073
0,195280276575681
0,195524229067892
0,197530455268388
0,200138052779851
0,203537337543295
0,204118716899016
0,207638455911734
0,208428309738291
0,213841003665364
0,216186133013681
0,21838131847898
0,223047536984491
0,229005335929238
0,233936174853641
0,241371213053881
0,247258829001941
0,251860525362982
0,256483879155327
0,267585684517071
0,270294235974985
0,274823807690675
0,27912587321751
0,284423080622304
0,285302793804852
0,286023266353331
0,287884691203072
0,289911788781718
0,290697633165569
0,286596187256718
0,282559291442559
0,283356482407559
0,279309970207373
0,27741520576542
0,274805753105635
0,273364587633373
0,270082345645351
0,271121575895048
0,26802080817529
0,269919652425775
0,273333392724129
0,273928970560961
0,273601472069276
0,277262909589818
0,276468816919044
0,2822443246024
0,285734101806951
0,28840217562194
0,290706166190424
0,297695059844794
0,297782988636267
0,303552388799629
0,306750401436518
0,310377654575191
0,313021559230064
0,314966592110099
0,317994018344529
0,321300405667621
0,322974882278751
0,330732993003823
0,331554078691374
0,335375508696723
0,341768893734347
0,344602539226189
0,344999291475704
0,349630174489816
0,348792655468998
0,351391921857966
0,355597761409687
0,356264578777056
0,359022312108953
0,361655351102744
0,363520043687143
0,367918193769924
0,365533389792091
0,3717968527509
0,370239572445949
0,374070846568883
0,375405244969122
0,373562646780527
0,378717033985088
0,374195129377919
0,377443316044367
0,374184965398452
0,372063844047291
0,374861319143003
0,369760210780065
0,368257376567536
0,361403091166268
0,358319514653929
0,350843311627459
0,343709947862202
0,332806467325937
0,329257400714962
0,319715188874534
0,311117646828828
0,301890191214503
0,296391075608282
0,290338127340605
0,280499128403838
0,278128006148185
0,273933313296826
0,264757278112649
0,258835226890403
0,258838400263947
0,255472180381972
0,248999759954042
0,250454413141451
0,248582371884662
0,244053740993822
0,239277718088859
0,233747246945332
0,231937246127199
0,227578761019206
0,22420670527782
0,219090398321432
0,21181820819511
0,20296839602062
0,20081664606934
0,19676815495421
0,187465468762135
0,181855234605296
0,172125242352895
0,164340122457342
0,158559063667115
0,152311551361002
0,141346580747456
0,134561766168082
0,125586402937314
0,123601259277461
0,117316200033913
0,108868868572973
0,10355087299373
0,0997108180263075
0,0937421027913092
0,0895625086449632
0,0819454524689273
0,0778374193449382
0,0744361585857771
0,0721275126985099
0,0686014275553961
0,0673753771112534
0,0644673710689618
0,0615787548203862
0,0606270513729995
0,055961574005023
0,0542045584537955
0,0544922301607704
0,0529972198724055
0,0520120673985975
0,0520336224211654
0,0519056702473361
0,0499381858787819
0,0492067889919823
0,0444035478627491
0,0482868099435672
0,0484417904210193
0,0500871461245389
0,048106980743575
0,0499438285442908
0,0474829616290549
0,047090434795902
0,0501479888265608
0,0509298105622706
0,0506941809521265
0,0519977728309877
0,0519730733311909
0,0508534824117552
0,0543867135036039
0,056397411199221
0,0588048129274422
0,0572319183987672
0,0578262221643142
0,0593485813377487
0,0601488309144172
0,0642837471479727
0,0614963545016731
0,0609354935971598
0,0622318424687367
0,0595754922235542
0,0625175026480954
0,0621207097252165
0,0660679988906344
0,063514383799343
0,060939215750329
0,060693566952054
0,0611698381985637
0,0586086079068643
0,0642895572118849
0,0647538713150492
0,0681067873511595
0,0659297291286346
0,0619456468721447
0,0600624955666276
0,058851023584358
0,0604688218928229
0,0628659956121947
0,0574538407625263
0,0628092432510825
0,0592818069137601
0,0628128196236367
0,0600224835083154
0,0588992070976522
0,056656153251849
0,0545598816634588
0,0585854330297314
0,05640871174581
0,0595329090205691
0,0580583521167584
0,050782929805354
0,0537993533525622
0,056953646123705
0,060226398943372
0,0586728819670769
0,0596509531631476
0,0572561821413928
0,0635777701203927
0,05917604128146
0,0622108676804651
0,0622978292571328
0,0629667733010152
0,0634921882821629
0,0625090422166702
0,0617252303228826
0,0611940311584041
0,0622425618855152
0,0617485622904668
0,0565178317841398
0,0508379272358344
0,0545811730341004
0,0579915681544907
0,0539428655235566
0,0551742328075314
0,0461965755474107
0,0517902802987787
0,0485191230895928
0,050856440450683
0,0504691046085772
0,0586871639438139
0,0515048615415434
0,0500436695463777
0,0547909543728465
0,0516854863670548
0,0569225006008138
0,0517512251312103
0,0516069667554064
0,0589683309198407
0,0555563126935627
0,0591814370608557
0,0556909582065645
0,0538882162783704
0,0588231075829731
0,0613752209853164
0,0559534860375357
0,0565887584112478
0,0538416927320287
0,0584571962038182
0,0598874698638798
0,0623447513090563
0,0533546045275466
0,0575882756595663
0,0574069639024971
0,0626225181832581
0,0678873583689373
0,0579742522933889
0,0533157248974912
0,0587159516135669
0,054709393902399
0,0604740229577924
0,0562516311487733
0,0632685270911057
0,0610582772905571
0,0597920561855117
0,0557885448966922
0,0523487448443182
0,0587905685822746
0,0541360538099551
0,0559509586547901
0,0552855037680658
0,0551794629985078
0,0562794029622527
0,0517763980307814
0,05369447128732
0,0437699647749618
0,0561045065059013
0,0499847961154534
0,0512033543167353
0,0433191675313572
0,0561036958411046
0,0460804309144221
0,0490081028145921
0,0490255810629451
0,0456477558372357
0,0516203064570357
0,0531441843239954
0,0364668231546058
0,0503024037857871
0,0464524829447866
0,0480453572585707
0,0395603285330057
0,0481100206596893
0,0480193601160607
0,058450445043732
0,0489771344889166
0,0434986142394635
0,0497611436933155
0,0507181263282484
0,0393063699381104
0,0490875615163942
0,0472132857335141
0,0523434802817926
0,0529347681571778
0,0610645919284834
0,0492720510868821
0,051441752874382
0,0541266905962912
0,0538045195614189
0,0534180580033296
0,0635448979161907
0,0616245785829136
0,054079500239661
0,0700195652464604
0,0625348869831861
0,0582644923431512
0,0663664939085856
0,0637531521958493
0,0764229161284217
0,0683834024383821
0,0721157237205212
0,0753486419585156
0,0754517670806539
0,0634854794878672
0,0740081377959139
0,0759086376616611
0,0889942387028173
0,0751291143147288
0,0823613735762301
0,0754486858601104
0,0808682115974935
0,0780090589791384
0,0981797491830805
0,0769286948415861
0,090249409777906
0,0759567460419607
0,0696932315052167
0,0766332156097506
0,0772525368407825
0,0849760588491206
0,098609525545697
0,0802315826545248
0,0740691343773708
0,0726517309809277
0,0941301969111096
0,0798432316992658
0,0781887502296809
0,0817769002098544
0,0827457438127375
0,0945801425287198
0,0885459548769214
0,0871504181282443
0,0908882968448486
0,0903488385183982
0,0764509645111693
0,0841133623970439
0,0911776042814089
0,0761174263440835
0,100039503662834
0,0776342602192789
0,0986429019243511
0,0817988634105483
0,0989299495285456
0,0805692601897523
0,0808829828764539
0,0982534125898658
0,0762636453251517
0,0722591435324658
0,0777377082471268
0,0963744021282916
0,0849732636455602
0,0586623371112031
0,0854310170105826
0,0735461761113923
0,091904084309438
0,0925464880567794
0,0926519269438408
0,0550339624329015
0,083399209993048
0,0793372378552215
0,0953659172248661
0,0691698113763256
0,084593632514523
0,0925462717635924
0,0787825364887045
0,0622008821867968
0,077483187897713
0,0859434233074134
0,10847108885877
0,0690958090111792
0,0979309878156818
0,0977314071580579
0,0945449742433702
0,0814468283586854
0,058729566718521
0,0948701571610695
0,0858227306323354
0,0910661988719499
0,115150664922882
0,0788924558046409
0,120524385829704
0,0859740685398548
0,0535463142476118
0,0881462685927073
0,0825484024187328
0,0911268142241104
0,107527327148958
0,122907845412008
0,144267124483039
0,120911303795621
0,114113262152704
0,112029969703318
0,116209653775704
0,119931229528509
0,12913199916787
0,123415949525657
0,118824304726692
0,104664476878328
0,130766916692245
0,0983324919452215
0,0993443124073767
0,131409513610824
0,107891862835319
0,112877759807091
0,131687836499631
0,137856115152856
0,107454414803363
0,101305529138269
0,103969157089906
0,0796920261246608
0,12943439780922
0,147622204473601
0,133194791539715
0,116497825391502
0,0938180795638682
0,121078345551513
0,172765988230205
0,116535704661743
0,134104409070658
0,143024617942778
0,182906240991253
0,127064397656829
0,0942888435887505
0,0826699603854106
0,126913558512288
0,0843797921517607
0,0987436806079971
0,116413963714319
0,0862985090518598
0,135709211882518
0,100357106819116
0,0789563543311796
0,147032601532553
0,0863133314952159
0,123765706232877
0,117787232112763
0,0417071079666876
0,0700601073091131
0,105565464449998
0,0734218983093156
0,22774931954462
0,129653801916399
0,148015858748755
0,0894346203789658
0,158284126019225
0,0183995077520812
0,0913404148355272
0,187894344084017
-0,0327386184443814
0,0703137844456322
0,180469649108579
0,241543628758354
0,098932051721797
0,0614744042634809
-0,140631485450081
0,0410425097746888
