3596
4000,36533379555
650,420452594757
1
2
2
0,0295586482447421
0,0242332928367433
0,0269584791510996
0,0205785151848416
0,0298635229829284
0,0216836502016788
0,0259123583946751
0,0192688812942745
0,0261088522566278
0,0196694855844634
0,0307239464864785
0,0178262600472951
0,0215071538460519
0,0184456073545434
0,0271313787577005
0,0194211156660186
0,0269624735229387
0,0164538845539165
0,0374232318309036
0,0258139865788526
0,0230327593481263
0,0205734349825725
0,0333992175770405
0,0216565702635136
0,019940444028646
0,015695305989191
0,0258885649648264
0,0176124940866753
0,0301288135155333
0,0113448280801897
0,0298290742292845
0,0165866636179353
0,0283497305651065
0,0227310739603595
0,0282064451611445
0,0177739327806294
0,0270309880291229
0,0151417762280382
0,0282491016053201
0,0174719809259345
0,0331937214031615
0,0187305605923153
0,0280334099829021
0,0166979146139958
0,0335043868528789
0,0225710118714634
0,0345559109096545
0,0111977533666623
0,0249972358757885
0,018958371477452
0,0277848497290081
0,00815395244908528
0,0259849963587028
0,0222401444211856
0,0215225154108197
0,0211016660440619
0,0346680972408386
0,0205814885499232
0,0258955778420918
0,0148541150310273
0,0307319729415565
0,0230804020617092
0,0281020391706003
0,0219927686864265
0,0258304099124521
0,0205089936398861
0,0295171664370997
0,0194146300981215
0,0246514415985915
0,018633607160312
0,0138960313058835
0,0219166837288317
0,0240168014742584
0,0226055513706444
0,0305140966731773
0,0223113382627664
0,0245738525415622
0,0108043553641228
0,0238023556902931
0,0247686601201397
0,0317711262462961
0,0163260453050018
0,0278630364738424
0,0191330093549616
0,0236538131095107
0,028907986842221
0,0144615074501128
0,0191038972979458
0,0276634544882219
0,0181410473155042
0,0157943467391276
0,0193328577455987
0,0228317156625368
0,0134663065051603
0,0227928442834073
0,0193113237247365
0,0199727100107921
0,0223826079382064
0,013225490668091
0,0305001833444357
0,0114764241482949
0,0100143938161858
0,0434284498048801
0,00094831647503422
0,0634052127796163
0,00167656995424068
0,0278157197711453
0,0237369658079597
0,0290621210344883
0,0281079122390602
0,0263035411263098
0,024510260767506
0,0197942313155541
0,019552135029442
0,00801400931934681
0,0282976136857723
0,0288945165935756
0,0234009875273056
0,0175100893463894
0,0273442244247994
0,000914141413451716
0,0195783055372238
0,0378166910542858
0,0205726447085263
0,0246737623572363
0,0172828158564534
0,0132396108511989
0,0329962365487955
0,0327096645397343
0,0193894886070602
0,0251845939190517
0,0188266687849444
0,0175908282541274
0,00704815011419115
0,0426551663830254
0,0138648709177696
0,0233093327478628
-0,00215201409296661
0,0268379556160217
0,0302738312974903
0,0302179225023291
0,0201360132432054
0,0100732771396351
0,00397064367527067
0,04278462740854
0,0216115075163751
0,0149374708877123
0,0248827209716999
0,0308180472458103
0,0235253739829265
0,019056814497536
0,0117949335281286
0,0266096266345749
0,0172925476897768
-0,0189934856380367
0,0267094385223662
0,0288716549507699
0,0226212317132072
0,0515573903049379
0,00787036743043119
0,0465038349914969
0,00336788713556369
0,0257500673054615
0,00655873125622078
0,0341846836562325
-0,00182197996270291
0,0247535357949231
0,0236037055168728
0,0221428670050689
0,0042680651505671
0,0400201109033189
0,0158150794438598
0,007492865567669
0,0541835790993592
0,0197544670967598
0,00905323085458662
0,0345130316942702
0,032306868486156
0,0189964404959685
0,0142805864767291
0,0337939066655008
0,00452280147566988
0,0235836423276276
0,0102467048775448
0,0255631790524669
0,0196708043716641
0,028688096480638
0,015866394043292
0,0270687780790599
-0,0033766761642998
0,0245000058375099
0,0321672456871017
0,0406219539379657
0,0224315867810381
0,0318380815172748
-0,0180205707680601
0,0615340228571417
0,0286888223937808
0,0331406456276636
0,0159437856801668
0,0238715633507862
0,020756481032747
0,0196060738632308
0,0231997108664548
0,0184796328711808
-0,00290995359151543
0,0435026341731951
0,0123402784151873
0,0331185669577792
0,00783524512883616
0,0311266251895691
-0,0160003361200499
0,0659452434218357
0,0186605140422958
0,0293509414165109
0,0121896552501696
0,00915627530797275
0,0163537623823964
0,0277265905456057
0,00909538011480545
0,0299724567949867
0,0146300865027098
0,0299750782102492
0,0172935686960369
0,0262296850491068
0,0178334000497994
0,0231310718649183
0,0193670886985427
0,0165000888876893
0,0105103134690161
0,0283140133876668
0,0197632630095337
0,0239278819329553
0,0162285827647136
0,015738857386002
0,0198858559298364
0,0338171363203082
0,0156991957026668
0,020226093924159
0,023767624564228
0,0277703895026406
0,0193627448349222
0,0204423927123304
0,0165320402749102
0,020678638893542
-0,000492001927376004
0,0402843258649564
0,0103857101947528
0,0427323248813775
-0,00356544532354228
0,0469920667463698
0,0120535150844092
0,0308739966987896
0,00568424772836382
0,0295041842360321
0,00652796715695998
0,0244414317203355
0,0202571670149623
0,0299502417727381
0,00796186918894488
0,0410860692912889
0,018854054479803
0,0336623253643144
0,00413868899789181
0,0051625837294623
0,0582921228823896
0,0183764639246419
0,00033753576309744
0,0708198329914935
0,016274228054141
0,0476599312102882
0,00276022511061024
0,00363672394938572
0,0587828927404367
0,0512202156110184
0,018368017976366
0,0269156480790513
0,0292291856845297
0,0188845997101269
0,0254626935507523
0,0125764528349849
0,0227646947080542
0,0204066447246945
0,0334601160447087
0,0601200260389634
-0,00120418876164996
0,0617417480016159
0,0223406530215127
0,0388286204794914
0,0169691221859202
0,0294415743717388
0,00376355690691673
0,050586294783703
0,0178600482639877
0,0481216286287963
0,0107520011405744
0,0302048013988581
0,0326366012965799
0,0259072021757543
0,0124373870482845
0,0366743882864398
0,0243744440100753
0,0337430477860928
0,0252304464844863
0,030313868699255
0,0339315925264282
0,0203055850826863
0,0112555125995336
0,063456214701686
0,0172408343535973
0,0336344311654967
0,0369676876693524
0,0403014218394894
0,0283127791047389
0,0351900238007476
0,0263951797989319
0,0309145385636128
0,023962032680367
0,0205461833502561
0,0482692063797945
0,0333139808498505
0,0321009484791063
0,033563153740537
0,032502207153006
0,0316028769445056
0,0329157527589405
0,0328186118121957
0,0313613067708722
0,043277785835869
0,0157449629030345
0,0501953186518806
0,046255130943148
0,0164141999147804
0,0560243096275789
0,0541281658515332
0,0410510763212912
0,0324760536453451
0,0283578090260216
0,0397951310024238
0,0363550166682961
0,0435065479120248
0,0321512656595657
0,0457829157388552
0,0430907577251665
0,04377663743264
0,0250503173435401
0,0297665212731453
0,0480744017434539
0,0737761463178032
0,0513812326561312
0,0600898798060783
0,00407983983709259
0,0843715870624005
0,0379785452758952
0,0751718674914517
0,0541785933748013
0,0503344006325809
0,05076953177439
0,0567498544173245
0,0549812534624107
0,0563464728993246
0,0569922570787028
0,0591458458889024
0,0639809298828325
0,0580953665874613
0,0675124158446306
0,0585168550556622
0,0654134531272268
0,0827130630751609
0,0598066603594923
0,0790798781287388
0,061841481492187
0,0562735314744938
0,0805830128893801
0,0586372173357635
0,103397228310947
0,0711240705693077
0,0853273711642395
0,0900708584901184
0,0818198576634569
0,0969408606476174
0,0697641009740723
0,0895190926466876
0,081223918295583
0,0952881743684884
0,0830076663016654
0,0946013685786412
0,0859456296617839
0,09909216070131
0,0914535591889799
0,0955548008515398
0,084158902578365
0,111205849267449
0,0927627417164308
0,111547789668109
0,0822588645963183
0,104487683537866
0,0846707920786136
0,149105917058288
0,0951873529157995
0,124367979920148
0,0969065125251053
0,126471638879541
0,105613147474368
0,123582100754034
0,108560385179549
0,122930800858555
0,134259540761913
0,126202514835389
0,136812975834883
0,141150112301564
0,111631938678665
0,149624423424791
0,122144298957318
0,143672701901271
0,130096869001917
0,153800685211497
0,114771180487698
0,153985838248502
0,130559942538054
0,15719410099273
0,146058475560807
0,15769927791847
0,152206871268731
0,166543539016256
0,146245005754955
0,164057902671053
0,163025668886544
0,169398781395916
0,157412858833878
0,177861358538873
0,160597439317637
0,167930690090646
0,181801325959422
0,177172692815491
0,172622463185734
0,188500430804316
0,168394467679374
0,200792765945258
0,159447086873193
0,224351322688101
0,160883207020269
0,213544952608419
0,20005477891629
0,205185583980788
0,191536424133434
0,212089534971996
0,198237128232652
0,210650221765361
0,208460129782211
0,215712228126895
0,202963899106983
0,217819052085422
0,216140879390655
0,218209484679262
0,213837976298501
0,233991341615933
0,226336112236523
0,232994192385131
0,238871450037722
0,249148713040221
0,212588325088717
0,277851419965653
0,234093349712288
0,267735191299338
0,250998100322016
0,265430296826411
0,243721619119659
0,26202473353174
0,238667945186958
0,268386334887271
0,252367529255485
0,275777446869223
0,25250387465336
0,286698365298848
0,269947759511573
0,296700278706788
0,281617215036278
0,293561581067564
0,275158465432896
0,300698643008922
0,2799732885811
0,301016859348809
0,293488518620196
0,323393689894144
0,299613231510137
0,320928742359659
0,309622691400462
0,317476977906419
0,300702315884759
0,327403632085469
0,312252320108727
0,338615735239657
0,318046303207254
0,340386468652679
0,328944295934393
0,334444835841695
0,342786906530997
0,35687605254767
0,32766534158933
0,359528622532809
0,346906016900979
0,373376998216307
0,342648742710921
0,378064932453901
0,350111319037298
0,388069320010095
0,378398151904057
0,372145927875858
0,340298019942166
0,390281669153578
0,384416957635609
0,400030890239227
0,378765781347439
0,408896855483735
0,390032390808388
0,417377318766201
0,377737546036877
0,418772061196736
0,421145565047211
0,421083810323393
0,40154099413661
0,439451177391029
0,426829317525428
0,449406793148931
0,409325123063483
0,433939434002578
0,427408741549775
0,469155009870567
0,4276042075227
0,462668157230926
0,424661106652894
0,457275251908491
0,430125498835708
0,487712519043584
0,448914339175239
0,489129752682781
0,442925588016976
0,467265830013305
0,449932889090219
0,513649785194615
0,462242670928936
0,513856207702327
0,476626943558349
0,506018549268224
0,484532800455628
0,518851689821324
0,5057406348813
0,522143259928847
0,488597624766632
0,51046983101785
0,50028752956428
0,528216112059816
0,511473561810617
0,556780074432257
0,50104212556502
0,563935518639519
0,495735550347489
0,545540206750994
0,516528178730697
0,563053384022861
0,516232287520775
0,56689053485146
0,529920136317156
0,564456399642899
0,540330554386567
0,572543269767988
0,527470258130085
0,576622592626621
0,536142975139606
0,579947277151755
0,56541966235171
0,607616490985161
0,561217810037549
0,616302585545117
0,55852093982585
0,61808288749544
0,580503078964441
0,631208316600694
0,588798111392379
0,611751314762149
0,580867104879754
0,653065069416574
0,58941308386872
0,62941678292862
0,585343403512965
0,644603509598718
0,615829699546666
0,648857822276516
0,614654130154997
0,653549851261092
0,631778160658709
0,67578331971503
0,635379401639884
0,665882320051359
0,62462391797628
0,656150533842522
0,644754744315799
0,654049753063728
0,62500546210708
0,699783341093852
0,638248978738486
0,690025578123686
0,612969369535663
0,68463617899101
0,670552131692867
0,688819578964689
0,654800529206151
0,717448234846779
0,655363785775122
0,70866179120908
0,687655731758918
0,723471744678847
0,684331160821975
0,736844090906183
0,687144691205601
0,74807403509644
0,704629604167785
0,707903216114428
0,71123752584627
0,747447093633742
0,693411905193647
0,773696364357113
0,729194708812561
0,782315564483755
0,687314939388059
0,750900164878265
0,701415841963576
0,736140779677389
0,695322141346645
0,768747470866375
0,710163747795802
0,796368380689429
0,703876625459472
0,820323018947452
0,717462626869965
0,746982548558056
0,738051380974463
0,776030935778275
0,735954566071745
0,770097048936011
0,731957476765749
0,793949726232044
0,749534566652566
0,818503146446582
0,772933299297308
0,813572426721637
0,811019242315991
0,773699636791895
0,779375529515527
0,82002229877694
0,772990569606062
0,826366078066115
0,790999618818479
0,874874963712107
0,782919508207102
0,828772512138709
0,799252254950314
0,835330844003365
0,791417188556653
0,838995827295398
0,772540261259044
0,813940797746715
0,785986041055889
0,818910802005133
0,793729868937924
0,857823815160397
0,783287382541739
0,819809747139792
0,803627019669074
0,794907076036028
0,825327973472715
0,818517076216318
0,789186754991728
0,885799038623653
0,811660299080762
0,84292382855601
0,79853932607773
0,872814626886289
0,817404546951871
0,888445610113493
0,827138581866018
0,897187016607696
0,850383266537099
0,87946991605713
0,852279072248052
0,869019016977028
0,829165672991783
0,896524152740313
0,855842460545086
0,869977235843355
0,811940382842579
0,869284267803255
0,827337148135271
0,885066116990901
0,823704409083411
0,862624052442781
0,852955888569491
0,91251093723332
0,839205719000102
0,898018192421058
0,842316304490163
0,866301956198214
0,827768250552801
0,890259991461423
0,866403930097341
0,879300717566526
0,836023262353202
0,891621543035726
0,855231284399748
0,893676630009419
0,87127044656154
0,891300792745717
0,852074160785661
0,876134175536673
0,864189958464368
0,90347724753279
0,867212369614892
0,917450010863707
0,845129059034032
0,910930665899631
0,838462127203395
0,904876336967108
0,857679460107368
0,880029914799393
0,816817612434356
0,88659163476831
0,838540488324161
0,887935555724925
0,862851762370563
0,890214582648949
0,843397891589397
0,888645788968284
0,871259489857519
0,918440790657784
0,888364624829062
0,920555658656686
0,842380752739059
0,912496097339163
0,848857230427607
0,906610809596777
0,835078719575614
0,906401755697394
0,842560082125209
0,912577024862928
0,859639721479154
0,908244129389656
0,8568547649029
0,879399886390667
0,846593236425451
0,887173823131131
0,877209013312526
0,889206656287906
0,831143835367467
0,908479843695651
0,848448054163395
0,882283066574582
0,836762019244629
0,864926416736854
0,88100523614994
0,923312150323642
0,856170038479435
0,869574789863825
0,882241805353518
0,882405096139847
0,887461138445531
0,858870492577205
0,85926072721961
0,888059665028237
0,877002060342503
0,890840364528277
0,841637541119103
0,868347021756733
0,847815191930504
0,882912779879491
0,862899236227183
0,860923926603929
0,828513462235087
0,909427557858334
0,862504660470821
0,895116219142169
0,84579069393358
0,908973699981108
0,843462570191577
0,860100397802277
0,830298265450672
0,865738441008397
0,831642938653232
0,901476025709831
0,835404118125268
0,864774701548161
0,857839122733263
0,875681147581308
0,823018473205946
0,875416374532846
0,853342201524672
0,871997581195872
0,799794176926912
0,851383352808399
0,841061982326254
0,847612960577351
0,801915350655989
0,845350753500291
0,808464586444648
0,857187772369634
0,807584569932641
0,803234748006505
0,822452612704588
0,837293858415574
0,807498201236953
0,818298149700667
0,829345098629618
0,817987496128314
0,818684581011283
0,845210538313937
0,773025661229534
0,832990543348265
0,796728132822452
0,865040178333327
0,789939184048254
0,814640263317339
0,785377299411617
0,823726582687472
0,804750334305162
0,831983638229754
0,782243015694621
0,806807051408273
0,782588529052961
0,808912391142493
0,792978779070351
0,812163044240557
0,753851873260688
0,803942101122953
0,779266710018164
0,791361662870415
0,797076206913181
0,778074140202283
0,740569293220497
0,798171612414823
0,764258956081149
0,784568589014
0,758426035985149
0,797782543493069
0,736531109834523
0,762911623127962
0,748761322961329
0,757219377582012
0,74442992458408
0,773854118346543
0,748654743402789
0,767523900153129
0,734260961023444
0,76151380337817
0,719423037445628
0,756546055885598
0,723601392010183
0,748732279933323
0,721411851617768
0,729593925330096
0,732501080806382
0,756810013092105
0,707453451234227
0,746827193515083
0,703738214250836
0,740151019741022
0,687672509779576
0,731592580818299
0,692246380833012
0,737271680746644
0,683007582607957
0,718868868232816
0,674365510503439
0,716248990553547
0,684776270773693
0,710751242276487
0,696695595080235
0,695733978354859
0,684603828770846
0,704239045634453
0,662716589768251
0,692900516521983
0,67350854241406
0,698553233284122
0,655525964148274
0,674619353237945
0,656268543708195
0,692857756193016
0,651793220000977
0,682973339693429
0,636403115128946
0,659177890055937
0,622015243873353
0,657693365334541
0,646189525733873
0,654823247659141
0,62408003574437
0,648397997118099
0,620314699619597
0,637814845502857
0,611567977326769
0,649269197612431
0,619132323749161
0,620366955423778
0,602427573234358
0,6240767645299
0,601524209150231
0,620890654292215
0,584102673645151
0,612609476124806
0,600813005669376
0,617339268775301
0,588856178288646
0,607517716723472
0,58019896012254
0,601153708125525
0,575789161327259
0,583431384335369
0,57487042206244
0,596460379072379
0,572269358744512
0,581057484413817
0,551476081268759
0,578463531972401
0,553308019352136
0,57158703959944
0,550462678872021
0,556022970033874
0,538318027370762
0,549811541209456
0,548241846065048
0,553440728582512
0,540080144016936
0,54910989788508
0,525779460413011
0,539812513029578
0,522006639476503
0,530501516401378
0,523508839942597
0,538940476918046
0,522805409918034
0,533098512245525
0,515074155940003
0,515146570344797
0,505417672366497
0,519589136542558
0,508703091530826
0,506813323049689
0,502922832566908
0,520265860410131
0,49350052661203
0,503978833075268
0,483655193439517
0,503180063428597
0,481994841561591
0,49803175995377
0,479315086915026
0,481819890174846
0,469390521068235
0,480841670442834
0,470970280960864
0,485146316228346
0,475517201827282
0,47744001357306
0,457101374838697
0,461960260769624
0,455290416612923
0,459801942857321
0,455537739990425
0,453057918238158
0,452721450068987
0,455509671800852
0,443072597339713
0,452755985824311
0,437389825123758
0,444189352299896
0,435453170121501
0,442670145264256
0,430530912366324
0,441723111668483
0,425918058717451
0,433219919420757
0,410152456497589
0,430824912412079
0,420974741634913
0,435247347442081
0,41045560330083
0,419853716585901
0,413684258977851
0,420981792863751
0,408905359084987
0,412557821296454
0,398857678513475
0,409889757042299
0,403334900446139
0,400843558266374
0,392234356344042
0,395182920672057
0,382426911532033
0,398409151563237
0,388776200918645
0,390210504037283
0,37986855197406
0,39546842967754
0,373575154116226
0,380932358084059
0,374192340474184
0,379861207940249
0,372439433585104
0,372895571398304
0,366440595860817
0,369340177435216
0,358609973407679
0,373582850558321
0,360195288841912
0,368656273032729
0,3565644299484
0,358253904917347
0,350169084721493
0,360166889112508
0,350704958861891
0,355787231201293
0,338505658685709
0,351581913605065
0,340315548928285
0,346653511818694
0,333687321969502
0,341363004061315
0,328626134058579
0,344809545466327
0,330264602564965
0,33928790762552
0,327722405735545
0,336171436277132
0,323058466090005
0,326434516562278
0,325420010501542
0,330235064927232
0,318066473340117
0,321849963580964
0,313517548430588
0,316433749536713
0,31202903426876
0,318551525210662
0,309796825235064
0,315350447324777
0,301537684806
0,300333733360094
0,303861526172977
0,312060663275549
0,297629291708579
0,299803810574747
0,291545160011593
0,302597632552899
0,294964019951423
0,29642039864302
0,290942352508076
0,297356489083511
0,285095204423994
0,292021852445628
0,27998722812743
0,288852112384663
0,27997938118726
0,289009353516678
0,280906384360305
0,286403316878384
0,273708032412691
0,287021602364498
0,277022769678243
0,283319656129351
0,277679008065394
0,281080460574017
0,274484625543065
0,278178932890915
0,272617789783465
0,276372723074472
0,268617195077522
0,277553194487362
0,265510014410653
0,277100342598987
0,270416952108225
0,271800011359517
0,265520118246966
0,275323755031953
0,275832904944651
0,27361514998981
0,266239017339698
0,271487999251585
0,268477822537852
0,274483807754211
0,273001444211867
0,277494145383039
0,272395330249487
0,277534206875528
0,269795085698814
0,278130574751186
0,271298926542102
0,280288544664737
0,278198821446473
0,283819153949584
0,282487747808002
0,284549388505078
0,275860594993986
0,284560282534176
0,282804495152922
0,284954182670531
0,277727000162776
0,288372928513244
0,284371784342791
0,292058879962571
0,28719270881845
0,29132768969037
0,292440924675445
0,297330586690617
0,289611757872093
0,302767639222867
0,288162646082426
0,300851218535323
0,300268924767052
0,303765452675702
0,302802327630691
0,304509573013653
0,298063192946896
0,309707275741891
0,305369275848621
0,318766852313806
0,308623411224122
0,315768023478877
0,309629429768825
0,32067925415213
0,313206566713278
0,334034088745956
0,319748396873058
0,329510718005161
0,333148843475668
0,337832835132853
0,324737392582893
0,334864310884492
0,337381513063407
0,349151235424014
0,343494310993774
0,348494030625252
0,339997832606618
0,355735229528628
0,349855963341422
0,35781922672936
0,350595623610079
0,353683573146184
0,349415271153918
0,363981138475689
0,354177605801134
0,365001608350833
0,355877654855233
0,361806636169348
0,351330902371796
0,361201111387717
0,35540568427114
0,355515869471838
0,350702429407247
0,366317826924934
0,350603111531075
0,361479911210331
0,353867187283865
0,362249394481454
0,347464787529543
0,355615106345084
0,345459023348748
0,355669888596411
0,347629289425681
0,348529812694418
0,350364701124721
0,350097423693032
0,344196874465358
0,356964562001277
0,342813927020033
0,353327220304902
0,342495232262132
0,360995948951062
0,347653361990676
0,35475562269091
0,347968706315112
0,353573996779366
0,353926151754373
0,354221528351737
0,347531161775462
0,352288886429017
0,350416258250352
0,355820949047455
0,347638602817731
0,355113564929872
0,346136198510666
0,354803663276912
0,349089383015591
0,357396527268747
0,351006416686984
0,354591257626547
0,346789264579964
0,353170109817607
0,347330107903432
0,350652763872583
0,344616575775921
0,348202063075593
0,341257469048041
0,349984527090947
0,343322908554359
0,341562591581436
0,336803976295837
0,342871023172987
0,339578128578531
0,344465142387825
0,329232387624863
0,343439466096392
0,333328931334439
0,330688809763776
0,33002653367894
0,333133645741064
0,331824692308504
0,323590789337663
0,317098484319265
0,323372613010217
0,310563875405889
0,319045629099377
0,305394164422346
0,316867654245187
0,309464968279487
0,308440362369118
0,30116202786288
0,308689882778869
0,297804555633999
0,301852276220171
0,297902074655373
0,295902948067821
0,28175796582911
0,296357389343661
0,292872441989826
0,284367285228418
0,275938970199949
0,290837658870243
0,283195514826313
0,285764127295767
0,272383898826294
0,267165454644493
0,269725673702925
0,271281716690688
0,259640688526198
0,266867547230559
0,261075706757437
0,265231170097284
0,263670669771827
0,264698370986065
0,255752633021793
0,261228560117821
0,254003970200154
0,254722506546611
0,248803657211623
0,254608396999541
0,241476094324653
0,246594269767688
0,248797400320004
0,247137005788202
0,237143835442675
0,245557366201751
0,243931273009347
0,239937699090068
0,239305813265416
0,239575660071903
0,233840506756145
0,235250741372915
0,233182667887894
0,238195398177556
0,234151489893177
0,230899721199445
0,226396814193746
0,231005196126685
0,226646482756884
0,224188908188604
0,225121265699428
0,228965642570376
0,222697201427963
0,225239083435793
0,223188089728837
0,221861621693202
0,216893046997274
0,213606558828858
0,211237241526577
0,216042136666204
0,213485300612018
0,215668151181231
0,210419124199771
0,2123692284282
0,210402060442555
0,213176773561229
0,209601607387378
0,208966142512568
0,202983912204047
0,205415082741108
0,203374035402948
0,20722214042242
0,203188711236607
0,20554076869233
0,200562944550883
0,203366090441118
0,199649975024455
0,202906909792246
0,196703894313638
0,200319979496007
0,195420189681345
0,197704945735084
0,198825489152294
0,197428029457513
0,196278507880259
0,198606007945785
0,187510229817906
0,198663640332797
0,189945711585178
0,19575428181883
0,187941643674232
0,200240674861352
0,1890188389942
0,191641937623588
0,186163689974831
0,188698370597696
0,184448609594076
0,192317409560274
0,183837038118256
0,189374897588565
0,185818138583065
0,186563420820908
0,182012131046375
0,187511090048293
0,184513992854728
0,185054774604184
0,181932693455001
0,183211663152495
0,178542674175109
0,18284490473528
0,177011546589784
0,182647139002982
0,177906410635083
0,178498411939565
0,176794012539935
0,180401672501691
0,175936413585493
0,179631299496527
0,177190895893065
0,179408744406858
0,176300156452216
0,179930921424417
0,169258530118225
0,174305096097087
0,173502544343444
0,175157024610395
0,16991750742876
0,17911298061287
0,174150868806058
0,173203103706585
0,172821224505479
0,178870804903905
0,172267692515777
0,17217494623592
0,16730280838991
0,17217832659271
0,168769752178253
0,169796953513294
0,167905300620086
0,170285776797482
0,165196936139314
0,170815585822889
0,164144724321339
0,16999029220828
0,1658619084597
0,170390033470568
0,170124630413945
0,171238657742203
0,166580546775015
0,166549421828613
0,16472374459627
0,16921389214476
0,161229084036221
0,167821885440257
0,162155312418282
0,160369216425673
0,162993564507217
0,16539161939895
0,161674534217284
0,162378717457922
0,158402616741062
0,163762385630964
0,163190576679657
0,161769349799126
0,159921439161856
0,160413177203595
0,158434360447995
0,160831424431269
0,159043207063934
0,157394299449257
0,15267727933696
0,160033305323526
0,156957020676291
0,154455094051568
0,152877249556792
0,159235864444226
0,152990729487945
0,154708401066373
0,151042172226319
0,154526582556438
0,150785781183435
0,151579563842071
0,147895021690889
0,150979838939539
0,149375950389214
0,15070732276857
0,143343162883183
0,149493918180007
0,144702668562416
0,15125493353935
0,144828029322345
0,1497452041594
0,13865370742599
0,146191524073293
0,147221934952653
0,145631500452944
0,143246450737376
0,143250530343607
0,142733093252841
0,145857225791462
0,142639804130174
0,142765575080443
0,136741793856719
0,140596774501452
0,138505505001874
0,144070146458055
0,135222506876127
0,140528457778202
0,136845538724798
0,138744891144492
0,135954570937031
0,138050745046376
0,133252439764445
0,134619654182794
0,133483057629393
0,134756667736665
0,128588060424314
0,133345035340276
0,130221633357631
0,135492504924265
0,131338069599327
0,131485547312281
0,130147881044169
0,132784309370037
0,126092951784626
0,125961677526216
0,128333825306988
0,125736517266701
0,123793035146473
0,128807561068721
0,121583263959209
0,122804481751566
0,119399135158705
0,125165493807652
0,121117718141119
0,120830617888363
0,119399680371245
0,122516422167788
0,119614674932237
0,116391835308798
0,116252000551034
0,120216315646582
0,114681023754409
0,11582231542804
0,11734851390627
0,114739655783848
0,116694705746049
0,117913238158229
0,111723384172254
0,115232324951556
0,111315992587897
0,115186869552684
0,110335292132108
0,111858713853733
0,11255517704341
0,115010537454914
0,108914427963062
0,111790379083623
0,106001605367916
0,108580280382388
0,106323588564371
0,110249553328918
0,107016317658973
0,105729103987002
0,105769205143001
0,108070964912687
0,10354921734159
0,110655547065021
0,104562293904078
0,105561887182696
0,105648843357559
0,106543178135523
0,10111504464945
0,104055962025256
0,10167967781994
0,105804480537192
0,103057703040622
0,104552181634989
0,102971119801632
0,102509898106978
0,0985983550407375
0,102861129876293
0,0997060039133129
0,104769167945562
0,0943567864091283
0,102479064054673
0,0950741701740295
0,103634073266502
0,0964998855057304
0,098786266943463
0,0973148413658978
0,0985867905537774
0,0940264955717448
0,0990283106191941
0,0963272372382842
0,0979042087642745
0,0972069529562989
0,0947018887749408
0,0936840054109326
0,0951007785400667
0,0927083567118166
0,0961697080580755
0,092727577722813
0,0981110141847442
0,0912478756443678
0,0929322264198433
0,0941226275982241
0,0944088120593952
0,0920089502537266
0,0916169184459073
0,0884091037497831
0,0909576875900618
0,0904611215212153
0,0951861267881963
0,0921489456313231
0,0938927065471743
0,0875118680743597
0,0915944036576201
0,0901647069346567
0,092549726828073
0,0914788156516404
0,0936973538022554
0,0897373755823379
0,0908969000037404
0,087287293842965
0,092359017160581
0,0902491031034257
0,0931144919694287
0,0871918467875158
0,0879233463789018
0,0880384753591916
0,0902499225117469
0,0861154140835009
0,0908647250223052
0,0850975764716129
0,0867729193762609
0,0866642872217245
0,0895817201584868
0,0860277554485379
0,0873746828128328
0,085285888089187
0,0874202725102759
0,0857039618816399
0,0887412905836815
0,0848255079250818
0,0883333320604503
0,0847552391645275
0,0881194729115984
0,0845897644712001
0,0892835190880888
0,0841753908879322
0,086670843071837
0,0818999665811986
0,0844584813212281
0,0809946553693005
0,0839008052774486
0,0808681324345843
0,0872603578759894
0,0840471097989415
0,0837149918901999
0,0808314344315015
0,0794570628336737
0,0809274854435683
0,0798401309531709
0,0798781457615077
0,0847566643838275
0,0821236607149244
0,0804464663850963
0,0820113754383241
0,0824174449446386
0,0802752725790889
0,0816997755730979
0,077053920160907
0,0815562822729643
0,0779630384981738
0,0822851725633858
0,0834977851943772
0,0807116690035398
0,0749283178481691
0,0812156486925465
0,0797830445084329
0,0816888753630271
0,0784839924680032
0,0771113460438482
0,0760657078818592
0,0777222840232671
0,079063353887691
0,0789951548314254
0,0755201110390419
0,0787664617540541
0,074244463086754
0,0760981760797077
0,0752994364473977
0,0781963753566337
0,0753663339434354
0,0777952107742784
0,0752614920166536
0,0766860966473349
0,0766936737619442
0,0750360722657331
0,0729741256862614
0,0746546644601365
0,0727611248065471
0,0748519699684238
0,0730148260084377
0,0761347833838283
0,0710740497286914
0,074597188822588
0,0696979963149364
0,0733162844850496
0,0717865514035312
0,0719506652740659
0,0723551120110031
0,0715050999974054
0,0694169657442685
0,0708997298278927
0,0704118590649504
0,0709270818193501
0,067787298576798
0,0703083417578269
0,0717827089674044
0,0720172787783715
0,0683227833130897
0,0695296870513967
0,0652999023346422
0,0703829519826299
0,0686553466861836
0,0700498747391103
0,0671067890730697
0,0651480695908445
0,0636779767548773
0,0670374312677473
0,0655440426171478
0,0663228119137037
0,0656466605150346
0,0676314385848145
0,0659162501630942
0,0668987312464652
0,0653276052818359
0,0659598059737269
0,0619393774676835
0,0668939509083663
0,0628913637839851
0,066311824404081
0,062709882104845
0,0644965197617395
0,0632688426342442
0,0637428661631438
0,0621979860996049
0,0627064207227019
0,0607170202590892
0,0619302619955822
0,0623170652194731
0,0647054424674999
0,0620822508018001
0,0610601958806602
0,0618156330755274
0,0618297010364128
0,0578987182814323
0,0619724539190396
0,0588936781432162
0,0626840559586759
0,0596661660074356
0,062824406229803
0,0594500774928535
0,0602533870918211
0,056663724148429
0,058451010488659
0,0581185629951552
0,0609427087818795
0,0595130884562724
0,0577243343764945
0,0558588829166599
0,0568004775840588
0,0568748086414466
0,0550053549073878
0,0579824761851091
0,0596023796205894
0,0572030316259081
0,0564317686548515
0,0569103673305975
0,05464558148334
0,0543918458776443
0,0543252908416042
0,054746471519434
0,055758170204186
0,0530735280216558
0,0541418476811667
0,0538448852285374
0,0575885255975947
0,0535295331748046
0,0548628708997768
0,0547741850412866
0,055223524733238
0,0526404312929017
0,0555123187629584
0,052353940906886
0,0516786925848437
0,0528057106109792
0,0524375767417189
0,0515227508177898
0,0554157655615599
0,0496129054866493
0,0532054905513838
0,048263809236618
0,05524659348909
0,0535934878531851
0,0539357977416057
0,0512400416385382
0,0537137787639644
0,0514910361563435
0,0520758168856673
0,0517451716449731
0,0524992805028717
0,0508426799155685
0,051446924031027
0,0487405150019532
0,0492760403567699
0,0508977825189688
0,0514347862713258
0,0501165269156945
0,0493841444623162
0,0478955354394894
0,0508865858568754
0,046639078577958
0,0484854995396619
0,0516540302822885
0,0525747949909107
0,047038202910933
0,0459655512257916
0,0488419685036004
0,0520887765507232
0,0490696872072257
0,0508722347907835
0,0488448881274781
0,0500964755987122
0,0494671461900834
0,0487285439814926
0,0483655820555092
0,0491562523709485
0,0479963324274354
0,0473308030702113
0,0481618854216134
0,0545829375904402
0,0484251866836859
0,0533761132654606
0,0470237452902393
0,0453069525598528
0,0450401923819032
0,0468013875362878
0,0488027880735893
0,044917562255447
0,0494869111801329
0,0455661319958903
0,0489429334763695
0,0461298309030785
0,0538590374412895
0,0440678721172893
0,0500062480151528
0,0431547023004545
0,0518626606326259
0,0387588323233281
0,052482879489358
0,0374156039134844
0,0609795417922924
0,0399907968638552
0,0639173943397135
0,0324943995990421
0,0606360743175076
0,0282169900305002
0,0697880391970787
0,0298419831834649
0,0666370115765781
0,0250023290750622
0,077321289913419
0,0276397602211668
0,0690015222307254
0,0253110257520933
0,0715069522318713
0,0289314221593484
0,0599929633848925
0,0383531153579674
0,056152427706948
0,0410328689664711
0,0446888576614956
0,0510868857515746
0,0426326159340566
0,0516700750970958
0,0400515280681764
0,0537051602872778
0,0408757589886517
0,0527701755029865
0,0444753650121503
0,0500872838293406
0,0473279244057074
0,0451934603092194
0,0485369615925
0,0464396845504692
0,0456017655271493
0,049170545396831
0,0440458305302685
0,0484613484732658
0,0446761201343708
0,0487536028468661
0,0457729411352521
0,0462929996296667
0,0472418266738468
0,0446229368332716
0,0454560772349075
0,0460337439821346
0,0453974667892648
0,044976394149608
0,0448923924418636
0,045597161898325
0,0453313136938334
0,0485307370035569
0,0464361962504611
0,044759173136392
0,0455697812822743
0,0465160860081914
0,0444593912480396
0,0463372184251362
0,0458363844569252
0,0456821661577197
0,0475744222041433
0,0463453742210636
0,0459633037742063
0,0473763076552326
0,0481573726741546
0,0505074892655931
0,0458908354547989
0,0462702303742581
0,0437353591671709
0,0465682679359114
0,0468450366099163
0,0463388236329983
0,0456422540394477
0,049705080996764
0,0461522953196538
0,0487178620190108
0,0476348548112515
0,0464265532199829
0,0454092420040305
0,0479710193097768
0,0436979255371095
0,0471522018278499
0,0472965402356056
0,0463527761616436
0,0471507788024413
0,0472703823530219
0,044237038045256
0,0475232884315567
0,0456140979968057
0,0494701804480455
0,0454966567519038
0,0482060901263145
0,0450142017359404
0,0492375374339348
0,0460895629847639
0,0466316604680985
0,0448803314126619
0,0489615133028377
0,0464870059208833
0,0499038549865041
0,0472464178673432
0,048007829520637
0,0471876192784968
0,0463969778098132
0,0462979686298063
0,0495383699954126
0,0456809851595544
0,0497197249891502
0,0444422255304786
0,0474736089192743
0,0464143484262198
0,0469827584588671
0,0467803163718973
0,0468945703499133
0,0468519237432109
0,0478314087190313
0,0463752424100828
0,0484205862544005
0,0483497764363738
0,0500319767003563
0,0496919248989547
0,0484714818241937
0,0468506795153895
0,0482757576372906
0,0489912238232367
0,049677280576401
0,0464634178779092
0,0491043078185032
0,0479395735138178
0,0495262170051205
0,0479029742522183
0,0489098106414152
0,0476096936350588
0,046540245773307
0,0494500977262341
0,049676037299578
0,0465186214735108
0,0491643024912281
0,0485742118697217
0,0463752620111457
0,0476882196678943
0,0486838113520694
0,0479994193177412
0,0510609079968362
0,0475075948230562
0,0488670524850206
0,0496460380137592
0,050734098898129
0,0509566567875709
0,049777702540011
0,0512429663220453
0,0539751912240157
0,0503143265265726
0,0504908728208126
0,0473639135082856
0,0491505758345522
0,0484313541155428
0,0501116483733323
0,0485093146268629
0,0512532868887908
0,0477882175464792
0,0526093036837283
0,0498581490017475
0,0482968798348881
0,0487920558325231
0,0497027853902743
0,0501273615180745
0,0504436132771192
0,0489018978928885
0,0521714666990495
0,048550081452058
0,0513315740695089
0,04877353128176
0,0520000401536234
0,0511788039703368
0,0500490851841162
0,0508018883873953
0,0533577235633164
0,049890805034927
0,0523752870230623
0,0486518810119334
0,0513140777194442
0,0512326618473466
0,0508126563816937
0,0503299172828022
0,0538021351094884
0,0491886249971686
0,0520469659017912
0,0527452381994505
0,0541066124593347
0,050895550581051
0,0515319517676193
0,0548021851359839
0,0535603956942231
0,0502259380187255
0,0528100731457539
0,0492571183163313
0,0524048609737075
0,0526944742982155
0,0517229129420895
0,0546694163066832
0,0517636560799532
0,0513719361156784
0,0515607521790262
0,051333552712474
0,0526836238221691
0,0509420757670346
0,0519073555452461
0,0490814640235979
0,0525158906641161
0,0526594948450122
0,0521366495635362
0,0493943599617869
0,0505849913404493
0,0485814606933487
0,0485539243724553
0,0482773801904002
0,05337341730464
0,0497212771680616
0,0503272247514533
0,0505357653854805
0,050896728844968
0,0485582015960218
0,0509085244976336
0,0479329804936425
0,0474932677015922
0,0475641096221406
0,0495388346473479
0,0510276929158159
0,0495611039395399
0,0471876320898047
0,0504820091318925
0,0458853524847166
0,0504151420281628
0,0482679996359516
0,0495555535646991
0,0484975086097888
0,0503268143509824
0,0471295659327245
0,0469253021757708
0,0473013078452322
0,0490044724496986
0,0456783144567266
0,0484986437360317
0,0491971496004461
0,0490498030767139
0,0490318542361924
0,0470736335185135
0,0477759023580586
0,0485909691631161
0,0468934427343355
0,0471859437066175
0,0466514863495531
0,0491850893228286
0,0476373521990087
0,0478702343286848
0,0468238044821932
0,0482129702963883
0,0467357889024319
0,0466104700436085
0,044124259956847
0,0488068129512805
0,0470489030032138
0,0476342521774505
0,0463648430252148
0,0477631785772812
0,0459640672051534
0,0465961895637142
0,0458680637567717
0,044168988682857
0,0450819946343801
0,0473611129298121
0,0490734589189995
0,0462748697888304
0,0445386486715057
0,0466948627908762
0,0461111691121595
0,0470189723322932
0,0478483361910878
0,0466987086259703
0,0468473032786881
0,0451244269098418
0,0455043839995421
0,0464329644549905
0,0441029198818725
0,0469559032418444
0,0443967886587785
0,0444678172571975
0,0468045342444472
0,0451540753068482
0,0469080212954018
0,0455924799059767
0,0438337208324279
0,0474208147308503
0,0430335467490276
0,044441670647011
0,0436153515215408
0,0439273556539595
0,0463610802132524
0,0453508494410707
0,0445106072385946
0,0448846589628021
0,0439485550723471
0,0446330218979699
0,0447808444521105
0,043253345493688
0,0432050952346661
0,0431230245315026
0,045269556720075
0,0435643122790502
0,0424520353148314
0,0443295695076071
0,0436385284660955
0,04582538479984
0,047282477109049
0,0455025333934321
0,0439210578048148
0,0432411589795963
0,0415655711370671
0,0418952442246626
0,0422024035185922
0,0425534893352161
0,0421133383264383
0,043321124094755
0,0435021990129447
0,0425349364874835
0,0408785728963893
0,0425661862272676
0,0413137854810496
0,0422851776971946
0,0407926480380756
0,0411183616268193
0,0403220574632971
0,0410435588615332
0,039905834105697
0,0401660408433752
0,0402401770382085
0,043936678634502
0,0383711829149748
0,0418559147424671
0,0386103137175761
0,04044094184473
0,038334663588527
0,0414476334073005
0,0407045411737128
0,0391951860336617
0,0392473261460021
0,0419484416375513
0,0349848290326784
0,0392959758521905
0,0391183722778244
0,0378538350421646
0,0370727723757682
0,0396635100400702
0,03565361626498
0,0383256352840684
0,0372273550684249
0,0380907467836393
0,0382249602829659
0,0367177213982455
0,0367292847496398
0,0374965712839486
0,0356443945924287
0,0378841961202327
0,0343129401216833
0,0398606904355701
0,038207985721651
0,0374542759341308
0,0355835874331168
0,0377344975706994
0,0368689388345399
0,0381912984210442
0,0364084997929553
0,0393193724692059
0,0358493345396836
0,0369328908153295
0,0374040253316183
0,0391388562057083
0,03655130321845
0,036349387128566
0,0346936146196837
0,0372401753385366
0,0376592212664659
0,0372839789587203
0,0364769464648783
0,0339182506380598
0,0376267785522929
0,0362964902365315
0,0335286591618747
0,0381007325310747
0,0344144501486712
0,0348629878763564
0,0352872595191075
0,0372564081140059
0,0380622753254955
0,0352001469976366
0,0366868853731183
0,0348336482716439
0,0362307302098872
0,0348632336052226
0,0354113841487997
0,0353755232864475
0,0348286196881363
0,0341369524428243
0,0365328924337015
0,0352197666149446
0,0349250635059613
0,0344666887006617
0,0348215574521462
0,0341776651665993
0,0338520226522738
0,0338814375856424
0,0363776195784453
0,029143525082145
0,0356539452033234
0,0316047057737418
0,0359219371773601
0,0293859034292695
0,0353346016849301
0,037382864331349
0,0351052934814898
0,0349446314225843
0,0324565226156636
0,0343654151178062
0,0317392404901379
0,0344703278874373
0,0336773053612123
0,0331599623866177
0,030861987077699
0,0348588061536952
0,033143515687821
0,0349703584805936
0,0324368495522785
0,037382505411524
0,0325323752318296
0,0352310765138926
0,031822573556488
0,0318021247777419
0,0295825409752885
0,0309978019766021
0,0368060942829966
0,0357585120419251
0,0357347197897528
0,0340540635488603
0,0269002620430894
0,0418465899584948
0,031984977750827
0,0387721442033538
0,028299290394491
0,0378258103148566
0,0279582505789933
0,0353166262327543
0,0270318937690036
0,0370617528184505
0,0310899732038326
0,0357335045138263
0,0343144032579271
0,0334362001144077
0,0329449911956995
0,0313339352078341
0,0305989812745972
0,0321287640243535
0,0299087832100836
0,0349185454613447
0,0319831620366533
0,0323871416956825
0,0318912927805895
0,0353951656860919
0,0282255794938271
0,0346954182872508
0,031417222067035
0,0347358455311457
0,0279576714286133
0,0339832840988444
0,0279964622212985
0,0334490382911165
0,0321218857192308
0,0345882774584668
0,0322880901328041
0,0318828639004249
0,0318901105945707
0,030941959757854
0,032531729860291
0,0321075728793748
0,0313428723147663
0,0320797094043764
0,0331204664077012
0,0342579734556979
0,0315287208886656
0,0327641033085844
0,0341966455200392
0,0311946636990388
0,0308887487842961
0,0321562846920371
0,0309682699185504
0,0337483009393834
0,027300371273515
0,0386434155545641
0,0303879196849103
0,0374664071893541
0,0325874257919996
0,0341272352138308
0,0323051327419695
0,034115604732767
0,0314795010273079
0,0320107362598175
0,0324992757073468
0,032986633610494
0,031031346055761
0,033498604310467
0,0326932543987358
0,033798969326634
0,0320582226418273
0,0324961107509838
0,0289710945185659
0,0328784650339025
0,0328639352289555
0,0318308042828565
0,0352802281124904
0,0279565944189195
0,0335534284196729
0,0322060310557384
0,0374616204947672
0,0227867293492935
0,0427936180078984
0,0303206208546948
0,0381192602190751
0,0326495149019181
0,0347462753809706
0,0318874330992053
0,0307434814180293
0,0318110904713724
0,0330503620030703
0,032452068837788
0,0335675652899558
0,0320200043313084
0,033599213267614
0,0342928798349517
0,0265416783607299
0,0345572247432794
0,0385172002693411
0,0351330167974979
0,0399555953647057
0,0263784069886626
0,0387224430021622
0,0389495077349352
0,0334534901992759
0,0371117353377906
0,0305578149403369
0,0371941118874011
0,0312083280386306
0,0357367319286568
0,0344268340865716
0,0347137846275471
0,0307827031710511
0,0355914117226807
0,0328058075780844
0,0353834528645425
0,0352594397232005
0,0323134167051871
0,0363831937789721
0,0396670054232437
0,0363036271577383
0,0368988020459071
0,0335487600303106
0,0386356774071933
0,0337935211713461
0,0386318714997927
0,0297892014052822
0,0394191377164504
0,0366838107565241
0,0347683766139778
0,0404627434232779
0,0393113960049622
0,0345405311610163
0,0389346351715117
0,0342398748067994
0,04457658721942
0,0245025662473226
0,0456116448437571
0,0344871073729016
0,0475806962993254
0,0400656452810122
0,0395058405931185
0,0364308189929615
0,038793824890444
0,0393420848299101
0,0316785015205762
0,0477844000347541
0,0332198892688596
0,0450968286817485
0,0299699514103117
0,0445208575332965
0,0372435944376414
0,046157862553907
0,0372611285134586
0,0414414831843803
0,0332106919441632
0,0514710749149754
0,034911597643018
0,0402920642440226
0,0476860616206027
0,0363400121683579
0,0583329887759815
0,0379474015000878
0,0404402769421984
0,0486576776916911
0,0421523468217751
0,0476335808932126
0,0371662933523284
0,0486605629099837
0,0373960837224554
0,0407536050211088
0,0532368002218927
0,0422093286350993
0,0466641964933919
0,0443193195213371
0,0413270923995642
0,053855620071125
0,0463830371002079
0,0478161677524289
0,0455417982558958
0,0481051180584474
0,0315157872680446
0,0757654896547749
0,0386548492980227
0,0592991703056581
0,0489343290710931
0,0591543569864126
0,0539042611597262
0,059900412544624
0,0466095283077349
0,0566119422870786
0,0575767622107238
0,0603293335696842
0,0480746526067973
0,0644606741479878
0,060044865059348
0,0614556740890995
0,0664215466003165
0,0573149149681995
0,0546340978921759
0,0623088843944357
0,0763164730936761
0,0789712731982553
0,0693900796618189
0,0657029187196302
0,0774694057904659
0,0733413214896884
0,0768294604765936
0,0754373731909122
0,0739888111154362
0,0750614845268696
0,0768445874386816
0,0818533983553194
0,0756241795121908
0,0815208395335023
0,0791849453070228
0,0852374883054423
0,0803793731656454
0,101069083637861
0,0912312740141324
0,0818633202734248
0,100827406039404
0,0872615375511336
0,101420871791489
0,0897234827760756
0,0940529972869279
0,0921416972149675
0,0972983053693475
0,0965351494487906
0,0902306317596834
0,106935845667291
0,0934250760091267
0,11234202203907
0,10519437905129
0,107757303865329
0,092641873223363
0,0902387132091196
0,163841417034089
0,104490718384591
0,127650177358107
0,0946400114972259
0,133196243301713
0,134662272343208
0,130961570974145
0,121759707441001
0,128626756632805
0,123359662433561
0,132565798566255
0,130530400199832
0,139530858871368
0,142007152822341
0,144280332783312
0,131938612962365
0,154979033904237
0,156705121607971
0,181573777094782
0,157099663321698
0,167243908982979
0,167049529069028
0,173240245055815
0,168426065421787
0,188402062653581
0,168438261647727
0,19538245361287
0,189202021850081
0,203580445322336
0,186415347716279
0,197097699210014
0,20815694780912
0,195523577337371
0,235936243545437
0,209785771738217
0,232725998637526
0,218351215629229
0,234390682645067
0,226503045606003
0,227650762856796
0,253591226683534
0,24805443235664
0,249106430386395
0,244485060219652
0,24927000562003
0,243720674199405
0,261119301555598
0,255430285784804
0,261910315925514
0,264269856302153
0,251793878581366
0,358157731520978
0,266879238179474
0,275549845691031
0,261116122517349
0,266217303715456
0,283346585857803
0,263294328658591
0,306129489306496
0,27909366390025
0,271469660521163
0,26487175660395
0,270027664605501
0,263556933452504
0,272193187812944
0,269326078099341
0,26195570493405
0,280233130699439
0,249812014024813
0,303448489312652
0,282224612365791
0,268477166592738
0,259801277908166
0,265883546531374
0,26001483035337
0,265910897229293
0,244365319746892
0,265316560166292
0,256888434856433
0,253486759727346
0,255285408272246
0,233015257701921
0,261929048031323
0,244691318800728
0,243225603940878
0,234601175445692
0,231540794763906
0,238260593304417
0,212684742798519
0,237178744833454
0,237620191115195
0,222584784494488
0,217898169448645
0,217383426185826
0,214787209105341
0,214974006848795
0,204559319900057
0,215454488535308
0,212677813698228
0,206020242570967
0,21222359041985
0,206604852646072
0,209078356070358
0,210650315481039
0,210391075738426
0,207774204259391
0,215022849748298
0,212094821373531
0,213450907153362
0,208448282204285
0,215556327640757
0,214776947429393
0,214753348356888
0,21946670201958
0,217028986534333
0,212066464603045
0,225606313036352
0,214465570252076
0,224356556477207
0,221403188528387
0,225095142346795
0,226823953448029
0,229163339639644
0,225636996223803
0,232486129550189
0,222755901730539
0,233008435504263
0,227269892633564
0,233944309201735
0,230633049308386
0,238461516106873
0,231039643702399
0,228731497237179
0,269194353781525
0,251831090695067
0,252342251802211
0,235493585908296
0,248461854967956
0,241551520639378
0,23985706186798
0,26929777637013
0,250968127309202
0,255253281788856
0,248548933908738
0,246359213781607
0,256335859731645
0,250997934504811
0,248110206150072
0,248532030428452
0,233263215775275
0,282195212926127
0,238038935371431
0,303043530023447
0,259476077045903
0,266739258713083
0,233315502924424
0,263263783610684
0,25221042527245
0,248705873126794
0,232615448471958
0,23025935921119
0,247378221190415
0,232119402894876
0,238293296893877
0,228419286587496
0,219145476646047
0,227174373385123
0,225976983146828
0,216524626157544
0,228039614514438
0,220709125417689
0,206704205554632
0,206703510018293
0,232011143838228
0,208045718443226
0,195399615007264
0,202537093293431
0,18257617022958
0,195350641477101
0,199160733366695
0,187050103191548
0,192906472545166
0,177268461497315
0,180372709191413
0,168970185003381
0,187579450774336
0,166894983128091
0,175251414775904
0,18126517244801
0,16569387875906
0,170790566471699
0,155823700691006
0,183817957579944
0,17644134834987
0,170542849588784
0,146814563416238
0,170313523944075
0,160225720786182
0,167908984107649
0,161547638178335
0,148004247078104
0,155279052950146
0,159242362448651
0,144624869580431
0,1593130642924
0,142956674176468
0,154061191380868
0,145526767495166
0,166332614422383
0,167423720246418
0,148655349930155
0,146879609073818
0,146349788669328
0,146332817140456
0,15088635549053
0,13604331716714
0,167038362387335
0,140240250412936
0,154928762092196
0,15843262140396
0,152701233334362
0,150129639056016
0,156854987878202
0,150463932900862
0,151726993280745
0,159569631281304
0,176404944027903
0,155640464157745
0,170152309288133
0,16095963631046
0,174572490323525
0,163409486209101
0,173027654987815
0,169418769077395
0,17609098482292
0,177689099910344
0,18403582201842
0,183363994269787
0,192234640528176
0,17877612626617
0,213174892156873
0,196969727438943
0,20348615633919
0,211810661729274
0,204290272153248
0,240658844313381
0,219390535886985
0,225306495580678
0,226617263203726
0,226895180404142
0,237036558628134
0,228824143895734
0,244507236751051
0,247411257210559
0,248419172519129
0,248092506082562
0,254224142907406
0,255230581749455
0,24886644142916
0,265678171093894
0,245169335741365
0,29836414928836
0,262872756883981
0,280844336960734
0,264347677287345
0,264407375929881
0,272079808402321
0,268470055192947
0,28106415228061
0,268644263063533
0,276469488431587
0,280501645388689
0,274228817573837
0,279231712481159
0,273659334975288
0,279888760417892
0,280713531009839
0,28034003750325
0,288129556531816
0,284167491858888
0,29261464296232
0,284468299402627
0,286077702698871
0,323030970858876
0,303327998646941
0,302483060598447
0,295856641522922
0,308075470138704
0,303139062159792
0,306320132102022
0,319752751116347
0,315152541136098
0,319137141124919
0,314288126164604
0,325265503430287
0,319111679637123
0,327648103140768
0,332283004633388
0,326615934002654
0,338361107143034
0,317996661561688
0,357811961341922
0,33545155285615
0,347648483565296
0,338533737980096
0,346088757148855
0,340295866201879
0,341727511009335
0,344751238699612
0,342785935174225
0,34377529632923
0,341822256632727
0,347724424395065
0,346451362531439
0,345164023905843
0,346939449063049
0,342986738478858
0,352337726401875
0,348061959357884
0,343890088468564
0,34208780352672
0,342283105729114
0,336847044473011
0,346821489908386
0,338972008864825
0,342587319133794
0,330845319603266
0,337495660528896
0,348395442668823
0,3382149084278
0,334396944637179
0,339791220383914
0,328395127505699
0,339601184248497
0,328427408129831
0,336898877610798
0,342846811588337
0,345082518783163
0,339495947406847
0,341195722470861
0,34155993383939
0,348015627691214
0,342337017280689
0,348997053428837
0,351022689497409
0,354606051298428
0,357661545049125
0,351669466289043
0,352963503280977
0,353563737259375
0,35797762960707
0,365380594793015
0,354373445582081
0,35460206919567
0,354382917772984
0,35657114201477
0,351584060678407
0,350884886596873
0,345950934655022
0,353149654896814
0,335182838299785
0,34515994198525
0,347173746071275
0,334957367944265
0,342170267611552
0,327016547090956
0,331307867675093
0,323924519104304
0,32753668144856
0,321378116386972
0,323569820471143
0,321026715113134
0,320656751236913
0,315685287630254
0,316196430061628
0,310740267519017
0,310219715701817
0,316352860589478
0,311851195490424
0,312298104530101
0,309537159205113
0,310277704461673
0,311528313679245
0,305548624995604
0,31011795864596
0,307546303648622
0,314290417832591
0,309841716608577
0,31462980032296
0,31011415538907
0,316811654785468
0,305732978580822
0,308489419479985
0,305071432611395
0,310197575081301
0,306995625928972
0,305824335755935
0,30778359731441
0,306727122328102
0,306245897286135
0,304323307730812
0,304777864939626
0,304484331302728
0,305065347384036
0,303132855186585
0,302855233284353
0,304468071637418
0,305284415458126
0,304840068950278
0,302804106653553
0,303317294298675
0,303008364983132
0,30223803949314
0,302274206679423
0,303769982991062
0,301195398456562
0,301383941190965
0,299547450033468
0,299215906541105
0,299337357915997
0,297894649918602
0,299238829251267
0,297012398037475
0,297132259669322
0,297806481326504
0,289680114514713
0,291313478454517
0,291778463560939
0,288436515418144
0,286295068183948
0,284758309190351
0,281251489649578
0,281292297653998
0,278835463930165
0,275696363889173
0,271805845984274
0,26766131877961
0,267709138486684
0,266677191755927
0,265104165683301
0,261110607078006
0,259929593207364
0,259787407294001
0,2567393178458
0,25386985786289
0,255361475431169
0,250679572636346
0,252661186558587
0,251590964713395
0,251021026426461
0,249771362335495
0,25054543608397
0,249695651882107
0,249725327589004
0,248589566099122
0,252053618848714
0,250269796746157
0,254442726396272
0,254772471356243
0,252312605925515
0,255650342937079
0,255332695376898
0,25865852051588
0,260948496248853
0,259410604391556
0,262235017948535
0,261831643285318
0,262008658607001
0,265369442658743
0,264419314940366
0,266710280249293
0,262411550971404
0,267323886199725
0,264624494490557
0,268474663211551
0,264124113432197
0,266552245721684
0,264899284593962
0,267693199894617
0,266322526629736
0,264149944237756
0,263040329046963
0,261644619221353
0,263278607754512
0,261028790432308
0,258025035449192
0,259682960111901
0,255402805480659
0,257801915987912
0,258633492770896
0,256936625507116
0,255791611166148
0,253927308993828
0,252617931477865
0,252144895924549
0,250290834275373
0,249042539022659
0,24992738135193
0,250081084811484
0,248871029260515
0,246268577382617
0,246241592049463
0,243806995993977
0,243315280771031
0,241661497305148
0,239670856579388
0,239418240767185
0,239604205544151
0,237790441013112
0,240580772273568
0,236484269119349
0,235839359176847
0,2349229724886
0,233438521609292
0,232195219402418
0,230860560081924
0,229470885216288
0,226942083372347
0,227877696964293
0,223242972384586
0,222087986829867
0,222588140504259
0,219226017020301
0,215965012049788
0,214996517848514
0,215296798861513
0,211297449507994
0,211749678392133
0,209702166506644
0,207251136297079
0,209068889477834
0,207263817207807
0,206966407419013
0,207384830376142
0,203820222287465
0,205400978877974
0,20319648695233
0,207099223438627
0,202102580942782
0,201523268126877
0,198945166446671
0,197635439324365
0,197660663806783
0,195007916166592
0,191344718852135
0,188072496989489
0,185161896560546
0,184704048483937
0,183289006460441
0,180148025212706
0,179393821184605
0,17931046109678
0,179481019376954
0,178915233055618
0,178879323042612
0,18455848118956
0,189162277083462
0,192135215862342
0,197213308640141
0,203463219862915
0,209531322781897
0,219065125311668
0,226609557736275
0,233900231136357
0,246103420684398
0,253989745712721
0,266476730460351
0,273268344971538
0,285161481507136
0,294393291104554
0,304555370517327
0,318940330402785
0,327321285801471
0,337867569945446
0,350025740523154
0,35706950554352
0,367658324162775
0,380293336081179
0,39061213744956
0,40070542144658
0,409319857882887
0,417236404658206
0,426529877223493
0,433585349606752
0,443845699652487
0,445938352372028
0,450915118865047
0,457642127149122
0,459081043510168
0,467800921562263
0,462721642409992
0,466400935289346
0,46887033078173
0,466786447133449
0,468870551842243
0,468391429865364
0,467322266104486
0,465560579080662
0,460760708041403
0,464602951974283
0,464494400435421
0,464300381153224
0,46648062587454
0,463477491145096
0,468725227371059
0,470465933451211
0,470996309865652
0,476011507196499
0,480022532709984
0,483769986352158
0,488094598414686
0,494237525910569
0,498016423508593
0,502760683588558
0,506195825576389
0,520524032568164
0,527106117903027
0,531320717157637
0,544082110532624
0,547499749805088
0,558055836485796
0,566664288437054
0,570093393474297
0,579932824889134
0,583456138591834
0,586001578115349
0,592700488984125
0,587487271803948
0,600166834010513
0,596190052572437
0,594931766418964
0,59365940140261
0,591883854064432
0,587581244233835
0,583115809539279
0,584380349594185
0,5825205854248
0,584116289248102
0,585660864263897
0,586950198968838
0,594066736122989
0,597469017715796
0,607972485331296
0,612511571981479
0,622481478704411
0,631670051470609
0,639903621985979
0,649361484185911
0,662492652724054
0,665754923037348
0,67376013286734
0,684578367114926
0,690150638528105
0,70076601769315
0,713135285830044
0,722985032486107
0,731303177800341
0,748863780711572
0,757710884159856
0,770162130353336
0,79019567106925
0,796301251005428
0,814017850638493
0,836781455009055
0,846879576464103
0,869091077746597
0,883958180529068
0,887565588251556
0,909483395579023
0,924078759887305
0,93790561671986
0,940480402267829
0,954361705774084
0,95691579118904
0,97293258359971
0,984260000913327
0,964544644622593
0,978770051580485
0,983196858839499
0,979834311238986
0,982294881548509
0,972741239779609
0,974893176896554
0,964003780080573
0,960812515450323
0,962135962992289
0,953472006140184
0,95359058713992
0,948125675847732
0,955966808896504
0,950630752276263
0,95766423127484
0,962972171009986
0,967875598042112
0,977325138141317
1,00946771127877
1,01054930179269
1,0168188989212
1,01867590513433
1,03821240997331
1,04895409320884
1,05899228249925
1,06735657630191
1,08416718437658
1,08943814564362
1,1032955746333
1,10873774959055
1,14786465385546
1,13254600630699
1,13880585494577
1,15497699331235
1,15572646877752
1,17110230970475
1,171687532906
1,19207235902343
1,18949082065555
1,19635725050411
1,20340680451432
1,21676486924722
1,21977326708208
1,21732864267201
1,23295201162098
1,23982389082246
1,25133999068644
1,23146515415149
1,2558571225945
1,24782007698496
1,25506763927779
1,23065774407537
1,23749360260683
1,24088490415946
1,25867580556896
1,2412904306704
1,24831948025613
1,24063008556775
1,2272234626251
1,19239753478848
1,16897193022093
1,1290493480201
1,09382939967688
1,06166067233628
1,02639126715596
0,987018915135521
0,936095011434258
0,91215377183559
0,883935611494515
0,85822864847232
0,833661855011788
0,797646670864204
0,792885967546282
0,778510047074482
0,758527782600614
0,758400577365001
0,754562760149081
0,736804756771032
0,741268386916814
0,729797442671248
0,719762442650148
0,713631766287609
0,702717703008653
0,688428122918484
0,673013059108233
0,657352867495816
0,64717459910248
0,632062637534278
0,614697677340196
0,59181194619219
0,583732404698209
0,561571891112225
0,539179750429535
0,51474047660081
0,498572750115909
0,478610620054223
0,45275001493083
0,429113897084825
0,414489843780517
0,393598599433312
0,376277342342236
0,357148800364636
0,338876728440436
0,320477236702798
0,307137519104456
0,295438790263364
0,283878944774787
0,270072540379867
0,258900995848383
0,253482792095904
0,240839763741837
0,236465228977633
0,229899521502735
0,222424505991706
0,220164427009085
0,212973166478554
0,208675325208524
0,209891591341635
0,203395313450734
0,202591624322861
0,196827624322634
0,199253752728998
0,201134759264886
0,195231851389863
0,196784042458727
0,194954661715658
0,194783936846108
0,201345255813441
0,197057421102378
0,202144516271064
0,200233440182002
0,201041800424875
0,206166324389289
0,202450373885005
0,203167636506699
0,205821404880026
0,202970771230085
0,204953186185593
0,202973299681877
0,200599137200034
0,202490229570675
0,195846904120325
0,194321059393885
0,1976815472563
0,198594230591849
0,19891422022642
0,195737299688814
0,197785450901342
0,200754009192399
0,199939099188257
0,203501007969193
0,202913223542768
0,208061869062649
0,205022091865257
0,204757884836874
0,213457447554025
0,208130275993994
0,209825992425234
0,214067763614725
0,20991433578948
0,216659441974252
0,216675118320109
0,215477924530307
0,218133581642522
0,21564266597884
0,214861213992508
0,224135027997801
0,213258077611196
0,219487436669865
0,217338246544421
0,218821166622447
0,223214388140942
0,22098573536515
0,22359940186793
0,232821791744968
0,227947653694492
0,239340644197712
0,237854297082301
0,244511732501298
0,247301422270658
0,255510673845996
0,262902367958634
0,268130169586146
0,276797605520711
0,287172407540092
0,285638630534475
0,300494658776294
0,299840924743207
0,307353407153211
0,306951949368894
0,309665400623308
0,307599026682991
0,310792723141666
0,296685237978257
0,298578802396107
0,288836942196098
0,287154818823543
0,289319508950015
0,277730584543551
0,275377766827665
0,27412785741688
0,277733698702395
0,282514020788289
0,27158470941109
0,285964208211235
0,278076545657438
0,277281541349569
0,283588563020778
0,278194512401571
0,279106935567299
0,274749432347969
0,268312640007851
0,275672786961764
0,276309371738456
0,267293737568293
0,265000836473538
0,261046179340106
0,25674211018679
0,259500490875798
0,257781633738178
0,25522300710211
0,252424339202919
0,257987144587847
0,261611235831413
0,250531154007242
0,251068985376306
0,248483126319778
0,249056079294022
0,257610388059121
0,245404805321199
0,247561677589628
0,24260800586729
0,237328964381677
0,244448867465798
0,23863584073774
0,24671011131673
0,246901883598813
0,231225875458561
0,239221445146204
0,228714051942006
0,232575350714076
0,232663437454888
0,228768292226013
0,238811212312862
0,232019947925743
0,230167444606761
0,238883067611627
0,217638155039019
0,22086653653443
0,219528729793009
0,222708312226514
0,23479163893534
0,228130000127418
0,221766644444845
0,22816362984829
0,224140228692929
0,216694764115621
0,225310756731931
0,226694457536249
0,228941162999834
0,218952389162533
0,225804561476683
0,2361695148308
0,216640449180936
0,225251368952405
0,223607164288549
0,232048627680207
0,23696355025609
0,224720879251797
0,233477049114181
0,231867645996846
0,227097404296385
0,245664196310588
0,234420806712893
0,246822242571786
0,237678517134
0,240435663052709
0,246324950553568
0,247289869411701
0,253875134435815
0,268851188599942
0,243385805608697
0,260885672995414
0,264250002519655
0,267538124795366
0,269918100753907
0,262326840592819
0,268142007063093
0,281539033523928
0,283004460870997
0,286878473261279
0,280905383327765
0,303092355930625
0,306664003897324
0,325594667211542
0,320677925749405
0,335581318853764
0,329399889821297
0,348479959991897
0,344341547086299
0,366371880326636
0,368702470903591
0,387943753052101
0,404872284531846
0,403725392041188
0,407882435186059
0,393528142884085
0,38517896358524
0,412738286418725
0,39188131436214
0,424585149374047
0,397126876953382
0,396305975098326
0,395690607690518
0,410516731935149
0,390500769426952
0,398965756901702
0,396497759730156
0,391744487371796
0,397030388218732
0,403590627840266
0,394523743036566
0,378077858136694
0,381830471721818
0,372683972267436
0,367527708212962
0,388274475304056
0,363860017009728
0,406488803285927
0,362321954138285
0,361871292466584
0,348262969095856
0,384253793676254
0,357665251966733
0,387588528936688
0,345646524877605
0,361084064466821
0,351530309282755
0,358032602027916
0,382872246791311
0,387350042229822
0,370013101379834
0,376039383471609
0,347659639333457
0,37254552111229
0,346720672115131
0,347480633246719
0,369493828346255
0,354883806741
0,356788293921263
0,350108260286497
0,355217209458935
0,371478729281834
0,330226744321512
0,385509137034811
0,366891355307215
0,356347091813561
0,344126113538917
0,375851270105452
0,377129319010494
0,372181732022702
0,339602207175543
0,403210064533333
0,366198911377583
0,390915172611855
0,380110870886518
0,373622891688334
0,357708589022034
0,37860527215152
0,39668914941229
0,387342906572937
0,343767425119662
0,394265016856225
0,419435251179868
0,408010497636758
0,405643862060027
0,422880405464549
0,428936905129639
0,452768371604919
0,372356572623584
0,446511707201163
0,436892488414895
0,457741400831763
0,416495789995606
0,505165985517195
0,483580079774759
0,50252474217395
0,48784190482494
0,505031416423091
0,474578811497496
0,519949157602944
0,433647952027846
0,524185405581958
0,452916218789646
0,528814495507399
0,425949411974458
0,551036284413076
0,544748220289561
0,479223035239693
0,450241296981814
0,467885025167484
0,535176899942785
0,451072253910432
0,418136659160682
0,527265295793953
0,400504025013566
0,496228391300356
0,474743785114495
0,552814359653678
0,471404883843845
0,4547530446025
0,424462264109891
0,446157513350739
0,463201640311231
0,477399831668803
0,37748786608506
0,467778617256213
0,493143679654349
0,521570334978348
0,487065303905353
0,465017892496319
0,40899163632197
0,592075204434561
0,435118083066271
0,566286121945983
0,35214324790841
0,516778329792493
0,44339944485271
0,483096196543187
0,550635362656796
0,571462097820807
0,392121060100908
0,63531166512002
0,451781733697273
0,678395036309304
0,541910128142624
0,498750445360823
0,422435240685209
0,504526258713716
0,514450663655247
1,02441539076735
0,45501392303837
0,519564324038861
0,299796366139382
0,529079624263122
0,942392631272918
0,750732179474968
0,236013386707465
1,01477989242039
0,278348011990661
2,07580640500489
