3596
4000,36533379555
650,420452594757
1
2
2
0,0413885660566582
0,0342149879195848
0,0471390537058632
0,0377810935333167
0,0402585650993014
0,0397621653917257
0,0428450433052967
0,0344188886494591
0,0491040136565859
0,0362492971629813
0,0393327985468535
0,0383935621088682
0,0429965072157157
0,0383970831983429
0,049110961852418
0,0365237230132334
0,0408773551431637
0,0366255609288258
0,042876079173965
0,0406458320524342
0,047489585885511
0,0408737467363081
0,0522972232846318
0,0399624744180563
0,0349605371605705
0,0325479698723995
0,0462866007494388
0,037150760647957
0,0437428159049376
0,0452161123835874
0,0421502746757668
0,0317227017051886
0,0431450562840699
0,0387936581090386
0,0447265172005898
0,0332749610741797
0,0433438030984901
0,0312711389484937
0,0403923237358395
0,0386851794115915
0,0441678057553132
0,0373916307465104
0,0436923643175516
0,0372390735125509
0,0389483460543004
0,0377283808588912
0,0499486470134831
0,0356243680325097
0,0387914156837363
0,0451650593095785
0,0487440679060836
0,033526098037378
0,0426662775204366
0,0382156515989194
0,044620966621626
0,0390098985976928
0,0507149334005947
0,0376576847975225
0,039043181976157
0,034014189357353
0,0455075250187571
0,0402263563427151
0,0468838872758776
0,0383439146773036
0,0423212780419748
0,0421949418519835
0,047612878641762
0,0346027773688513
0,0415682652478455
0,0335257451274848
0,0347720100297636
0,0369210867063268
0,0502328574978188
0,0408801660593797
0,0413239285179933
0,0466966352543845
0,0419219923871111
0,034035924328223
0,0411534676583387
0,0404660579314094
0,0485321320310714
0,0337466209088211
0,0390977740216081
0,0264299292262369
0,0372427431950691
0,042612713719523
0,0313365498370715
0,0347971819714306
0,0543576268713827
0,0358260949090183
0,0383850366292374
0,0379817120028339
0,0370013486377196
0,0333124799150485
0,0367172530758247
0,0354210208415245
0,043500232834643
0,0363741206354823
0,0304383671081816
0,0432647601047545
0,0380953595125745
0,0299639506443576
0,0526522746564692
0,0282889375915619
0,0687033671020418
0,0368963428692728
0,0374907737986753
0,0446891740889098
0,0482193459181767
0,0369174949606998
0,0407764507684345
0,02985544154043
0,03895332847537
0,0315331184848979
0,0187403276225505
0,0434937246668739
0,0552893986106305
0,0360416241556515
0,0385474192995285
0,0365236153437316
0,0176569142667206
0,0336436333334216
0,0588244010088652
0,0367194089062135
0,0467441520198077
0,0364544104205407
0,0265184592785314
0,0501934836278245
0,0548792623210064
0,0366764945965565
0,0330855319021202
0,0355466902622433
0,032552877664936
0,0217282866780718
0,0538516823407317
0,0406822274817634
0,0359031939574582
0,0156148625715444
0,039044629468162
0,0573285200989796
0,0428165715520602
0,030084669173991
0,0276108643984476
0,0182310778397248
0,0577713530194076
0,0442516379706336
0,0259916279068898
0,0382277653482381
0,0462532885150028
0,034429261607077
0,0342393335956129
0,0314102039205464
0,0502340695852236
0,039210880660754
0,00292259738554813
0,0434533308040965
0,0612619006424732
0,0427094658305868
0,06439468771039
0,0414633945394097
0,0424230690800608
0,0349201919355145
0,0330483984935106
0,0223854411133083
0,0364850849863921
0,0215288816135033
0,0296384479818661
0,044637324816531
0,0400781673263673
0,0161598258973798
0,046664358958639
0,0345834011116734
0,0221944498977678
0,0659823783109828
0,0435443133368144
0,0269168146970891
0,0450880993843647
0,0490215585060125
0,0333198752802419
0,0332735545683763
0,0492696754855292
0,0303909690889696
0,0338742465947221
0,0305290630913279
0,0338287328002403
0,0370449716023692
0,0428070965202822
0,0334882985606806
0,0353189544896421
0,0192082579095059
0,0329336237653946
0,0551381879673567
0,0534662173767282
0,0495371909250727
0,0329894796179687
0,00145114544189946
0,0568253403625889
0,0589356772322967
0,0433427964383535
0,0332024377001492
0,0378933947174866
0,0314040022615703
0,0329464651638979
0,0368950903986401
0,0281876038656768
0,0135707330779903
0,0524921734568673
0,0411289943610482
0,037451871838168
0,0252896752389004
0,0332485750512393
0,00804995128429448
0,0643380440896798
0,0502338418681603
0,0354956805996441
0,0288392463517117
0,0289908334617802
0,0294728915792699
0,0457810358716977
0,0365766327671763
0,0386955145020338
0,0350080658051859
0,0462538658596153
0,0341339406311535
0,040938787863922
0,0372435632847509
0,0351252701017163
0,0316983672100676
0,0346970241306917
0,0291789736473564
0,0408708144631556
0,039374618390321
0,0407559760255164
0,0374397726498767
0,0274528028080222
0,0329961663816746
0,0524215142754359
0,0352818369510572
0,0333284149069418
0,0411823133306933
0,0451321697465562
0,038124441823357
0,0392183296239438
0,0367948434517084
0,0307357450511227
0,0262864672219072
0,0495545961371142
0,0375004010056499
0,0468470955128729
0,0236242022710051
0,053689035646802
0,0455547289253942
0,045941552262437
0,0351998180234822
0,0448171531609174
0,0283509021617851
0,0392159307483587
0,0391186645605934
0,0448177114878191
0,028769671154873
0,0552992207129482
0,0385353953241361
0,048159534578276
0,0197068501513731
0,012523439578489
0,0631545069666123
0,0483244647991084
0,0201927781796962
0,0810833751659274
0,0487473952297851
0,0576442526982044
0,026361529465119
0,0161438707721562
0,0779911595870031
0,085572629231115
0,0373835116825661
0,0457242791234969
0,0509548502038255
0,0421822117306377
0,0420335495454343
0,0369177549462227
0,0440507914634516
0,0420280940130862
0,0664949033571468
0,0808609454871373
0,0316019419412179
0,0582428351846806
0,0548428860166843
0,0541495516136635
0,0410665114473469
0,0454336043032012
0,0292771650008376
0,0558608523960629
0,0496559765334156
0,064670963324736
0,0417475135983502
0,0513967656141567
0,0578487020315593
0,0536795030733771
0,0358259180091196
0,0585255311278517
0,0480576937056804
0,0588580290568945
0,0465440406641779
0,0539582062495737
0,0589743679337313
0,0427687605916478
0,036472007741856
0,0804380230630586
0,0547078314594019
0,0604523858522502
0,0688194547591541
0,0642420868310961
0,0473562879501294
0,0615497229765927
0,054968606227745
0,0548961484311313
0,0462169678198567
0,0480799964051679
0,0602400676363757
0,0683828907296069
0,0538986690994447
0,0575927363280714
0,0528009502942525
0,0520393215050161
0,0548932475892682
0,0620900878627273
0,0593418370925868
0,0668865415563353
0,0436859594663701
0,0750977011835372
0,0749219932625395
0,0469440638812451
0,0791097635243418
0,0926557545602028
0,0678934113318302
0,0690586079056106
0,0631915722357824
0,0699883504636162
0,0728008922731339
0,0718996952117679
0,0678048009383463
0,0726340656567445
0,0764608576262366
0,0871499852475578
0,0646498825481884
0,0664658415733837
0,112313683268251
0,120159269165845
0,0981525718378033
0,0839477452744285
0,0531297627098225
0,0966653400365337
0,0844825652721384
0,118704505042224
0,0936188357942631
0,0935927293560433
0,0902727645593284
0,105308453524473
0,0959555980815909
0,0981098337642302
0,0941546980934617
0,105331177360889
0,0980824074034274
0,103538912453996
0,104150656181648
0,107385419673391
0,109426539292409
0,125633834408688
0,113960580039637
0,1231073069163
0,116618747697679
0,117698909965131
0,122443651528516
0,119816437363879
0,149491967876954
0,134341045902207
0,147763784348742
0,144083991017344
0,140709178554022
0,142605372292288
0,130751978441551
0,135442921834266
0,143260759768636
0,147996650540205
0,146785855018492
0,150067318587497
0,150169430343729
0,154130635513802
0,153609696154887
0,151671978184076
0,153357301337405
0,167177075821709
0,162997117517952
0,172359118010341
0,157964237496181
0,166492869303426
0,177558705179709
0,209672964594611
0,179721737660058
0,189829634387998
0,180311581650336
0,187294924067349
0,186678590333034
0,204434008913331
0,18802840839514
0,198526516566712
0,211047380224316
0,215400624919016
0,220748330867303
0,2193790444708
0,203495872905585
0,227918772555888
0,218512435638699
0,222917939993353
0,230628561981202
0,236179940920662
0,205685964507807
0,229923478969693
0,234916540824939
0,239720479155705
0,231002422639985
0,248876090070251
0,239580759944886
0,250939952022265
0,250582654480748
0,259039036762585
0,257699882680768
0,267580012524005
0,263413391924442
0,275135383109478
0,263511292043696
0,273812540227228
0,275489321030352
0,282301290686916
0,278027189667574
0,288726074784925
0,285783794459137
0,290613513583956
0,273945087801269
0,326572984314197
0,296033584430572
0,309783943380534
0,302593450765317
0,329756574950139
0,302945916487176
0,32506567366039
0,309850158664779
0,333428392327722
0,325049083146711
0,335445590126922
0,325923348730253
0,34458706334924
0,339177742226391
0,357081172951078
0,336379210077304
0,348429479083061
0,349165199202558
0,356486753476056
0,357851403419471
0,382286136417544
0,352252570252437
0,394561538967656
0,402276434597877
0,41628529037629
0,382223045776931
0,386649709447058
0,358419753002801
0,405183954542771
0,383004132888829
0,394979659950254
0,39389385434425
0,420592701519141
0,398923876323619
0,413113803400552
0,407398480978286
0,415167908078097
0,418261896136904
0,457317138818178
0,433905553128881
0,449000202024946
0,447121554715769
0,441104975138547
0,43632765370842
0,459350563294159
0,450491370858428
0,448518601455063
0,458685134824772
0,479350409454662
0,446964672331281
0,467781897225898
0,464189677428044
0,482546193478365
0,474229561168163
0,49777777931705
0,481005159184503
0,499117815194844
0,494174306073497
0,51049306505191
0,491906136917673
0,530836214808631
0,529462817532101
0,531260883139412
0,520949548342361
0,535997573108049
0,504717478260771
0,53912579744289
0,529117057523651
0,53906607946605
0,521136439088454
0,541383522167925
0,522574692296436
0,565121454114179
0,545277949189361
0,584878758995479
0,542826726528136
0,559471384133729
0,551500783124159
0,593007807967263
0,55854837159179
0,593927815956284
0,565790156928071
0,590120849246916
0,595373752747433
0,607355407356289
0,572776603180029
0,618536566677398
0,59983081402626
0,625891920879166
0,570945106182652
0,634115635769826
0,615897720878081
0,639596494039427
0,635680010632459
0,665237116681639
0,646176743328782
0,672056393569953
0,628816701136879
0,657006915949796
0,632230634747816
0,684222425674761
0,637283678456609
0,678196441535723
0,620479615767943
0,670625315500697
0,68065051737456
0,692024135567917
0,677476367358651
0,747368616580856
0,670915892037273
0,723663236032037
0,710699297878414
0,711025781717902
0,690062752022897
0,710527399255532
0,72988891861304
0,75121710039196
0,70690398851275
0,738824364860624
0,72788868872984
0,761275947078487
0,712072463478033
0,763657027468526
0,728399432204973
0,738975102035027
0,731821910678286
0,758558754163638
0,741659079547236
0,753741487992686
0,744971288650441
0,763446228132167
0,745817008884509
0,759938440963691
0,742013319892244
0,784385182099728
0,805078904461675
0,801372026797412
0,744507227829909
0,795272525789336
0,776124433681195
0,836612877607987
0,796523008703913
0,857314153597117
0,798464711259477
0,849911717403706
0,833353149426564
0,826335199387368
0,802620970845047
0,863465543600616
0,826901018842978
0,849125086772948
0,82609213764115
0,863403504500348
0,830142004330084
0,849490440713531
0,839845051580774
0,852507542273022
0,842835412937449
0,841207384837574
0,837590254164754
0,887391818094174
0,861956983541748
0,894561476297431
0,862792950706182
0,902588581820142
0,875117371456113
0,901999558523888
0,848972634588811
0,923373372489693
0,882669139187263
0,88897947431739
0,878699363564111
0,926107886692912
0,860971824272156
0,98260947751871
0,943949779553501
0,935061617428746
0,932938755693593
0,986787868830551
0,970104405803826
0,973972351437341
0,914846838161999
0,963455131105624
0,944393605706427
1,00268255580331
0,963164889964981
1,0026684116407
0,970710685579621
0,999462418178495
0,906147927439284
1,01528974601594
0,91557752244653
0,925107247726927
0,970523301700485
1,01130905598813
0,966559555551124
1,00121956959343
0,927147964677594
1,06324709725047
1,00079483909254
1,05643849134338
0,978608916985331
1,02257556259562
0,946322565752845
1,03964701458319
1,04120167641605
1,06534222766828
0,984206787441422
1,05665473585821
1,05345933846918
1,05559364101662
0,979887882343816
1,06889491480548
1,0588151717787
1,08026426874539
1,05474322135003
1,12583003629285
0,974325315995294
1,10452688250186
1,01744319273226
1,05060270160624
1,04650821679964
1,08053354843996
1,05534415772436
1,03898210770331
1,07318419220657
1,13040646973558
1,07072915466699
1,08566280533967
1,07634939485908
1,16877900405458
1,01524244226683
1,06733982122999
1,08963898252952
1,03464720089122
1,01566795168
1,12011631753729
1,04222154013896
1,15847615354218
1,08461647273748
1,15846673368455
1,09500369073241
1,13890468470883
1,1073022047565
1,16316382685637
1,15930080089511
1,1429635332112
1,07224903823057
1,14617578877112
1,10889403418376
1,10163853978907
1,08405404768161
1,07476609479441
1,02509838957362
1,11587880786812
1,06774787619375
1,11692684604783
1,17445888429718
1,15310917521395
1,12205895034512
1,22648877225692
1,0858485360701
1,13236723771667
1,10292053463465
1,14551744185898
1,13572005892289
1,19014139761524
1,11348400617394
1,09704265078979
1,10727745775339
1,1621926486611
1,14674718167545
1,19423793831279
1,12120784764889
1,17795045735487
1,14873934340234
1,13728158729187
1,13100181448451
1,12010481367516
1,04779285954251
1,12756720062178
1,1512323023639
1,18109020063581
1,131647398456
1,17674040416983
1,12409899992512
1,1873165817448
1,12299881453347
1,16465184064722
1,18676608619843
1,20204088138249
1,12962238233405
1,21467287953716
1,13914103438102
1,13032366082977
1,14240019111294
1,16384977503978
1,13243059761826
1,17584020989658
1,12753069467377
1,16832646880309
1,1522403407107
1,10236817936791
1,11794428786973
1,20727864059053
1,13365005147892
1,1648236240151
1,14789090035049
1,1430284292775
1,15801672720157
1,12420119483052
1,14234789820312
1,22056131393936
1,17338588941387
1,17587548933427
1,1815071476725
1,16971710352189
1,13187203551136
1,20974176327882
1,11237452070399
1,19666251849151
1,17730790213395
1,24534514071497
1,15563205395291
1,17463261042582
1,0938290773222
1,19474072203004
1,18396766107703
1,11700650239039
1,14191149409825
1,18730875561654
1,10709590833183
1,14291053348029
1,17379807292834
1,28568398077872
1,09905384202543
1,13451712332146
1,12114267423118
1,18195129849817
1,20469406453166
1,23615836893414
1,1465577420417
1,17341400174934
1,14425561524493
1,22098823816112
1,19841418829243
1,1906936303774
1,15258966652092
1,20434507167121
1,14804637192303
1,17535568860191
1,11504177680233
1,17415013979911
1,15878961458059
1,16435799293585
1,12348252479802
1,20343829432233
1,13083143530982
1,18921002876373
1,14231493976008
1,1949224977404
1,18409648575961
1,17357778994428
1,11206032821378
1,1719788088089
1,16939535272729
1,16787620578174
1,10195963684063
1,21913567253252
1,16017685369405
1,20023257176946
1,18609363076145
1,18721181174234
1,12514902902755
1,22636147228943
1,16022084658006
1,16058023025904
1,07052560609159
1,18486127025481
1,0821709865665
1,11229950215314
1,10121367257192
1,18263457434318
1,14760891355295
1,13063265154777
1,12561881282108
1,14495853886984
1,09446694760474
1,17341490139324
1,15262604894216
1,18526065475819
1,07744837195087
1,10488407832818
1,10416326606659
1,14096069765225
1,13688021800826
1,14101936544618
1,13903842170501
1,19705769596987
1,14191825027955
1,13767516660948
1,08421613255313
1,1149864911357
1,08879535233363
1,11074847402328
1,06085853793284
1,10096231712608
1,05559112880427
1,12377456045802
1,07573200945223
1,08116856971084
1,04425989323412
1,12389324734882
1,08620703943904
1,10263725563126
1,03913742285629
1,05595563821447
1,05410968594298
1,10341008953686
1,05934625082439
1,09401006084464
1,04479943707609
1,09130648911776
1,02516420693731
1,05654238912069
1,01699948014817
1,03158362006266
1,02537024342655
1,03432761864061
1,00137082380613
1,03232539323307
1,02511798394731
0,997088232547814
1,01446234224057
1,06469739125469
0,994356913506806
1,04578411571825
0,9761974418323
1,01954718041341
0,953820396357085
1,00553517144753
1,00266687147882
0,990937874515619
0,989204617505757
0,986921301826717
0,970363855173825
0,993277700808963
0,965435621320438
0,974156555097028
0,966397654117852
0,976629144745696
0,955075622323491
0,992407402443251
0,974567284497127
0,97198568411002
0,932204795083827
0,937462503001484
0,914807395417593
0,925986148955874
0,901619507353121
0,920521965754638
0,904202211668166
0,915226446127495
0,913038100765605
0,921503429568953
0,908979087403857
0,919479898275113
0,889528416934496
0,908125099458858
0,875278001404919
0,880484581725627
0,87173596077651
0,901527883902714
0,863004526072917
0,87041242566165
0,88960543139129
0,874212879923157
0,848239382676247
0,902530602510189
0,834359581988212
0,852998421881136
0,839731513122169
0,857450081657224
0,825757746013443
0,832546033814962
0,832085571534508
0,849711821621581
0,814389767655011
0,81150876983905
0,796856741427912
0,838243796172688
0,796329922628075
0,812991013563595
0,778341920773328
0,80139292456707
0,785307870079738
0,784905045017359
0,762991394074976
0,792237305649095
0,76343263368992
0,774195767564044
0,757140883020344
0,778926904778929
0,764196800062145
0,788535357809566
0,770012000207071
0,753880925355089
0,723532711301485
0,744688407234595
0,744214555052283
0,758555672458828
0,729704541730881
0,742777798176213
0,723462472822061
0,734297138898419
0,70438668752715
0,721752211291013
0,70851278306127
0,720069068990118
0,696061354158357
0,715080447042598
0,697527728769272
0,708262715342179
0,686297337458405
0,693833063965388
0,682177520644088
0,691741042884869
0,654236160239879
0,687522960763652
0,668020177433596
0,677586304364176
0,667422025484032
0,662498956059126
0,653004928834599
0,668003032251874
0,640274645477122
0,643606893031477
0,633357703758695
0,640125508347052
0,646752574304337
0,644140963163378
0,622251775264511
0,63810873301669
0,624006337918716
0,634797983642654
0,625247900846017
0,619404417271918
0,600176858301637
0,618983286698833
0,612083946777683
0,610901549220375
0,601821606979965
0,612070944806456
0,584650859130505
0,600634749219446
0,591410735143318
0,588026572759245
0,582276307509651
0,583193288337532
0,566594383413586
0,578347422651826
0,566380874393445
0,576883379709451
0,563239617594983
0,575591784868244
0,56438366603017
0,570771857746399
0,554901573435528
0,556347428809304
0,550366763782176
0,543072181937455
0,551569125063922
0,550140084284903
0,5416869066291
0,545605088036663
0,531383376481399
0,532993696151047
0,527386327987366
0,52210275304251
0,517726294368703
0,515071257937537
0,501460755716498
0,518446568296742
0,498859958729589
0,518046594703807
0,49731567430109
0,497395368929047
0,499305843987719
0,499528367066638
0,491888390469014
0,497733002455447
0,489506457250061
0,491995695557026
0,477647081197702
0,492478865184367
0,481983173083287
0,488982117751489
0,472478356314035
0,477835057206299
0,474090987781961
0,471696739378588
0,460322625625113
0,471484528697013
0,458579359941212
0,463355850349568
0,455993496862386
0,452436364050032
0,445569514161106
0,452503809928118
0,445285358909452
0,450584353105612
0,440734247689517
0,44558164295059
0,43987288955262
0,445431063330468
0,434344095254616
0,438267251128227
0,430727336829461
0,428392856083285
0,429155470427995
0,432785440089748
0,425790357738471
0,431673397234853
0,428287758019712
0,419865997540456
0,416397218667314
0,430957352099159
0,416712527915869
0,426067908350611
0,410584583725537
0,413929002453003
0,410374176525733
0,415708658623679
0,406706292409225
0,409955775502547
0,403131417968251
0,40964998096981
0,406324703848711
0,415745784370119
0,400029751511005
0,397738496845867
0,398401059256595
0,40358505887612
0,402788734221588
0,412140629322954
0,399492781892509
0,405113168109408
0,403176629341306
0,406222516871018
0,404895506801663
0,40794731793233
0,39506346480118
0,406376083485916
0,404080624593253
0,405556720626808
0,398319411697344
0,408971623888088
0,401359549863481
0,41411840644699
0,399754184590655
0,398860936659026
0,398418872881213
0,408321930959976
0,406404584154748
0,411108187979275
0,405083337815353
0,410673115031086
0,404640400188655
0,416266678866634
0,410440754786744
0,405359405376744
0,408154232143732
0,41990373803672
0,409889328366703
0,411816120781541
0,415733896112933
0,42178786292435
0,413734883017575
0,433174095225702
0,42401112655617
0,420375983347887
0,415832552208059
0,419771126285509
0,42323095997208
0,437319423371989
0,431386307491079
0,437886811300842
0,430404051865983
0,434592786132092
0,434348584933489
0,449757483193702
0,446595516392804
0,451961080840099
0,44232702005107
0,463523870275414
0,4563556645528
0,462289587236528
0,458659486203725
0,463073706554289
0,460463289859008
0,469670999482747
0,45183280997072
0,4743694300263
0,466030374528641
0,470515596501015
0,472179356002506
0,474935574400626
0,462279041296731
0,467074754177101
0,476463204254098
0,482656408410543
0,474480761167202
0,47812267085849
0,466142827442343
0,471065918805031
0,472214856079025
0,475843877742159
0,452904894834943
0,475882863752983
0,462611692211697
0,468985842211604
0,462743033816118
0,467729194606842
0,459509175355896
0,465968348849573
0,467965211096735
0,471116841079362
0,452062813693493
0,461036533243387
0,454228580231453
0,464691825208552
0,455316747943503
0,456528456349361
0,460776241253123
0,462454877333855
0,454715289709503
0,470092880683371
0,464015111424392
0,464569903230979
0,459299844159222
0,469870769388085
0,462278196665178
0,470295890994693
0,458871312535686
0,459666831586059
0,464588072631024
0,462837769291743
0,463434305655294
0,469886596313688
0,454246259774135
0,46404649436692
0,454954442105408
0,466745966676997
0,460711015400866
0,46622044684437
0,455104475566041
0,464465499947949
0,464622619787281
0,46039101857057
0,457373930222118
0,458982521635732
0,456319244014564
0,452646251886932
0,444654912487419
0,462669048132092
0,451148942381008
0,456175777021628
0,451673373515871
0,450361423757403
0,445090759110537
0,449305034269923
0,438719571314693
0,444110136514775
0,439920461270411
0,441179872771262
0,434463413632359
0,427718166926628
0,430320726536119
0,432183672793897
0,422516409180974
0,423992571946406
0,409683009387934
0,413616222675349
0,412327965297454
0,417615165415355
0,408940603345007
0,404716698943018
0,396560636411228
0,408364072464987
0,396445315215032
0,398533718998355
0,39342312980822
0,395797334127157
0,389074975897013
0,401575537702892
0,379022311921796
0,387896936839055
0,38144524758592
0,382886769945344
0,378522523721926
0,373340416779734
0,369626494484617
0,375700124429509
0,364700394173462
0,366094150030226
0,36345980891024
0,366667981020381
0,359225544162596
0,35837099042424
0,351833755985333
0,356953557253158
0,345657607379444
0,351358156758738
0,34876955896131
0,351890952785249
0,346209789493332
0,347373779900937
0,341905547788088
0,343024549651821
0,341729337868396
0,342765903216677
0,334644442262088
0,341202807380626
0,337477993029518
0,336072915348595
0,322102184886361
0,329992731406541
0,329137433750505
0,326631435682254
0,324615347473102
0,330939602100037
0,322411161308456
0,330116146528465
0,323268740696043
0,324232838628072
0,320409935828272
0,316965397004438
0,312144086125591
0,31474467181555
0,313213437239463
0,322674238627492
0,310427728022324
0,309181198210825
0,303512189797885
0,304769203372317
0,309683320191657
0,310602093365115
0,302942743755852
0,308494046640989
0,301533242200482
0,306859178013532
0,302909954759362
0,303607757143341
0,297922960034338
0,297855148179374
0,288448415732086
0,299269400954435
0,294676984137152
0,298151595973411
0,290407449220418
0,29614676603497
0,291047930376702
0,290334152395994
0,289470182138931
0,292220771262196
0,282270153937381
0,286064848479229
0,284400069977153
0,291166737553784
0,286217912345317
0,285632342670492
0,281994148729581
0,281723067169575
0,28276396891813
0,28117016463369
0,277633885391305
0,281858602536723
0,280568774404956
0,278654507073792
0,276347464416586
0,276219554342315
0,275089061663263
0,281736691521813
0,273842558478822
0,27793781452334
0,27361315363072
0,275452965081679
0,268997991358467
0,274440853160622
0,267981678773025
0,272246781073138
0,262784471709672
0,267735515499037
0,268726149046041
0,268078315151077
0,265284965634552
0,268163283802814
0,265534174114883
0,265595469505554
0,259635525135693
0,266821884758976
0,260965119152055
0,262165043678835
0,25971577006157
0,264493678881306
0,258886468384677
0,261987439940381
0,252148629433992
0,256770117761311
0,254501911585206
0,261952182400748
0,253819106548666
0,260265154352272
0,251305585341079
0,25615754057978
0,257498112373924
0,258910864572893
0,253865000157773
0,2587455742731
0,251308475162858
0,256619155572311
0,249521938962829
0,257482105728447
0,252138293807988
0,251973307027146
0,25124384643569
0,251805845509419
0,246606391286628
0,252034191807027
0,246390615696323
0,251699084856881
0,251617883404607
0,25005561684985
0,249579850839244
0,247117808843276
0,248230993865605
0,247600136397159
0,243540521058084
0,246636656153729
0,23977643030893
0,24451898409916
0,242641357910919
0,24467850945138
0,245442388007406
0,244183881496197
0,236676362783771
0,244395810036246
0,242066341303946
0,241969394158542
0,242494168467925
0,243872428764342
0,236073965797152
0,23790499360377
0,238665204936313
0,238312964045111
0,233695612369265
0,237632661773195
0,234613951911539
0,234352252261473
0,231278380314429
0,235044857017133
0,226351536998672
0,230213376988458
0,227266778317538
0,231206259529726
0,227785686411184
0,226982559822267
0,223259474591033
0,229008042083349
0,22590505308605
0,227882921788061
0,223816489217042
0,224922204574813
0,223260861829531
0,227137257488049
0,222441838015711
0,225922202036153
0,219464996979842
0,22084685325177
0,215807494902457
0,218429575883263
0,219831342892026
0,220285248121823
0,215393638173129
0,218118719466957
0,21740307594059
0,212858516821105
0,208022766373051
0,215927532914525
0,212164736102002
0,213074573473111
0,214958096769
0,215276050371047
0,210488986118266
0,207154148802183
0,212138335567758
0,210399924153246
0,205844610230235
0,207252138851272
0,207196488968536
0,207821148530939
0,204008191943167
0,206723186677417
0,203236405678955
0,206470492714576
0,201994446414708
0,202913037190359
0,195007101134061
0,200546337000887
0,196765019928845
0,195356031684025
0,195985718912978
0,195859912401774
0,191622000200479
0,19664484930114
0,189642648842552
0,195059941594276
0,188710274168783
0,192018956683795
0,189800260910931
0,188743212256614
0,184149823398063
0,190095689024028
0,18299584158756
0,185563483299789
0,180342148364168
0,184327741032347
0,18087661355702
0,185385286180766
0,178306715063857
0,184236345561513
0,179816714234691
0,179324824328159
0,174809345783537
0,181213273748591
0,178102045825708
0,178564330350629
0,177092626050859
0,17418077147441
0,169921260162522
0,176467061826149
0,173265500824245
0,173620349314596
0,170161244062744
0,17339042425578
0,1711737714045
0,172296366271803
0,171366391057317
0,1716058673745
0,167421912546474
0,171433034115606
0,16610626880571
0,171208599263933
0,170642434264914
0,170331031734732
0,166290642898983
0,163974554326067
0,163473467030092
0,166804042577765
0,164445395336756
0,167979033221775
0,159402153807827
0,162732701033109
0,163231037772883
0,164481452329428
0,16031780088733
0,160642673537536
0,158915418021245
0,162059083934481
0,157242155440448
0,161176411266777
0,157842748654816
0,160593246546077
0,15745515518681
0,161065746741545
0,159750340487014
0,159297599403932
0,159216807336654
0,157965637088689
0,154414925596258
0,157477605010303
0,153301062539249
0,155585075542022
0,151825294438926
0,154192667434433
0,150997355398127
0,155604653816321
0,149366270471039
0,153226566384339
0,149690960637196
0,148657973367305
0,150621008293921
0,153566230868523
0,148946162377502
0,153674970410152
0,146120799365809
0,147433633739199
0,146963713416479
0,149017520949178
0,148309808786953
0,150209750780116
0,146627371506344
0,147913055700846
0,145860231780469
0,149100777602369
0,146821903544172
0,148765565456939
0,145629496048623
0,14518343526751
0,143866791006359
0,147304328968178
0,142479289655234
0,1486751440111
0,143783263410127
0,144779096760443
0,145308904338935
0,148711538406329
0,14049538607783
0,14557133486188
0,140258009560592
0,14363453305448
0,14145826113726
0,14548723620531
0,141440671478231
0,14344033556642
0,141369176520992
0,141932656866045
0,138527512599092
0,138679508534646
0,137247075891079
0,140774512810061
0,137161437463884
0,139166175625748
0,139926720846991
0,137583592141038
0,138833437531681
0,138353634202924
0,133954112717803
0,135992626727369
0,133491244992969
0,13673639241303
0,133281515413475
0,13966625751005
0,1344890988208
0,134119788594668
0,131258640995025
0,133770599228952
0,132807599105248
0,135250148128378
0,132600420345838
0,136109752156598
0,132895274088954
0,134127174977019
0,132241462134635
0,13293695818984
0,129703066838132
0,13190076606803
0,126903177515513
0,131952287274276
0,128121297671756
0,132244435295697
0,129834801817871
0,129572672065255
0,129899853689272
0,130762259302366
0,128463079892839
0,1310566049265
0,127992032818144
0,130849905869886
0,125333819651493
0,12658314894821
0,12891033866313
0,127891947087932
0,124891915864453
0,128584750728801
0,12427610397302
0,125233783962467
0,125317545997343
0,124290673305697
0,122849477282014
0,127121907151363
0,123704032764833
0,125519579128728
0,122442395181903
0,126656461336663
0,119809327727542
0,123851487509768
0,122460286187377
0,123475362270368
0,119013631340222
0,123889457702121
0,118627068184941
0,121944460934189
0,117256110956709
0,120523371047902
0,119872361656105
0,117527975887797
0,117149934810237
0,117819108776363
0,112636607087037
0,119152570777452
0,11495820645882
0,116704542530335
0,115025387685176
0,117700228026586
0,115907555265649
0,114223753810557
0,112670751473589
0,113928547576398
0,10832975451073
0,113774165389162
0,111572707232964
0,116126187061554
0,109579092129179
0,109562094070373
0,109519416972494
0,112774492246431
0,111204587439995
0,111883457725019
0,107720591819137
0,111229233976324
0,108171788009486
0,108050153141223
0,107210771725208
0,10796726071912
0,103595308861045
0,107285167480944
0,10496233721795
0,109847214729289
0,104969152214369
0,106276963381946
0,107911605375284
0,107125235018744
0,104907496275764
0,104499335747058
0,102084634878056
0,10424982856474
0,101183618482718
0,103649879291577
0,103789758538969
0,104508288245483
0,102349185356512
0,104117121013584
0,101359859074244
0,104367736818558
0,101817032746061
0,103858838147729
0,0986556504324268
0,103809897446777
0,101431429941897
0,100790753799772
0,0959437102691736
0,100905813676537
0,100026881407942
0,102632563471205
0,0972185771154834
0,0981473403276442
0,0951687239229038
0,0985576371744755
0,0957634171367805
0,0966606404997575
0,0965824953709073
0,100023523151597
0,0933006013259463
0,0958438419768105
0,0979742674330632
0,0946380528516659
0,0933365658673587
0,0943847971285448
0,0917586382394915
0,0955486816969101
0,0902143146286263
0,0957287721102575
0,0935582224712379
0,0975134598512069
0,0922593740459556
0,0937663907490735
0,0904083130595608
0,0966420872782335
0,0927673801853973
0,0939144246962262
0,0893813458569893
0,0939163508632779
0,0900673794816901
0,0916448724033364
0,0903933248937979
0,0935631842665244
0,0869476985293122
0,0909216703494885
0,0902066025782764
0,0921256699545547
0,0886403803294918
0,0926130593362897
0,0930588991356889
0,0901814975688692
0,0890094457109371
0,0934852055776754
0,0881994034994859
0,0921652173533396
0,0874858940752033
0,0898550428655863
0,08793445413465
0,0920690112327485
0,0890412539223374
0,0924721165042676
0,0853637144155889
0,0901591367824114
0,0857179640868822
0,0895125505712883
0,0820683242837375
0,0830172594650802
0,0876788050092793
0,0929534787478008
0,0849003643150787
0,0851465888870925
0,0795923543725033
0,0946721459957547
0,0853990899491398
0,0897331592926523
0,0847153868571265
0,0911887936855871
0,084071990100614
0,0876775188020191
0,0834063345125587
0,0920507261295191
0,0799524017118147
0,0920628053792424
0,0818324554701401
0,0959606126137027
0,0869336037677217
0,0923672805643477
0,0824356600427251
0,0904267558891823
0,0803107406466045
0,0910747321830129
0,0812222481830338
0,0887653293061954
0,0799982346117721
0,0918088600314032
0,0789672378117437
0,0923382860562672
0,0842214975078703
0,0839303282672673
0,0786338031096204
0,0851827645379598
0,0801412448625674
0,082931501052671
0,0782909254166414
0,0880572973839019
0,0888506364055973
0,0874051152409302
0,0899289796904988
0,0777137375874086
0,0884065201667309
0,0763186024721556
0,101392652928214
0,0741760041297905
0,0975329039866693
0,0668350409986312
0,110790308929666
0,0691565395006535
0,106405719225311
0,062511245066656
0,11823650421594
0,0642411761540017
0,106467978822458
0,0647036009971895
0,108925408573948
0,0708356481050177
0,0976011309067618
0,0797893963456677
0,0915467215913871
0,0819385673880597
0,0901695042813342
0,0858899084176145
0,0840429153985728
0,0913732366851182
0,0844336111554795
0,0894843553578049
0,0878568317798366
0,0839860643338505
0,0898135753775149
0,082388210052599
0,0894840666347382
0,0865124797778029
0,087679043826308
0,0823396711883266
0,0873358450028315
0,0847066895865236
0,0876384622492913
0,0834948311146418
0,0875906163590421
0,0856908019144101
0,0893999554921161
0,0848491321547832
0,0851380427833911
0,0850871471022198
0,0877233351042831
0,0849345803201123
0,0881627467567172
0,0864111356078611
0,0901328597727671
0,0841162704352719
0,0895153441692501
0,087517507049749
0,0897439817978569
0,0882997402919704
0,0865119148409958
0,0861225630490517
0,0881954352772633
0,0870834470341475
0,0893420775533676
0,0884350662568505
0,0903335830604684
0,0899741546301783
0,0877808929672824
0,0865681709456202
0,0875896270723406
0,0896110605785866
0,0903218658557632
0,0883403065717043
0,0899686110167942
0,0891940385248906
0,0898879244945296
0,0899003095242721
0,0940264368588383
0,0888747601568937
0,0902487029336161
0,0888901582428673
0,089429652547496
0,0922291278239099
0,0917139112231366
0,0908484731186204
0,0915338807730241
0,0893983458724017
0,0902063541828558
0,0920140456794633
0,0923783121395909
0,0921004151668927
0,0899001913740609
0,0907769275940823
0,0913439336606909
0,0900517264950986
0,0926786927606418
0,0903158659805876
0,0904383816558632
0,091021492132016
0,0921139248594709
0,092690974458431
0,0936185671087201
0,0930901828674189
0,0921343801430836
0,0931665767787569
0,0933088124832748
0,0932391069898021
0,091423594539566
0,0945527411007032
0,0931216875133303
0,0936252416915976
0,0931411686740445
0,0931857022148792
0,0943906747971422
0,0941789542345177
0,093257474805667
0,0936157587545914
0,0927804470242044
0,0930158595993119
0,0948968710820794
0,0969620563785686
0,0952559729832481
0,0943153638774232
0,093648285149382
0,0956377109613375
0,0970833590451786
0,0971031030930894
0,0960000660110812
0,0984725237675865
0,0976278865167855
0,0945596337679598
0,0953275761225872
0,0952648299976796
0,0967058306833896
0,0964691125950648
0,0955535740461197
0,098072218381465
0,097003612581014
0,0978901570539189
0,098353538103202
0,0980036363911016
0,0990299285000562
0,0983277451664436
0,0957264308801208
0,100604690554865
0,0977026688979205
0,10042697346929
0,101796854920477
0,0984660342063119
0,101155069298379
0,100421513811555
0,100723718006138
0,104204474025015
0,102673472187875
0,101422820042086
0,101163344681338
0,101521293337731
0,0991438724578506
0,10154146492045
0,102276457971771
0,101661039949648
0,0993979730785762
0,103349868430256
0,099687909450772
0,0993307715850133
0,10234090261916
0,100452748633031
0,101464741783441
0,101551013346802
0,100866629787714
0,102436823914333
0,10242162515071
0,103947742084032
0,103674621190889
0,104492772822895
0,10279478756092
0,102539503619344
0,104478026536724
0,105082412946253
0,103997139466015
0,105451386451863
0,105208785784309
0,105700975704644
0,106395913171389
0,102988498813599
0,104790369410251
0,107815429702485
0,104897647838277
0,106474407311802
0,105749593890916
0,105559528698516
0,10632989928457
0,10567376763696
0,10516893446606
0,106021834336803
0,107068580357458
0,107263464150686
0,106027093787469
0,107147328440129
0,107861170730297
0,10567965873694
0,107438768577778
0,107937621499159
0,106635640167323
0,1070464846213
0,106486171389769
0,105718516721837
0,106921132323008
0,107122570949384
0,105081810214271
0,106503216412057
0,10940122437953
0,107764817413355
0,105006128903145
0,105255424502225
0,102873435752619
0,103612283132301
0,103292643797613
0,103634981737698
0,104584336646596
0,105303572150424
0,103873862595753
0,103120303403641
0,103294109523482
0,10368529937882
0,102621929299393
0,103274820471179
0,101268709789916
0,10215390040596
0,104406114988364
0,104468456810497
0,103028713545744
0,104963426862433
0,100855196886826
0,102548648108723
0,101701157343418
0,104095466305959
0,104037725061976
0,103410188619941
0,101826440650661
0,101465522995077
0,101006843743482
0,10309405345011
0,0993847357806103
0,104102912504775
0,103366658819286
0,102945042542971
0,102043476365775
0,102153952137506
0,101540828929715
0,10268030135362
0,100681457697867
0,100434552514699
0,10098206013988
0,102209128561278
0,101930794033072
0,100933467850984
0,0995517086446282
0,102680581061006
0,0987940165337565
0,0994013600821473
0,10065436633706
0,101252948184034
0,102667382550994
0,0996791711243486
0,100209305917592
0,0997492351245685
0,0988665733360301
0,0999690983756105
0,0975469774539502
0,0976965166107985
0,100136013706307
0,100691114134136
0,100443748195912
0,0982430982647751
0,0980928297134473
0,100227377366746
0,0970614685023032
0,0974554315210773
0,0984595187276277
0,0978394886397195
0,0986477008784366
0,0988995199354926
0,0977706989501365
0,0973787752673574
0,0961054150589351
0,0992747157605882
0,0945794357666253
0,0970054881875656
0,0979254946773885
0,0966158177696987
0,0982707906916272
0,0967677503859809
0,0936846937501147
0,097519514077436
0,0943827096745088
0,0960335315873509
0,0953714750275985
0,0937059764349577
0,0958360826243546
0,0962405777231058
0,092081015054678
0,0959955589921161
0,0926618507804509
0,0952570165165382
0,0948650273411232
0,0927135567811253
0,0941922848411902
0,0955535965468518
0,0946175714464224
0,0936853869060096
0,0929671782978419
0,092563359415798
0,0947719995673593
0,0959623581182769
0,0939591352692695
0,091826978539123
0,0917145909656304
0,0906752220144742
0,093957192626496
0,0933162988028451
0,0906732807335426
0,0916415273865761
0,0920579294360693
0,0910714360684865
0,0911163751894756
0,0904150063435409
0,08710002090406
0,0915132230030453
0,0886342290125787
0,0909908626633742
0,0892945013458859
0,0891856287234762
0,0878169671819411
0,0860791658116909
0,087965151056416
0,0865342991191474
0,0857677544365034
0,0879033528798717
0,0856248381543926
0,0874771540866385
0,0845316191548002
0,0870001467216439
0,0855251274862221
0,0858529096327456
0,0843058647952515
0,0843607388606266
0,083257682772374
0,0855013863223474
0,0819825654160343
0,0855877733539687
0,0838915313799668
0,0809800334567831
0,0823243326001716
0,0847940937109725
0,080632957320705
0,0831443369431535
0,0824510851470989
0,0812618044799691
0,0806861396780919
0,080235296582887
0,0784133324717189
0,0831578655359958
0,0787733179353027
0,0833258761659559
0,0775047803394158
0,0833684553196507
0,081708507999568
0,0817139238168719
0,0774105543547947
0,0788333605692985
0,0792676370222749
0,0805546422178749
0,0769740020134274
0,0805408613822134
0,0787266614253624
0,0798870070381324
0,0790587702611421
0,0807545759078229
0,0802857960689442
0,07836526593529
0,0769718785984892
0,0799242221660759
0,0785866574065189
0,0802014995621019
0,0778702625228826
0,0790060461893788
0,0776183625994091
0,0760595468845559
0,0754441742869426
0,0796149490666196
0,0759274208309061
0,0769927929266375
0,0775322831892889
0,0771289481332317
0,0778588831657442
0,076400202018988
0,0749695402847039
0,0760338982048907
0,076459379781203
0,0759926051466869
0,07491476662662
0,0774484777612518
0,0770505602167229
0,0740023727528295
0,0751968656845085
0,0747715948330072
0,0754884363046874
0,0728876587791259
0,0740952587163511
0,0742582760664237
0,073178625139253
0,0720776190870354
0,0751707566763614
0,0696089373114997
0,0745921581769369
0,0733470266240951
0,0763665654584603
0,0663184396399629
0,0757118267210531
0,0755600327406166
0,0744104871611736
0,0731432608454539
0,0737302581456381
0,072452810006942
0,0719490251373213
0,0718197195071025
0,0728671440332696
0,0721059779206866
0,0703180577131316
0,0727793208453001
0,0715878514901811
0,0734212228747085
0,0708605326851816
0,0733888763047663
0,0708817897614056
0,0720738461812407
0,0710196388914515
0,0699422090721291
0,0707092727302865
0,0676948252117379
0,077563922477889
0,0742084525590979
0,0748752885834769
0,0698882616659074
0,0681141464247998
0,0810019774678786
0,0707578033776477
0,0753736556690265
0,0669079796772361
0,0768995338205025
0,0661425759580835
0,0755067659844743
0,0660926291967658
0,0766530932264544
0,0703421146763846
0,0734120701304887
0,0705344940809639
0,0706929742525536
0,0697837184021788
0,0698427904152182
0,0692178967120907
0,0707328354119738
0,0678501252335181
0,0709296779649705
0,0697077188241858
0,0697457091043031
0,0703919479508373
0,0708094017329387
0,0672062604887641
0,0732369095415011
0,0675059308059084
0,0732013131397512
0,0661347891943422
0,0731460002791626
0,0637861994259592
0,0760876768338477
0,0687312531385573
0,0746281387389377
0,0674764882737443
0,0703600809323742
0,0722833826132857
0,0685366156790682
0,0683117034094337
0,0701578769477418
0,0697645642650615
0,0722733488519622
0,0709686574164393
0,0713549981651417
0,0685231607950481
0,0690617929411937
0,0725467107510299
0,0688672395650705
0,0696393374314363
0,0672351856557263
0,0719504749489956
0,069270601613265
0,0630806137358211
0,0786795751674788
0,069192274167837
0,0776842983473538
0,0715641336188874
0,0739376032871602
0,0690859721888064
0,0742149266396789
0,0659230708638748
0,0720097837604934
0,0676004003742032
0,0728828874235003
0,0684566052318315
0,0735211713469361
0,0692863782067265
0,0722792418852694
0,0679572877023273
0,0714267900898391
0,0645986767167201
0,0720040114729559
0,0665680917338287
0,0707844549472344
0,0687181149333651
0,069179198170593
0,0686234781371143
0,072606435903798
0,0713725259579338
0,0618183904989196
0,0868579008341819
0,0684222508603128
0,0818919323019396
0,0674435545944732
0,0760765585689629
0,0691402156091091
0,0681031000988386
0,0692466302378768
0,0708693506987827
0,0692829934384987
0,0732002394609443
0,0688090132075264
0,0756293887675002
0,071438595534308
0,0621756890031805
0,0800427781777349
0,0779517202122592
0,075516443764457
0,0773162856020188
0,0621784957159609
0,0792640859749044
0,0755791854380619
0,0753906478920643
0,0731473747216062
0,0728775279633475
0,0755628287218128
0,0724449920001806
0,0761718034740006
0,0723258699030862
0,075582602509823
0,0698987815490743
0,0767985113287382
0,0720850010615039
0,0752385104968791
0,0725174629357548
0,0724540805838528
0,0770284423920993
0,0793712268784935
0,0758614356575404
0,0755843615565944
0,0750828055441699
0,0791748191317903
0,0727713394138628
0,0778926173787664
0,0689627388241915
0,0832793981624674
0,0768640933298221
0,079078574566066
0,084104284614444
0,0822798242708006
0,0808116245916184
0,079631939350087
0,0765088902667407
0,0874056506820206
0,0638646586432031
0,0931385308645108
0,0720958388179787
0,0982935500331671
0,0784310310524987
0,0869415383180812
0,0726464840683895
0,0860422910748507
0,0774329278755816
0,0778544975530909
0,0879775806685004
0,0805524802569529
0,0871286439327482
0,0748512286188573
0,0880975622810741
0,0819997413562528
0,0915021115860227
0,0790498460686964
0,0856498873986432
0,0773354365071492
0,100206332981159
0,0793518298588051
0,0882878246421044
0,0862215623382186
0,0891847606395217
0,108216830755286
0,0833321867515976
0,0921231726153777
0,0920604014501078
0,0901146940432834
0,0937204765165123
0,0849924969485983
0,0953574214845662
0,0820791104852592
0,0927565869137758
0,103661348938278
0,0925462216520341
0,0939941240756959
0,0887434104313299
0,0909355307371927
0,100431250288849
0,0994642143493811
0,0928522254434159
0,0976918669160837
0,0925273619030606
0,0844781814949714
0,125280152286075
0,0922967305373113
0,114961029494053
0,0958335234948139
0,118074432371632
0,0993826022549174
0,115081752569652
0,0973718454437543
0,115024685809493
0,110652501041324
0,117209883558894
0,0937934061555345
0,123477439207905
0,113649465895632
0,123022850456966
0,116467916108851
0,117771057928911
0,103498590450491
0,123738688425296
0,134984764834797
0,140349336980716
0,124739342269031
0,13235925874453
0,133091140670909
0,137503086166221
0,134017941403458
0,136187510776394
0,137387245604939
0,135689053997949
0,138626096497659
0,146755606505656
0,140138564705528
0,149535993161008
0,144786186254982
0,154928245582039
0,143730176513755
0,190558096537897
0,158451738203321
0,161598972419987
0,164336513489483
0,165345596352338
0,172037037380885
0,163918425352351
0,168348587565031
0,167624217833074
0,173467354462007
0,173143309532614
0,169309615218038
0,187147723501205
0,173857497149186
0,202865990532927
0,182169685436396
0,201546794042132
0,170656165945357
0,197227282100853
0,236420951470441
0,217132351099123
0,220362152762849
0,190643145705367
0,2303884512858
0,228891816223452
0,239057150165608
0,224396763850737
0,232844033838891
0,228769841537467
0,240871143748324
0,241274944130826
0,245167421826404
0,255476130077435
0,258547437903035
0,251764722710868
0,273246983279487
0,27281611815979
0,329392983795743
0,288053516806052
0,296282179359576
0,294079311579688
0,312044214255191
0,30677505442877
0,322270321153494
0,303591010953845
0,336346926106986
0,329197956144988
0,358255775875789
0,324904601520811
0,359830423906023
0,356637656298951
0,354379610169777
0,391174014304471
0,370129474883021
0,393740880426473
0,382406001692558
0,398598720358107
0,38640801939918
0,39914078312303
0,4131733801889
0,418159966758409
0,422735914210991
0,420797198379554
0,429418226124456
0,431658504844974
0,448693275595353
0,437486027306174
0,443859755844203
0,449570985782022
0,467550397889634
0,59082660222936
0,47655489929376
0,478315313751982
0,448312950447128
0,469663839112982
0,480189236301628
0,46656875372419
0,504383853428338
0,487422426510519
0,48685896203894
0,470411858202671
0,479265523652612
0,465512134105994
0,485665721736076
0,477700589159745
0,479485446481361
0,493154752175336
0,459257867897933
0,515123311936836
0,508949466971653
0,487270020544453
0,46679172233684
0,477686812032544
0,466353287634121
0,469768043994789
0,449949834104923
0,48113577848823
0,466253363360067
0,461134446124089
0,44794774111741
0,434241660792013
0,454234898904232
0,440947520193503
0,438483282273205
0,422841007956679
0,415931294966837
0,426140225939501
0,392968740813979
0,419916543568754
0,43463613543203
0,412663492654201
0,389062281634531
0,393090483769076
0,387930070929125
0,386783239324575
0,372229690187265
0,38097062203975
0,38348620060364
0,370537375443975
0,371610938465391
0,369785516258872
0,365605105917104
0,3684648098154
0,371045318883684
0,364615936497171
0,366920517260289
0,360787683857648
0,366615607219147
0,360290962081343
0,359695531656545
0,359804220131297
0,364032229890338
0,363390128600196
0,358548715765189
0,359378784064325
0,367384071734683
0,362407469843057
0,365731127307743
0,361279170450876
0,368504006750709
0,366341716814398
0,369718096501868
0,363189536525497
0,379354762758115
0,370958453517841
0,376165226751506
0,372257537563758
0,374443456831282
0,371808426911758
0,380834181473146
0,367389764887786
0,359982567968275
0,404415082365903
0,398647586099577
0,392000124277431
0,378776375684113
0,392078732092174
0,372978718133639
0,376953835200536
0,400250276443733
0,397086463232968
0,39659204800694
0,389404637273604
0,381315703051071
0,403559349015136
0,393651434962047
0,397201018440662
0,388844575010663
0,380081185990454
0,41696455671097
0,381483813085203
0,473134654384253
0,418135880583817
0,418271799423473
0,36893210010408
0,399592319929897
0,385423001101389
0,394506472034367
0,369087965829756
0,36445466303586
0,376571515311629
0,375305291141104
0,367620212623837
0,353489740314753
0,347271311828542
0,357534289892958
0,359368725388553
0,342439074129805
0,352416293360704
0,34323503232354
0,331567266655021
0,319134159496992
0,364142336369926
0,339482506035022
0,31890783328618
0,319525961891829
0,297337037142956
0,318590593999956
0,318264951452056
0,311440863997607
0,309366528176133
0,288547825320208
0,296338921180376
0,283784680343574
0,310294926823636
0,272585626281471
0,289662835861993
0,282290808923272
0,280835018608727
0,270415792281875
0,262538946263427
0,286280040699797
0,292251532481029
0,280673616806073
0,250226432823945
0,281463167885353
0,26754168323883
0,272100943592103
0,268930486938842
0,250025876854493
0,258160467378126
0,258784949070402
0,249301347547637
0,261172645130726
0,250550713968561
0,262132409969471
0,241634761001789
0,287407503010725
0,278259828210629
0,250861363373442
0,247636377869626
0,241426633442948
0,248878121740196
0,245721882220633
0,237988611699746
0,265250902633262
0,237905272019923
0,252936431741772
0,24890078087094
0,260067136494305
0,248136855810229
0,254984879490532
0,248500858003334
0,25644569523039
0,259134525060032
0,281342766730898
0,256027648893733
0,269569029636768
0,264574208795111
0,283938833237702
0,268832141912874
0,278370026479093
0,27245200590972
0,283272346954106
0,285260188990782
0,294725406143385
0,289778875036663
0,303735991522358
0,28524831375792
0,328647406731457
0,308204720300776
0,322911621626954
0,309519107709172
0,32798263699636
0,35950840350905
0,339509924502089
0,347948041720908
0,345214379442731
0,354688719737161
0,365252618372971
0,352536844226507
0,363841138691574
0,376776620780769
0,384527126325687
0,372945717536193
0,383407520527777
0,376274451324078
0,379372260468449
0,392391447735278
0,386936309568528
0,434087835940607
0,407698365900188
0,417589911361999
0,397701948585306
0,401201630804641
0,405816415072288
0,407547128571751
0,41271161211529
0,40320660209775
0,411801371229172
0,417130219740253
0,412389877095918
0,416470043721664
0,415953096440254
0,413009866356984
0,412679951394656
0,419494904286585
0,420911085070315
0,427746429157443
0,428942677133461
0,416755442954289
0,425939125634427
0,456463018119518
0,457386239159882
0,440754105036347
0,435257761534146
0,459573385808361
0,446618113622498
0,457508923293448
0,462662879316793
0,463818706815545
0,460155975689972
0,467100189926743
0,474696553240907
0,462932122857139
0,482453909068016
0,483454607219776
0,477060569557992
0,485396299275493
0,466112879430228
0,510296489091933
0,503972580101518
0,51534442833286
0,497815296526156
0,511373746412868
0,497649861114942
0,511025637972597
0,494185117553245
0,502007463715871
0,501547739968464
0,503917736699073
0,503260803311627
0,503088885802306
0,502088853587119
0,49865568589604
0,500322559414135
0,509384857915636
0,507849236052456
0,497402737904207
0,503917164562722
0,497840227265012
0,493148444551051
0,502893691964596
0,500676089741774
0,502695940361221
0,493565529908752
0,500424314406817
0,505591394371786
0,504099129238271
0,489557409377421
0,494480003422914
0,487960881317732
0,505389601271143
0,4809144163029
0,492556372400499
0,493895022632702
0,51291075480645
0,497495627633603
0,508175504736543
0,506059479551577
0,510412379167259
0,503586931317504
0,519306317576812
0,51819024110015
0,523053915526804
0,52850081909542
0,521841237589223
0,527255715476554
0,528178848967319
0,534048443455523
0,54077198410777
0,529492122548506
0,529620288303639
0,523812206170703
0,52918322303595
0,525305818824203
0,528870661836638
0,5197798069172
0,52626265701207
0,512504024030455
0,525536187430912
0,527888572960425
0,514980236599765
0,508133417335032
0,503515654357979
0,503780558943912
0,497968852447698
0,492776620779892
0,493813231164171
0,484648865228669
0,484257298247953
0,486498579589048
0,482504983593766
0,481788670178513
0,48066615728176
0,480471592536706
0,479069819441339
0,480943895809565
0,476503833310763
0,479996284238205
0,475778727892858
0,481998579200415
0,474643424778935
0,470445641597986
0,472570037300613
0,476230605625882
0,480450609277327
0,483355236445486
0,473074727750403
0,481216964307024
0,47059535976794
0,476108922715598
0,47201384013226
0,47033359524917
0,473379373647989
0,474127337549215
0,470915173503487
0,473030736611759
0,467383226727572
0,470169108187214
0,468310521805727
0,471332819987359
0,469131624101911
0,465873247137736
0,466918770652804
0,468816903701569
0,466834079597146
0,466783636654135
0,463688759284356
0,462539657938373
0,468468105302436
0,460221192259453
0,466256827229299
0,462124238801202
0,463392353006275
0,467057176947425
0,462496653783058
0,463732857656814
0,461002466921809
0,461531494319654
0,460170599777405
0,460405164123904
0,456691834557793
0,456634474706939
0,458408217372804
0,452352827462362
0,447794117796978
0,449095213280917
0,44666754713392
0,439945813280002
0,439501344823626
0,438620944017833
0,43485825243691
0,433280187478375
0,427411261390247
0,423129853441445
0,421980146569308
0,414705172569396
0,41641121139555
0,411046477683077
0,41013747434734
0,407725520393203
0,40463639894353
0,402156084003066
0,398944479106215
0,398858787690219
0,396422490959978
0,397859989760339
0,395369520066177
0,39750267087794
0,394816915728648
0,393300217467352
0,393225836474433
0,394028875671252
0,398966557253972
0,393974625901377
0,396524369477871
0,398282407998545
0,398708209025938
0,400721566781005
0,401238815895432
0,399404456017497
0,401292199326725
0,402741586350664
0,410838793783635
0,406746141159563
0,408055195842161
0,414525283609873
0,412004867791451
0,412376175402757
0,413421443521521
0,412488034525696
0,412262529683163
0,415452479295049
0,416386579569302
0,411565983876376
0,41160257870952
0,415630248856035
0,411761282972816
0,412908341896734
0,410963931071755
0,410590500529657
0,409507067452956
0,406951542054322
0,405864891205703
0,406429037331141
0,406147960497008
0,401485204082735
0,402161853541976
0,397828543010518
0,400702035015622
0,398733694803385
0,395556992382371
0,396039791802233
0,390905564413391
0,390027847455236
0,387663990719134
0,389999635577999
0,386049490349417
0,385368979260657
0,38546105488879
0,382598340682458
0,384211937130392
0,382085107282833
0,378928398046352
0,378219878070164
0,376657949830556
0,377827624509606
0,375949068355467
0,377005607537094
0,375789845131573
0,373176335011384
0,370385688974983
0,369749008385375
0,36482553128456
0,36160371916274
0,360837646506438
0,357526597887603
0,355194589205615
0,352529378648903
0,350593322594418
0,351074305481997
0,343523058715175
0,343223559301862
0,338768283150473
0,337055899300335
0,336244507132855
0,333750902718291
0,332092957994799
0,332264401871847
0,32867416791424
0,332053987166039
0,332405408946975
0,329320903826698
0,327323365110731
0,326013798047594
0,326051340573792
0,323076005596794
0,318359298490949
0,316286239774478
0,315586822633478
0,314683093128921
0,305930341931479
0,301982489421925
0,29942667930631
0,295106639387109
0,290150963832937
0,288757914528797
0,28460475273705
0,283502922246019
0,284816773278209
0,281605632337736
0,282892100289474
0,281588764251733
0,286749906287128
0,29337389321861
0,298022495804591
0,302209648792093
0,30872134143393
0,315662755856286
0,327703271103262
0,337176188815963
0,348855781519403
0,360554899316836
0,370966685760865
0,384807927172267
0,396244280807427
0,41068962445391
0,423604072299639
0,437108626494205
0,452261219275907
0,467922199803534
0,482563935983534
0,494910988377801
0,5112466977326
0,525936553504039
0,539622268089027
0,551578327335841
0,565596446772037
0,578961600401119
0,595250525192248
0,603296817915379
0,612919655332386
0,62551214214455
0,629427376901236
0,640567781982766
0,647188169254528
0,653767909882019
0,659744737239949
0,657815533497499
0,657865898717345
0,665521387486137
0,662490431081143
0,657737908294681
0,658966540143346
0,660444699958111
0,659227445292638
0,656219847952013
0,656417517853815
0,657213358559715
0,649944567289119
0,654177025739273
0,655537578600985
0,655290832229019
0,658398074910732
0,658964942830722
0,668628462055855
0,668086825213824
0,673206060863225
0,678969426645798
0,6869331348118
0,689712696321897
0,698113793256968
0,703701778596535
0,715614147634953
0,722356303558647
0,735800460357588
0,742044794131838
0,755153845955358
0,768110140205803
0,782293177900272
0,784796321752622
0,798817876324543
0,804244889785455
0,815443435380571
0,820437142825927
0,821277858744166
0,822978198684999
0,82241689934618
0,823542232498949
0,817433370941453
0,802951482219663
0,806041390518451
0,8034365555684
0,802373844180424
0,800708196999191
0,793407439404009
0,796460855989048
0,798775617271077
0,808695850395786
0,813201599336867
0,824808558402318
0,834145316447612
0,83946063678207
0,853310903493513
0,861861712758564
0,87303665660693
0,872697344149045
0,887145937303881
0,899723125338989
0,919978812998819
0,916837535676056
0,935933558062069
0,94486831305902
0,964225922500781
0,963626655484579
0,981172249109925
0,998091539203134
1,02162936993423
1,02707426412075
1,04609447581963
1,0607383195465
1,07946428753783
1,12094330441951
1,14600639767077
1,14208093969077
1,17853388690885
1,17331032795163
1,21880986355623
1,19296707217763
1,20046992076736
1,25988053759424
1,26947403958356
1,24778041009819
1,29666036477292
1,27637836005293
1,28673652444171
1,28031669498323
1,267694729085
1,26772501170783
1,31471715966687
1,28403726515301
1,28559306934057
1,2558633562164
1,27241131339275
1,26490464058562
1,27115657598337
1,26531151297136
1,26295044395397
1,24020347822054
1,26762609676018
1,26475471485363
1,28236693164748
1,28432313840882
1,3055797756123
1,30816863188961
1,31477618982393
1,32525170745931
1,3483667610017
1,37243917067019
1,37334727836564
1,34342561445506
1,39040526617339
1,41411429346772
1,47489765044967
1,4480776380984
1,45846520116005
1,48412633352384
1,52508322453643
1,50097883129572
1,56507995290942
1,5916788972454
1,56584752051033
1,54895252923988
1,5568999515448
1,5555964294561
1,54569246113017
1,65098728628718
1,58172333618915
1,59060846443414
1,6700447364033
1,57014828157654
1,59161067619906
1,684298478032
1,6811400896351
1,65371424251421
1,70859233101686
1,71263389471028
1,69656942540007
1,71119956850621
1,67006953522835
1,71594151702772
1,8108432828137
1,5906643503739
1,70274667089366
1,65689599466422
1,7232015723327
1,67470269600722
1,6071263355479
1,63769914364001
1,63949717677079
1,46661982009047
1,50945771518872
1,42680097820102
1,427607525851
1,38966675813448
1,36596179108784
1,32635089735554
1,29420724388837
1,29441854861134
1,29487479153566
1,26572792372978
1,26763999745218
1,24939657456129
1,2527951230253
1,24646442018336
1,23622250705969
1,22891060928083
1,21811194906433
1,20002097348127
1,20424757356255
1,16709542360285
1,16856089475082
1,12254238678651
1,13641254863983
1,10245742135097
1,0964407708882
1,06649009932008
1,02104350753903
1,00006334314121
0,970916771014144
0,942671330158788
0,896394789407529
0,869820297725473
0,838564326251429
0,810201741407929
0,778294227728269
0,73981564207822
0,720242665896118
0,684332223985966
0,671930941062152
0,647630637858059
0,630839958574325
0,595230766581216
0,582783836059205
0,56264465536065
0,551579032500557
0,533480995748642
0,523453132225779
0,506671584589573
0,496981382983212
0,489644267581217
0,478054948665372
0,475153680475293
0,465885738555429
0,469003709198259
0,458639314698377
0,454283395285759
0,454469511317243
0,451180511356182
0,447012073643949
0,447676276329404
0,445874352421713
0,450361580708615
0,44994142950987
0,449745954593538
0,451975655157833
0,446191400514853
0,46484488395508
0,454598478178134
0,459267120466001
0,447830223220687
0,449198781381462
0,447136087851323
0,448905093819692
0,444794998918292
0,452872958423315
0,441315906829784
0,439402044587331
0,435421707927271
0,440257134715711
0,438976595365612
0,433888994126454
0,437960720038004
0,444193216746316
0,432806181734197
0,447397548271461
0,449315712966631
0,458208557004919
0,452142239680552
0,454768195265684
0,452225527809717
0,462381211411846
0,458270240412855
0,465023444211926
0,461401424353167
0,465343498181221
0,46529543714103
0,46471642146309
0,466750935222381
0,464227488000541
0,467990990947133
0,459902126048748
0,463564022938278
0,470877303407245
0,46795131232472
0,462599375343711
0,471094015522675
0,467379970528848
0,462962278892413
0,477646691465566
0,479658918701082
0,494144719543554
0,486738357456105
0,506956277950852
0,502093962928041
0,522002789064551
0,529616467393144
0,546597135312219
0,54227131185274
0,56448225523218
0,566324806563814
0,596084938859928
0,595788151384132
0,602529018164771
0,595184976243808
0,598176100684154
0,594969342662355
0,605804982258934
0,590213219514344
0,599626976692228
0,579722244977985
0,585404217632406
0,561561824605802
0,570891001023864
0,562252698718928
0,566769936054881
0,566296302958412
0,574163936354104
0,558842407182995
0,568302049040302
0,571497957595772
0,57547314357792
0,576098584043233
0,588287828345476
0,576188690844271
0,581964200485691
0,573594789339453
0,580656530884603
0,566131966162579
0,565061926337418
0,557184258083128
0,549225949077785
0,555809128435159
0,556941770887042
0,555191761626855
0,561240783328046
0,54556786452505
0,545001409343501
0,560957255432825
0,545320429488608
0,535154366567757
0,559563924320552
0,541577259086224
0,555205481236108
0,566678909398298
0,561765573970713
0,553552924668088
0,55502917712088
0,546744505096257
0,552678598573304
0,562258054102836
0,56566594896406
0,541742223231333
0,551821728846023
0,543685296488949
0,556742318645103
0,559005651183393
0,553184603231995
0,541057693953544
0,545112486528018
0,540925539899093
0,545240518219402
0,533872408541819
0,549251033847158
0,534138659505648
0,533339867863785
0,54267350623033
0,537423964944844
0,55422514543028
0,548765197936826
0,542363867717924
0,533313761233055
0,540017019407365
0,563390516623152
0,554098859033942
0,554383123271216
0,540624663228779
0,539402335418539
0,548513691344875
0,582806714067174
0,555735348114454
0,575787054543065
0,578634243422642
0,546482668893244
0,564890388115345
0,571198780386586
0,553390839519855
0,586647235512626
0,584580961647728
0,591205205249224
0,565221535810348
0,569619815679204
0,574643928724821
0,584243729252085
0,593410950684574
0,589259971538564
0,597092577973353
0,631327540910142
0,622004453141788
0,612998074458373
0,619069653071909
0,628621089473081
0,6257041668171
0,666531450408301
0,636188795252688
0,646628829363778
0,611793799922772
0,674922062468266
0,660094521744771
0,70747104365399
0,682385770459447
0,702797531093469
0,687138140564986
0,759840997375458
0,737316982290488
0,767881603149838
0,74100159742766
0,789691757363754
0,816463250705163
0,805776638087804
0,844459476883446
0,848228107969001
0,827435570796047
0,861755521739572
0,766275265450595
0,843181097050688
0,856040533097571
0,893062618904646
0,807367447307392
0,845369835269537
0,807430174413895
0,852450445893025
0,793495440480195
0,882046793862714
0,817265239509292
0,814958067664836
0,792353133398144
0,816193379028529
0,828032389696633
0,896444000790855
0,826674963777439
0,879320423504955
0,74978152903277
0,835480277824167
0,850921115649528
0,879999271661888
0,836956910893473
0,906863813185688
0,808138166945325
0,904002300167639
0,843246984103441
0,954052827788467
0,795992214496022
0,855571860342305
0,806959107980776
0,881667493446915
0,801745533458857
0,862787553252824
0,73028917699951
0,867363999165292
0,778262866875534
0,834688118333924
0,795632390496202
0,886425953491749
0,826219985857159
0,823853955953514
0,824329422361801
0,937430715799154
0,763692916491493
0,87724981522789
0,787435951041757
0,850857613641291
0,772007843978138
0,918442358003479
0,883550957752694
0,964785989836856
0,829313674918633
0,87647894534792
0,871121668061053
0,918299249520478
0,917691771040997
1,01291617391406
0,800149733668671
0,863166413973256
0,805485022772825
0,996853500904385
0,894312901432672
1,02249083346243
0,844423300137228
0,998629379705167
0,847979674007476
0,878800386805964
0,938861207292123
1,1954024739205
0,832032929183377
0,927374413529
0,958294475786491
0,978149009027475
0,905860240799469
0,983718656006784
0,823773669234756
0,961489074405647
0,990813665362304
1,15181808292195
1,01754121956783
1,17948572217864
0,917046176447573
1,26552074306128
1,04109746927975
1,02305763571865
0,955731962955348
1,1939772169835
0,887578707213838
1,04815250401729
1,06534160458402
1,11197889318606
1,11151972177809
0,985423253352964
0,999296467768546
0,931250692915671
0,911671212247436
1,2885653665173
0,990045499268642
1,36560029544693
0,953811514543658
1,25845823481736
1,17503653515792
1,2772187062726
0,886184257170935
1,26831807125841
0,919785979651575
0,913859063440314
0,970245826098628
1,07117984109239
0,73056197049063
5
0,65892065421271
0,865652292430068
0,694279573923282
5
0,756041907198624
1,6586467062009
0,927650216539195
1,32401456576413
0,976524961503284
1,70474539818207
5
1,51915316883085
0,74918102208539
5
0,916892990855982
5
1,48051864312704
5
0,63358850699942
1,18688384720141
0,814483459076245
5
1,05001714936067
1,15178515777552
0,798251033347738
0,847724543227331
0,956888501809466
0,992292192603183
0,799907132640673
0,733395418436882
