3596
4000,36533379555
650,420452594757
1
2
2
0,0408072778845376
0,0359192276841335
0,0433441106040659
0,040867078922601
0,0430922684219466
0,0384649478330529
0,0406746814028465
0,0439065914675361
0,0465310450317327
0,0449286636613572
0,0479945111318732
0,0477441418989603
0,0422632680982185
0,0411308717494034
0,0452888973652602
0,0414175343380919
0,0386126329460443
0,0346597817313416
0,0395342781152017
0,0461740808544641
0,0417989483596407
0,0384795793894079
0,0499253828666567
0,043465011862381
0,0428404863414463
0,0414581542148646
0,0394500040917745
0,0397610621665247
0,0408255777448883
0,0404505502124963
0,0387122597882737
0,0428644992212683
0,0453986145825497
0,0415271403848533
0,0448256699091839
0,0394341820428444
0,0377623434707507
0,0389848707792914
0,0440863057450446
0,0378829458488353
0,0398318864124704
0,0412883592057192
0,0432809440571783
0,0405326201322048
0,0444712640117065
0,044869730765657
0,0501904943427165
0,0328290892410946
0,0378671155773161
0,0504809066602397
0,0442965187456144
0,0390421613056925
0,049926500133257
0,0514267006591295
0,0457858733799849
0,0431940662126067
0,0492045109328322
0,0388505579280231
0,0342261556518235
0,040988606858273
0,0464479521313882
0,0456362953822831
0,0421333173797144
0,0428617021807798
0,043080870702878
0,0438291462629058
0,0420294797498278
0,0412661907813761
0,0397638454750002
0,0365980675997431
0,0328745051752245
0,040400037624519
0,0482877833990026
0,0429096445051029
0,0445506826616905
0,0456242652766532
0,0407591388916756
0,0350477246501912
0,0393673780639628
0,0451484447287314
0,0441765975501493
0,036680144467352
0,0406427163253982
0,0278483511773664
0,0384305598408195
0,0481818505573543
0,0285954268946576
0,0281766772050094
0,0486401118142443
0,0373476580540658
0,032281181756931
0,0351480294906954
0,0359950120885209
0,0397182222859069
0,040864110959741
0,0392110576992592
0,0406474902851781
0,0348440423810892
0,0351905180893287
0,0410060759100469
0,0378640820340377
0,0264697000845496
0,0598279471613245
0,0284908677032733
0,0618043511932464
0,0498931994455729
0,0326957561935087
0,055755826639262
0,0430736269588291
0,0448607863036318
0,0391118037983494
0,0397431089810321
0,0393580942749275
0,041236295634362
0,021234647455561
0,0384493155874864
0,0633506351799965
0,0430618051438158
0,0403148948430307
0,03978738439106
0,0203325431351323
0,0238373942937142
0,0701464507284932
0,043914833540035
0,0449419800663295
0,0393694911377267
0,0273346959644483
0,0468285211964579
0,0567024432087024
0,0328781022402301
0,0388069784597774
0,0324835158439414
0,0338670964259226
0,022505011941386
0,0542659936426207
0,0437214970829714
0,0300860098646233
0,0189978684403906
0,0293270554254747
0,0744938774644701
0,0568653880046934
0,0369031868262737
0,0232961319238092
0,013852521847578
0,0627409940791999
0,0476318326604323
0,0233930444653788
0,0403748358353058
0,047505838480447
0,0348523739417414
0,0358482095806083
0,0289350429062156
0,0500710405909401
0,0407081361374795
-0,0114410339021706
0,0222154000824345
0,0720880728970377
0,0391680613093922
0,0764333738525537
0,0382103417002146
0,0481942468741087
0,0356476648863925
0,0376092696788056
0,0333243896755313
0,0343423846594607
0,0220904349356701
0,0249434233116403
0,0535058250579175
0,0322730852301957
0,0194149193082845
0,0522194312175718
0,0398590575781464
0,0223013046653183
0,0734104275684709
0,049687472115131
0,0175640759189614
0,0506530662439801
0,0560538089060189
0,0298551261472297
0,0265092284353582
0,0535699891076127
0,0299669572608602
0,0313008901116548
0,0318919465395521
0,034487064328946
0,0434297893398872
0,042365267238236
0,034850653074754
0,0380333306291547
0,0108215689568848
0,0222902222177291
0,0662544853001957
0,0650463890066789
0,0430045597619268
0,0374000550197573
-0,000752161425530509
0,0456616383014293
0,0648617828209001
0,0419980801659515
0,0365349168590755
0,0343193153327077
0,033089383259863
0,0336881798595018
0,0347237863672473
0,0313992077377284
0,00702723843770577
0,0598632789347044
0,0497309350269739
0,0378999633031772
0,0287162028011117
0,0318706579932906
0,0145293008505874
0,0634998746459644
0,0640113812554773
0,0358982821101659
0,0342377959001285
0,018372856326665
0,0299202476476721
0,0450060228921231
0,0362225438751392
0,0376238950637544
0,0337216841429663
0,0427015444474133
0,0313234481171566
0,033890131403775
0,0362859123465035
0,0335925312315915
0,0318187206240789
0,0335259916843181
0,0289801077265031
0,0435950894968661
0,0424607261768562
0,0383304060399302
0,0366665464263197
0,0260028223043678
0,0288889348188349
0,0530226058379944
0,0373873886068722
0,0373610583380686
0,0411708248357857
0,0395928457055746
0,0351764860044519
0,0345826267843148
0,0379079296527622
0,0363794988099345
0,0127641392716531
0,0490178642619248
0,04606319215134
0,0402162305875875
0,0205212094789257
0,0468207295568527
0,0457083097040484
0,0384236576708166
0,0384692545987768
0,0400050440504345
0,0326084121277499
0,0319153247572197
0,0507933490503587
0,0453726468741684
0,0289489410457815
0,0499969430299605
0,0465762157258145
0,0379284044410516
0,0301713675106419
0,0038767830684341
0,0650979963573689
0,0433555378998602
0,00877982064558384
0,088662398567172
0,0544118992532436
0,0491225169569134
0,0273292654255286
-0,016409920963106
0,0936219221791936
0,0836952674997748
0,0364989429688713
0,0413238925054661
0,0543640509784341
0,0400549914592062
0,0394052081874765
0,0336354662279813
0,0382112465081527
0,0384146969706174
0,046380509237893
0,0856535200075142
0,025840945750121
0,0459888876807
0,0643530706101777
0,0488037384437921
0,0453920857530671
0,0353761807856564
0,025355970889232
0,0520263639245887
0,0513768343640495
0,0508848155038408
0,0417518840329227
0,0353370544367745
0,0647702248223771
0,0507053432860142
0,032948604394371
0,0478119461134081
0,0540966925362714
0,0497210827482656
0,0445396698146813
0,0463576384362592
0,0494535925105377
0,0377529559507487
0,0273198889827562
0,0729380262409188
0,050481749676143
0,0419341806195568
0,0715747377760627
0,0618740897282767
0,0455655100998451
0,0496516465732913
0,0515542806881577
0,0454455536493759
0,042451164909039
0,0377778503619604
0,0594136621256834
0,0625702878734436
0,0474556197638423
0,0504736208800021
0,0478897780868832
0,0464779658009127
0,0502053436862177
0,0529206574223279
0,0520471018959258
0,0532396409206354
0,0355934852547542
0,0636593375454919
0,075641498946117
0,0301470535302624
0,0719365087027618
0,0922181424193494
0,0627002682160221
0,0593149422887449
0,0547530153514242
0,0665833840141258
0,0619095919123067
0,0596409646971089
0,0570405475073693
0,0591965279369514
0,065943497906209
0,0763676450025023
0,0610748940321558
0,0470580357138629
0,081840096793481
0,117989970026991
0,0941821700087106
0,0739222368773514
0,0399188758048584
0,0802689233835711
0,0854862916074829
0,0926940872623429
0,0974896413339377
0,0826703256363918
0,0855650425227106
0,0832404979955598
0,0871572757108076
0,0865286078116367
0,0914906785484228
0,0939536661640974
0,0869709791135844
0,0870478041073343
0,0945582639625598
0,0877258661944254
0,090035139119281
0,126746339291314
0,108516040766858
0,102993689853107
0,107269068621168
0,0932354373048233
0,111566885754991
0,114595573826809
0,122776573032871
0,126311760228889
0,123030303231581
0,13657428747105
0,119079875882971
0,123915259105816
0,11611640261422
0,124630951182926
0,127315181093604
0,13457189400539
0,129962008242801
0,125550830253156
0,131228152014953
0,137337115081727
0,133652149273097
0,139748672790879
0,132342120655513
0,144720060575858
0,148125495522166
0,151502299779888
0,144187880811865
0,151694028886694
0,171806547451925
0,187778384518193
0,166150836082308
0,160925360489722
0,163705249975659
0,167212665146735
0,171623031517027
0,173272727416391
0,168536572575262
0,178780775812819
0,188756627997955
0,189641278023787
0,205604816280129
0,196432618415087
0,178759998340689
0,198377043754637
0,19875081893801
0,204517099171988
0,203875640465346
0,212695198220078
0,190948878727775
0,214134357998756
0,219387152598324
0,203876350730877
0,223550327597179
0,221268035779619
0,218077696639895
0,223446368817408
0,221994324842163
0,234412172941279
0,232586974867257
0,240806898594725
0,234876796077338
0,24364787978021
0,24395803127056
0,234287236513824
0,253950109475105
0,253878731527689
0,250862375031541
0,26495908097517
0,252434810384188
0,265793582268649
0,244765268387408
0,267328859108273
0,274925379913871
0,275412111541131
0,283915763891498
0,280335450025442
0,285292704757897
0,282373865313983
0,277573346984049
0,28864702137577
0,302499527016742
0,295374127436655
0,288959214814422
0,309167430415177
0,300003672706886
0,311011566882628
0,31743253928096
0,311475363676027
0,312207175735009
0,326431417489274
0,319869987762675
0,334654059345791
0,325031145936961
0,346732985258165
0,3473023977402
0,350799613069302
0,373984647608741
0,354741722402067
0,347796549754694
0,362012377196416
0,347660182113427
0,35450224324012
0,36400809044474
0,373401694895264
0,377443080517742
0,367695558658418
0,375679819653241
0,386869737518137
0,381494335076538
0,401054534048065
0,39996408904353
0,404000337169158
0,400179337116441
0,407086384132584
0,418121852917913
0,420373129244209
0,42341219782105
0,41999913402434
0,419406691372672
0,452355790972362
0,413880038518783
0,429260981156655
0,442657099827377
0,455034624767023
0,459963896397202
0,444986649564807
0,44954041698305
0,466513893297819
0,463719437525461
0,468813218727136
0,446616035114583
0,468651328960114
0,48194041830969
0,47151535628908
0,476981638445707
0,502780771587259
0,511510815972154
0,511772408622782
0,500527007937368
0,499997742050631
0,477744688707507
0,501782735791002
0,527377573532854
0,521291639618791
0,512395700474466
0,545656524848771
0,523935441235039
0,523845197704437
0,527753972241431
0,537949996594969
0,541291322202253
0,541209423581427
0,549124203842226
0,573901037905511
0,558823971798049
0,578948017809569
0,585934895427907
0,568574029542111
0,569059053615086
0,594509331430322
0,571421605675115
0,564625523784259
0,573447543978781
0,589079444122799
0,586917916128358
0,597311467681397
0,602114320443634
0,620184725167939
0,616146709618881
0,622558967860708
0,620665547413829
0,646421181519832
0,649501913162373
0,642672584042606
0,628882608820518
0,646152863669063
0,635080284666563
0,633871891780876
0,652923473268364
0,670678806369681
0,623637482116551
0,646232891355049
0,647973484828461
0,674146999032969
0,688019454231535
0,693167468642671
0,693582680093728
0,673531899899646
0,657876761472041
0,684203682179654
0,685630552111924
0,719971473355172
0,698899549897588
0,679064408714095
0,678706946857263
0,689731648640464
0,699189507108339
0,725151548961315
0,704372423502425
0,720934694644293
0,695102109057671
0,707822166644395
0,710239237069942
0,735279006574064
0,742964151054614
0,742680807775091
0,732850605638294
0,756415384606247
0,746351614856209
0,752561932663994
0,767909617531361
0,795454067690651
0,776278299533377
0,77406707351139
0,764946431526644
0,802638290912534
0,809617971981399
0,787418076479054
0,769271346248631
0,804210229758146
0,805430224562362
0,812732737032305
0,835693880441549
0,846534914596985
0,79821017414144
0,808657327973012
0,81353681167992
0,829092605723463
0,842315075033676
0,866721770987328
0,817555137164113
0,837488631433341
0,837782999693427
0,831646614611771
0,821820252849327
0,825272739567163
0,818517470263061
0,851408071811602
0,867265707631179
0,87497011300311
0,85260325930123
0,872141279058242
0,881431188536977
0,869572607612387
0,850817496095352
0,883774714362312
0,873623212780139
0,915295624355178
0,896357131860623
0,907934211707831
0,920308284734903
0,933794442896521
0,907044754837727
0,905451394982624
0,916522685057148
0,941702307264671
0,912974052246338
0,934315473074271
0,927332501662406
0,934336537978687
0,898290068407005
0,96323486224349
0,939316234145466
0,937388472801145
0,931616615915438
0,951053482230177
0,949260740830748
0,987757635559072
0,950570989494965
0,93285527134991
0,924195083219244
0,974396067485956
0,915105359027874
0,927128207257816
0,961933199166246
1,00141965127743
1,00867912727995
1,01670847741695
0,975860831402676
0,985952160289468
0,969583336937989
1,02495258953619
0,9855789101544
0,945413977711428
0,96987488445591
1,03766531037998
1,03374626963261
1,00250678565032
1,00620214442719
1,05773204619516
0,990280387422936
1,03115658309596
1,02861227033288
1,03401855375089
1,02136938410564
1,06464475985479
0,967494000530852
1,06034431949952
1,05826072027601
1,04213631485594
1,02495445187828
0,998938811028236
1,02494315024718
1,08269675209253
1,03300626197911
1,01775943262849
1,00447862224935
1,04819613575985
1,04967049138073
1,07839261610569
1,04470146184619
1,07921360234151
1,09186533189878
1,06591335775906
1,06245718269321
1,06315987593448
1,05181713111798
1,09299177309763
1,0483144687185
1,05594286914345
1,03814830535637
1,12206945353501
1,10069619065309
1,05571343410462
1,07108884938095
1,10153713486787
1,03190654136081
1,0741446799874
1,11275010316847
1,10800388357758
1,10291365453452
1,10116642936976
1,10879397587476
1,06269328160573
1,05757122622104
1,16359849596403
1,08249171164747
1,12680388123041
1,12416351985166
1,10087630147063
1,07838789200306
1,08615603402771
1,0839433225801
1,12726143854321
1,15126209717286
1,12504405798997
1,05052457785257
1,1153875567329
1,1084974496675
1,12605765042514
1,12138578141853
1,09832734473263
1,07457779234046
1,14493146660687
1,12133561614657
1,12753067531602
1,1066068991662
1,16981197080891
1,13633613535177
1,10468322999026
1,12815622466663
1,12525618606244
1,1136871583861
1,09089736938011
1,10118346994906
1,12704696833404
1,05223761564464
1,10115967803254
1,11482940230114
1,16493936904473
1,11894327688673
1,10885051571423
1,11276564555666
1,10927442810352
1,12804926378619
1,17411701317331
1,13666616999738
1,13844008927967
1,08928894740367
1,13325292854536
1,09725653466348
1,12521930801425
1,1126971538178
1,13571704498975
1,11833420018462
1,13807723531142
1,12062239211027
1,14012422304783
1,12497871599968
1,13576103386322
1,13042993046805
1,11279866122446
1,11263235450707
1,12171063607281
1,08736362362423
1,17482775778735
1,17369279478103
1,09716493385066
1,12472826230064
1,19132642385869
1,10144438932849
1,14129653069988
1,15873214636388
1,13764733930704
1,07479586078265
1,11301499735473
1,11883266551263
1,10990325121067
1,10327375539898
1,10333292597136
1,11298373094175
1,15081652100239
1,10027329735787
1,12364952302369
1,08862922862494
1,12808757080704
1,12282504348713
1,14159123867946
1,12030631775428
1,13819631536706
1,11851630721448
1,1103208417494
1,09738339076716
1,11141830328123
1,09533044454379
1,10733798582407
1,09217065035827
1,10331136549787
1,11001743433455
1,10034795577907
1,09484236047359
1,16236389045338
1,09197773473253
1,10625172324728
1,13806019763355
1,1190209938429
1,04118802890361
1,0988565729845
1,10917560228983
1,11520975056835
1,1019738413512
1,09936308161503
1,11573602645145
1,13343829987491
1,13184718266037
1,1027743661738
1,03318635082653
1,07487875651388
1,12175598882221
1,13842090278388
1,06603953100382
1,08593944738055
1,04146766841623
1,11731756440603
1,10814998154568
1,07306737986551
1,0204493443768
1,05528639167873
1,079497112359
1,11250014576485
1,10268437654217
1,07591313884828
1,02528482621114
1,0623478785423
1,03150755532875
1,03924184341208
1,05991594494558
1,07442999174761
1,02762010778172
1,06216630408983
1,06478768913838
1,04420433828295
1,00341424369499
1,0634255815569
1,05075309725837
1,01925830090162
1,04927799515735
1,04892266184398
1,01197043163118
1,0643394665158
1,00783044481809
1,04260725639996
1,04292132562435
1,03904960647453
1,00236879444848
1,0115878104341
1,02174534024471
1,00631604517991
0,988574421544993
1,00437701242755
0,97161839894123
0,985939790380435
0,970769844073088
0,990960488357772
0,972429293922223
1,0010100065505
0,950421303037139
0,957615846350818
0,978945465997151
1,00725434763954
0,972251875003437
0,983234661091407
0,951464119179591
0,921758599464121
0,919782358851868
0,960419466004936
0,953267760771839
0,92989307808155
0,912661414517308
0,933900194849015
0,917734045590912
0,931045532935276
0,893234384007006
0,912664876909745
0,911652321563003
0,929338375371217
0,910139795092936
0,942449461374788
0,888250829424327
0,896856099488598
0,903631988452237
0,910641247762974
0,881658476983466
0,877361138425991
0,845076109006045
0,889995612416597
0,891434435180931
0,865989458844155
0,834239554137983
0,862669203986097
0,85071485618787
0,878301311012356
0,85617123074222
0,842422469305479
0,851766218937593
0,845581221693626
0,829686438241236
0,810030262948475
0,815665984045982
0,83298082344381
0,812686719930275
0,821857520742668
0,805057220775612
0,805299947044546
0,796161334239521
0,797638491354355
0,789555343878003
0,808144156644807
0,794196442541409
0,780314079748337
0,784469878727963
0,783325960780616
0,760248694945038
0,771744856158277
0,768363421957069
0,777083609334449
0,74923208671005
0,764696193973796
0,762346321699212
0,758420221686592
0,748376042849974
0,745015268138157
0,744112532952077
0,734221804897941
0,716669732483829
0,729446927738322
0,723374048696432
0,721598114974322
0,716862550650783
0,73014634169018
0,707891681029939
0,70046359078769
0,707445104746697
0,714888628060876
0,683768961177595
0,697654679242997
0,684831215809038
0,680481824639762
0,684062923301456
0,684807784499682
0,660435650887654
0,668816809321965
0,669807276021463
0,673917774051773
0,663020955160425
0,661217639976274
0,656373870529014
0,652890738896206
0,646671319200617
0,661233112969412
0,642098415514648
0,646429148720522
0,63381714471141
0,636895709069036
0,62967796498374
0,630208675435796
0,631342408770517
0,620620223233366
0,610772156557029
0,608661288845226
0,6118072123704
0,616314365136101
0,61300762449508
0,598675446654343
0,595564468070352
0,59920619453765
0,58128756145428
0,598747723974935
0,60017835011087
0,587659031638136
0,569911632335891
0,582081984573877
0,566445374436392
0,566162387944924
0,570922738636353
0,568766956462539
0,56465464847935
0,568740007223611
0,556157171195923
0,553958919477994
0,559007793360741
0,558816069086339
0,541774746721763
0,54486166650707
0,540486962707876
0,54060957196067
0,534787879931527
0,534434475496704
0,534301286227704
0,540306905831969
0,524054804581331
0,525127623210014
0,518819229606142
0,529016075009269
0,512708978776
0,50867976203302
0,513745952711422
0,522781615068524
0,516376452237971
0,502908369854367
0,503353421776295
0,501762513296077
0,498468199410142
0,503164114665283
0,490808711541614
0,493451197763672
0,486313838280596
0,48852573964161
0,483596813397951
0,489190544196593
0,473080832178484
0,473811860511809
0,47352877825245
0,46973869723046
0,459039571187705
0,465718653159653
0,462772961693562
0,468367579411996
0,456324649280067
0,455228105430552
0,457781620917797
0,455593019844944
0,45076136094738
0,456860897588827
0,454000023946991
0,449955252925927
0,434460360356641
0,446050085095734
0,445276927341202
0,430187163772669
0,429102004434019
0,435597217308083
0,422692089795344
0,427104272177728
0,425577394152964
0,434594906374924
0,420077819616896
0,413718625236206
0,419400091021738
0,416329723224639
0,404587062959264
0,412069639587827
0,408938723149676
0,414104798277464
0,405946844300615
0,405637275226405
0,408030576842204
0,406290135457137
0,397293542627101
0,393579965325545
0,385701988362533
0,393915310525154
0,396795934392301
0,401078557934814
0,387513565819259
0,394551171404051
0,388010238093489
0,386574380761245
0,387752747303993
0,391069799033114
0,385431694119957
0,384836073626283
0,385114083948996
0,388820234660456
0,377797235327726
0,379592828149643
0,381622125883525
0,384432936982609
0,381091551427794
0,379220866257553
0,374756984631529
0,374890038866786
0,371162893066323
0,374206153815973
0,370754357162496
0,381207956506359
0,3802338501874
0,380796949946343
0,374034276370084
0,381186215006341
0,376633614601906
0,377680886620988
0,373392289191202
0,376464052051087
0,372070817972999
0,377071229629971
0,380531430117613
0,386890689787446
0,381123734552905
0,377499584945466
0,372709898872674
0,383385290028031
0,377143515759913
0,384952379383513
0,383340214773837
0,384305144794743
0,385421833523861
0,393517485426148
0,38777369635114
0,387374346083218
0,385255186222801
0,389130966911393
0,391747031270084
0,398195349947256
0,389689318831913
0,392683493966131
0,393815372447834
0,398099202254035
0,391942806743028
0,400610750804519
0,401182093804168
0,407626754309798
0,399512569221442
0,400374639403948
0,400605015273864
0,409645257442803
0,414055871830796
0,419631822890836
0,41730385262918
0,414513877252458
0,416982761723586
0,428675207713338
0,430492325543409
0,433693483185686
0,434569604492735
0,44435091407137
0,440250175970502
0,439414077461801
0,442895865459771
0,453178323292251
0,449002856316907
0,445072235893706
0,453017072231003
0,466736092320476
0,454469873601424
0,459333234565424
0,460563657680205
0,458027547972913
0,457822759355451
0,469969774604801
0,463671204548557
0,463972906588384
0,451320232836983
0,457937227051332
0,452016039264655
0,458955010510447
0,452116280733214
0,454901060903288
0,458059573821963
0,458491894847588
0,449494598005845
0,459187962377623
0,45546510054495
0,464275277692682
0,461342373448215
0,457640074227904
0,449078880997407
0,462943835924588
0,45613599427091
0,457977778858024
0,450481386449726
0,448097451008727
0,448906188596356
0,454053645067595
0,451269488929107
0,456490594348726
0,444882697481317
0,448811790875457
0,454042873733932
0,455867008527219
0,445372009845345
0,452463589057337
0,452542808187129
0,456833116101302
0,44992985548554
0,450143287519444
0,448778897433297
0,452329347831159
0,45929808278307
0,455506972823376
0,452630034477061
0,461840426111443
0,452152640671788
0,450937297666613
0,449818130959201
0,455778258493311
0,443246564387
0,447541266089027
0,449079709401371
0,452853053911734
0,445010025317949
0,453560891433303
0,446107786458614
0,435881239151
0,44118368083137
0,442474419827758
0,44138176689035
0,443008463986882
0,435448385849468
0,440549371079697
0,430901259888994
0,427349116225554
0,42149092719924
0,429754786842494
0,425387625984172
0,428822859543873
0,415015265180557
0,41542443594025
0,416069200707466
0,418803849561011
0,411910886246025
0,410879077412231
0,400991189757462
0,402902975115962
0,397099747062185
0,398073881272204
0,400422017910095
0,398852637443858
0,387052211698158
0,394458632122388
0,388005397003244
0,385278201319838
0,374260072259406
0,378197807593637
0,377682076044635
0,376051918266411
0,37440508382809
0,37415202694903
0,368521851919329
0,37662960156655
0,365718598732258
0,360282436879168
0,358663139415077
0,364567587809062
0,354651303028598
0,35236548245201
0,35261362571845
0,355028690113553
0,351041706837233
0,354547489342579
0,349243813271684
0,34983741030298
0,344236481685515
0,341033485000476
0,337042650040227
0,342862195668231
0,339658507261135
0,333576342068158
0,335416749297376
0,33667513378619
0,330328796289997
0,331194630368155
0,326702176444201
0,329105908896218
0,324730754617334
0,32953082297859
0,323758537791258
0,323935703087132
0,32471294101547
0,321307267870384
0,316340975061181
0,316229408626048
0,317806166658808
0,318076067996062
0,311342244736818
0,315177682187595
0,307861444837297
0,309196494331031
0,305506247687079
0,307528431702636
0,306291890580338
0,306848814121827
0,30248104389625
0,298767367752957
0,296319962251917
0,29555018265541
0,298451103117796
0,294949654423745
0,29381497670432
0,299067747093869
0,293695525972802
0,298545303847261
0,300986823654418
0,29385979476937
0,286197082906128
0,289228842188155
0,290512627767804
0,295594225159801
0,289913301258045
0,288962819889643
0,285345532625274
0,289261573647604
0,287743915661042
0,285544921088389
0,28180753280459
0,285284724072726
0,278661403860416
0,281138904722084
0,277246044750622
0,279114982143769
0,278397903280452
0,278862938843686
0,274803409319073
0,273812364486291
0,277111746119664
0,274259775749369
0,271905615080883
0,276982543705369
0,270085528031232
0,269667563784511
0,266316809917597
0,271031268874248
0,268916294983326
0,272545538780915
0,267162273284435
0,267162119178675
0,266291590781637
0,268733966398107
0,264809929174087
0,266179557636798
0,266203242383389
0,263969503451497
0,261285106141076
0,25967552641923
0,261816589345357
0,264959690081081
0,258951640200191
0,260519784246882
0,2584673188299
0,254861464282568
0,254716059299242
0,259497545366027
0,258871627948549
0,261461137511671
0,253336895207101
0,258778305848862
0,253132160149509
0,252368669055147
0,252073021929328
0,251891150616631
0,249603633155745
0,254126966808321
0,24877702324408
0,253450962632689
0,251046206201738
0,253062098339849
0,249710230089073
0,247759545655557
0,249339252228777
0,251408204279937
0,24768611254639
0,250418564455913
0,249506786307676
0,249580324778787
0,242644256158999
0,24779414901003
0,244315075491243
0,248622108193539
0,245562710785915
0,24857163849923
0,242747044974529
0,247586609446132
0,244761527189208
0,243255111075672
0,243188202932398
0,240498181428918
0,239747407793643
0,242614202891087
0,238172184722277
0,238865181126244
0,238193557380746
0,241033026128738
0,239943363662675
0,241500478045493
0,240021782293106
0,239726524426405
0,23293818901931
0,240761241391783
0,235308744676224
0,232910532874356
0,232754551084647
0,234067283794845
0,235971674916465
0,235091320996199
0,236817479407005
0,233668272259808
0,231265923110395
0,232324684129963
0,226221549274152
0,230982446606234
0,232499004772302
0,227665667028363
0,224193515897811
0,227676995042868
0,225077319809485
0,227738703940872
0,222276648707377
0,221067007588776
0,222969824458971
0,226006427663251
0,221429649332173
0,220683865977821
0,21763655819007
0,224882179948381
0,222158182087354
0,221569648692706
0,218146832084919
0,217562869931294
0,211896687077692
0,2203909331223
0,217129422319899
0,216008094441292
0,214266837399679
0,216085678119942
0,213150772526985
0,211421684723509
0,208609657506651
0,21208098300945
0,206952114001772
0,208117647106685
0,209326478690329
0,207883917889852
0,204121846087637
0,210010756673058
0,20963435896124
0,205794477895789
0,205502700197816
0,207881053302783
0,200564629001403
0,204626469451553
0,201042316009721
0,205144028892402
0,200976048639572
0,200618725817961
0,197246112486371
0,20182717115148
0,197602920468128
0,20004971742277
0,194209460654973
0,200695791802634
0,193086791266588
0,192559786457954
0,193134784573269
0,190486167793241
0,19182688941651
0,19378294468602
0,18612272276444
0,187068003146047
0,184986213363642
0,18651142259144
0,185009579096362
0,185267053137741
0,182775957970444
0,182377285408475
0,180790489526639
0,182710237156605
0,180538358574942
0,180765677989485
0,178392555949017
0,179530646589517
0,175844741576349
0,176814046526517
0,178672394357274
0,180496736326159
0,173110824381264
0,173600302713657
0,1717445738019
0,173987670242496
0,171094951206804
0,171782595116291
0,171725611653398
0,174403684934253
0,167288061368272
0,168929372616249
0,168358093591007
0,168252825988421
0,163820959267719
0,164506988491775
0,168308053298869
0,166273221467469
0,165032883207174
0,167278981778251
0,161985958568998
0,165741967947064
0,163102204844374
0,16368982250365
0,161380961133081
0,159943968619845
0,162564736623716
0,163041948062085
0,159187171403326
0,160400966945968
0,158631065549644
0,160055687994313
0,160559583665451
0,161578266054081
0,156234423417955
0,156252049064928
0,156154843575264
0,156350471640091
0,151315195685962
0,155771077916582
0,154041493259101
0,153307034199409
0,151544418368764
0,15415420411509
0,151366736101169
0,154911758390696
0,151188944252487
0,151097294595213
0,151177778058583
0,150797324243089
0,14942688131973
0,149597590246511
0,148453286028259
0,147006638191661
0,145724086531349
0,151892864199297
0,143836688597108
0,149655923272309
0,145461386782495
0,144257833405928
0,14504537193733
0,144687558003563
0,142354328201522
0,143788293002969
0,138683248610093
0,144263541984323
0,143206267356687
0,144408258204205
0,144157186995922
0,14431370312098
0,140165828774194
0,143213574507893
0,139078348082044
0,142456924792112
0,141910933034428
0,142345121328639
0,141013807204737
0,143809989295704
0,139946485771651
0,141031652974568
0,140255337239523
0,142116690161499
0,13718376531855
0,139227848328409
0,138500177376002
0,138421169718111
0,135541529051046
0,140211621948948
0,135822266579772
0,135866468706757
0,136642593397981
0,139061610874104
0,135899576138484
0,137828077447764
0,134908268471065
0,137603808751243
0,13376401506956
0,13583978687648
0,133357173611703
0,13431664538667
0,131819011826803
0,135719146792618
0,133550753602273
0,133596747861475
0,131755370453829
0,130706294081629
0,126635809313827
0,131628280686156
0,128557315126177
0,130502596066678
0,129440456681061
0,133901499573699
0,130491563394586
0,127744425409737
0,126418714412137
0,12885018127691
0,125486327488801
0,126199806681231
0,126367352639976
0,129104205676126
0,125174382586872
0,124463235548398
0,12511415320904
0,126413994870477
0,123983088623816
0,124503833854207
0,120151746760381
0,124817753111351
0,120726263988758
0,125487803120749
0,123917280794557
0,124275858603417
0,120674418263804
0,124097797136991
0,119461102136449
0,124186182733972
0,124560784364783
0,12283209772988
0,1183745608654
0,122198285615035
0,122046695814961
0,12126533720246
0,116616647479171
0,1200362439233
0,118956379696327
0,123058466718972
0,11964226973416
0,120178590427341
0,118676439104893
0,11905905710069
0,113913825016729
0,11856178088652
0,116839091546096
0,118698685916597
0,116660462350089
0,117414146516059
0,11771236978704
0,116780158152349
0,115413475053207
0,116007195749406
0,110960231080355
0,112241975044126
0,111894640454314
0,115664622595746
0,11390516414239
0,111933786647326
0,11075167082282
0,111925454023227
0,108336077607881
0,111880916931657
0,110036574851524
0,112534991312262
0,109521150453673
0,109147359515485
0,108764216089651
0,10776218025394
0,107009821450948
0,106698009662701
0,104068966263018
0,10915846131562
0,107117289397879
0,1073754179281
0,105110702906121
0,107562062416531
0,102333079863871
0,105552361378124
0,103677337137312
0,104402968376061
0,099645918560947
0,104358678012558
0,103264851681601
0,102299619418557
0,100521704256071
0,102603844218603
0,100402080962644
0,099547259514666
0,0990303559384239
0,102491149694107
0,0976699467021399
0,100767794237449
0,0993629548655652
0,0996475983593133
0,0975384848100466
0,097077228243103
0,0959533981140479
0,0970295892285529
0,0963147449272752
0,0987969741796628
0,0966108965513715
0,0980148024156853
0,0959942399528831
0,0960599615047278
0,0920496315265573
0,0971055007725084
0,0952750723930114
0,0959156840743053
0,0941656611832623
0,0969305423102394
0,0903432782614037
0,0928072411101469
0,0916158934357869
0,0930632569508225
0,0914507622318807
0,0932190959704969
0,0923171694138475
0,0896947234035667
0,0874154950109661
0,0917630561684649
0,0898404734857997
0,0892339792061353
0,0883728824692657
0,0920055894019355
0,0864477411182903
0,0901886094554491
0,0889419470535066
0,0865004371973854
0,0857942852424268
0,0865511872764038
0,0849162470383808
0,0870689048382262
0,0819595250805684
0,0875267653023908
0,0845183501742115
0,0870295011626707
0,0846342762676353
0,0877600057020053
0,0829201813945384
0,087002093646062
0,0841369167546462
0,0878683140069414
0,0846288009687174
0,0840170340932372
0,0822557812744251
0,0827443007589663
0,0808010246365325
0,0853562315249576
0,0792011225844322
0,0820812310612325
0,0795246493357786
0,0850716689838926
0,0825131791618921
0,0849851425278501
0,0815717377685493
0,0846546687516577
0,0821227229087139
0,084244953593226
0,0798143246121329
0,0829803770846859
0,0784171666135686
0,0799277562296187
0,077681359621062
0,0842308870489702
0,0816931932060075
0,0871311711697497
0,0823386269643406
0,0850895554162984
0,0772491050090394
0,0795675273959577
0,0692863140920044
0,0763175862799405
0,0806538806715574
0,0890537922183995
0,0787058782739464
0,0760153878657246
0,0692038451656811
0,0886162779312835
0,0794279575569792
0,0820162831232506
0,0742615101954904
0,0825969325825935
0,0735749031133778
0,083628174857109
0,0729629398867464
0,083667404261078
0,0704427205882866
0,0826134920588423
0,0779696934942357
0,0888565116841194
0,0798622084924435
0,085919198415212
0,0717023465561438
0,0831829035728631
0,0687078375438126
0,0807875529148796
0,0737365990096094
0,0862131391912153
0,0724251329055919
0,0840444010856525
0,0717100949972005
0,0836406862275684
0,0722865159418918
0,081348071120838
0,067758810566754
0,0820294522852405
0,0679518774609575
0,0768238366824832
0,0674596141368672
0,0761330403907813
0,0736781780410775
0,083712543727158
0,0786522319800751
0,073279062217211
0,0689975248490891
0,0721920197568543
0,0860509150869935
0,074488101646264
0,0795117171024481
0,0623223639619647
0,0940727478389453
0,0702671399059189
0,0933186463799633
0,0561705557755717
0,101780302614022
0,0608782692983662
0,0952644708407803
0,0560005473531933
0,101715841008022
0,0610020019394817
0,0909613132731916
0,0666829772423717
0,0858331829714537
0,0667647035393141
0,0800103399392871
0,071756788294641
0,077662506958653
0,0767796785659762
0,0773875147875438
0,0755747140681214
0,0781011412964989
0,0744720790581371
0,0794115107178646
0,074178654386166
0,0778953070329582
0,0741805211904181
0,079080046092596
0,0719659842794639
0,0775461048411428
0,0732853574637103
0,0774795968699919
0,0726261376700382
0,0763196541601259
0,0737117250116448
0,0775902576748951
0,0743990451860023
0,0744311864923684
0,0724280333074788
0,0772033721651208
0,0732787950112359
0,0776701470162416
0,0767514242259339
0,0785036208827345
0,0763649090537873
0,0791185094147507
0,073665659457232
0,0772346188442254
0,0757691033503484
0,077647950788161
0,0745029631159277
0,0788902275067877
0,0753814387212333
0,0789035743725675
0,0768921524038385
0,0783888839111377
0,0779969030345638
0,0788598206788472
0,0743664436635287
0,0774142470645659
0,0773373437640462
0,0803120937215273
0,0755530281051607
0,0790802738284357
0,0783441242021855
0,0792022378571572
0,0756786161376341
0,0810571809370063
0,0768456505397187
0,0808511625611999
0,0778384983749243
0,078511913021122
0,0797226255337124
0,0796169141721629
0,0757397783294962
0,0792865623393854
0,0764231827299279
0,0798065339154511
0,0791210079062936
0,0820973085298612
0,0809186609807452
0,0790363584613648
0,0778270651399779
0,0793201899580906
0,0772089404876615
0,0819242842935161
0,0763437235485719
0,0785265901296387
0,0800001898556852
0,0791342171337164
0,0819249051604135
0,0822413938750286
0,0792198236041968
0,08095500349103
0,0780441399088603
0,0796079434675661
0,0798776325774877
0,0776891167497018
0,078021780552578
0,0795819683953069
0,0800878828764125
0,0801627613845289
0,0803740802089395
0,0833635693984915
0,0807022590499468
0,0806016481984731
0,079607554188308
0,0805288241924506
0,0816775114809701
0,081287519528337
0,0827955647902001
0,0840548296970452
0,0818586183710101
0,0819760997851695
0,0826795458110691
0,0848684795238302
0,0859252899088944
0,0823809719409893
0,0831255853348659
0,0855006069081662
0,0831137794084096
0,0818572421290951
0,083029203100434
0,0844842272693241
0,0833411084043058
0,0846587872163731
0,084544505705039
0,0845594049022464
0,0834108606934616
0,0861845289854485
0,0837598213518125
0,0854380796317269
0,0862956895208176
0,0848168326201093
0,0850942961229502
0,0850793049392074
0,0874575365481973
0,0880365227577548
0,0859994576328691
0,0889162869730816
0,0869805532308619
0,0887464844895945
0,0887278230969396
0,0870829334599182
0,0865463368822358
0,0884836257162076
0,0872998721239133
0,0868804025498497
0,0868344729849112
0,0886512199475595
0,0876086159523103
0,087404758584225
0,0880623363086897
0,0888730015900135
0,0881008798930251
0,0888758779874928
0,0850919648059311
0,0861912989850835
0,088441276231797
0,0884147507127052
0,0876897888208794
0,0882749971430565
0,0899023799666499
0,0887727908489389
0,0905132797245917
0,0898134108196787
0,0882968872119888
0,0915788294461621
0,0911291443008232
0,0921249827152565
0,0899755258605181
0,0913606843695801
0,0913056676143085
0,0902270164142272
0,0910690585699184
0,0917717877542321
0,0939284358605198
0,0910857878337814
0,0924860774391282
0,0940684361523849
0,0923859396192781
0,0929881726205172
0,091518065314354
0,0939032968202993
0,0920627936482606
0,0929273165010609
0,0920194591714028
0,091181982027475
0,0929180885450801
0,0927737251911613
0,0922895646218377
0,0942625606390627
0,093376180300721
0,0916840929803607
0,0928070998013159
0,0915597389345459
0,0910316748050108
0,0931802294348861
0,0927769889108698
0,0916574398162188
0,0914997330624046
0,0952000584148885
0,0916105965794227
0,0900996280015599
0,090988829196915
0,0900207286198919
0,0901939412431057
0,0896816337619889
0,0910654581337027
0,0908039073711921
0,0912820975252568
0,0897087764944192
0,0893546674074345
0,089072230568333
0,090067140875188
0,0899737690668403
0,0893036723455113
0,0901658685805037
0,0893937947923428
0,0915103996907932
0,0894256031060904
0,0902473582089657
0,0904801179946778
0,0888856439754555
0,0906132131294957
0,0906522221696914
0,0910059934835651
0,0906804304000531
0,0896485220901758
0,0873075683492305
0,0876002860842206
0,0884963454996036
0,0889730488505434
0,0867455469971326
0,0892444934217143
0,0903205288096021
0,0889873760996937
0,0893633740830876
0,0875831639898714
0,0878868385282831
0,0912016771268151
0,0877984520032748
0,0873138918804992
0,0887225377363756
0,0892419881729656
0,0879217084092062
0,0881668987908959
0,0874117493158395
0,0884093731440883
0,0861983629655418
0,0860776959095073
0,0872857476473519
0,0869440408565336
0,0880932964071037
0,0867079765584151
0,0874411822493561
0,0864943397059637
0,0851394809700334
0,0884301185062205
0,0868687660895625
0,0862847164763234
0,088311357641691
0,0858611033934627
0,0870547513033761
0,0840256704450278
0,0836705808294696
0,0865024032753253
0,0847989605217084
0,0874586528773721
0,0890911335749018
0,0830229625038854
0,0869448291276737
0,0847407323402615
0,0855841557764188
0,0854592412581243
0,0840923711581562
0,086943790400067
0,0856015782252035
0,0842638820067503
0,0857235803913018
0,0841685366311811
0,084864869682117
0,0835709626046619
0,08294288618777
0,0845237287600371
0,0857756573783124
0,0842986582027883
0,0823388969226384
0,0808203317936149
0,082935749404416
0,0852917984208923
0,0842772560624748
0,0851506608547203
0,0816091171380376
0,0834199414634806
0,0841523542586712
0,0809465102341828
0,0811033108980811
0,0832679179607946
0,0840728549241734
0,0813812817320983
0,0821404553422319
0,081676006364418
0,0826984624227893
0,0828789493476399
0,0835157110891595
0,078984950099048
0,0825052192883157
0,0814184219281276
0,0835109059025577
0,0802215237734177
0,078624370823964
0,0807079693169716
0,0796987237284934
0,0796802329535163
0,0791865543152415
0,0790448166819918
0,0773535923092603
0,078811301845781
0,0789464395175766
0,0796337348212953
0,077090572438788
0,0772059881788778
0,0770406534917138
0,0759190804005317
0,0765339665878614
0,0761642838728915
0,0757893607715265
0,076032901528453
0,0748876464868468
0,0760417318261317
0,0769951347499158
0,0730221602401399
0,0743966078907514
0,0749667849535674
0,0746105876820387
0,0746038183409221
0,0732233520911631
0,0762736920860577
0,0707186145335811
0,073347188377377
0,0730814013332051
0,0721355067844419
0,07249572599691
0,0736332362026377
0,0682807480060346
0,0695333733651298
0,0703856416444642
0,0715818254439761
0,0710723278941236
0,0691329473693569
0,0703661397936589
0,071610088005264
0,0687720476449093
0,0715624049645195
0,0668587500151942
0,0749637516067591
0,0727961327487757
0,0717484233328506
0,0682957273754865
0,0708075569988414
0,0701969136034819
0,0717518323367627
0,0685475497826147
0,0698893945063861
0,0677319897023775
0,0684845145961154
0,0688764169802822
0,0703047974801073
0,0689631507641995
0,0686804681234448
0,0646201358740613
0,069776350776743
0,0679597004769535
0,0707481386231096
0,0691988442251454
0,0662442980736239
0,0674181131337888
0,0688255425828698
0,0658058593696359
0,0712848723573862
0,0654403007712433
0,0676716716477802
0,0670886763434205
0,0700798360740276
0,0690360217716204
0,0660276958406006
0,0671754528507703
0,0665551062957327
0,0669151969466087
0,0663902880709712
0,0653230368169852
0,0677342125583205
0,0653186179496571
0,064184411749893
0,0676083478868715
0,0657693864947324
0,0670278297379969
0,0650280733639898
0,0640250472330572
0,0644951090536136
0,0630902721246442
0,0618128058019578
0,0673289910453713
0,0593912837971265
0,064757148157556
0,0649746350453888
0,0654802786771494
0,0580021101300732
0,0660636393520448
0,0647398537315672
0,0687995407950176
0,0645785694597072
0,0642604784027691
0,0626186535627265
0,0631498434380824
0,0620919316687709
0,0649758656132051
0,0639334285345786
0,0613708488680441
0,0631426423974347
0,064881820685216
0,0632199391548476
0,063038825461756
0,0627379277980464
0,0614473156546502
0,0641125935397572
0,0652958346714005
0,0616348749395884
0,061523233489579
0,059853205996294
0,0677859769973642
0,0660191172251491
0,0668893937757311
0,0611518174231602
0,0607440611394251
0,0680356070100584
0,0663136242246446
0,0665022417227212
0,0602799976668077
0,0664722365683495
0,0584486264725922
0,0648911032419244
0,0567042120158031
0,0670091806807987
0,0605659658361381
0,0657964192944841
0,0622879929150001
0,0627771105482492
0,0591204994660895
0,0601698546329445
0,0606249959416865
0,0607490958607355
0,0590524478596699
0,0631685006964375
0,0629693839192808
0,0627494219999291
0,0608083666384215
0,0643607523373342
0,059493546455438
0,0636872717074487
0,0597372960476194
0,0639847049086749
0,0592217543624014
0,0630378032571502
0,0565569360281268
0,0669362298828005
0,0599730475295101
0,0673343472802512
0,0587617172445429
0,0631285410697692
0,0591182764314063
0,0593311231223761
0,0605318978657031
0,0622592378142562
0,0605596617130183
0,0624695632028634
0,0624366893452015
0,0624252352857191
0,0616456236168957
0,0609431907489207
0,0634057858506942
0,0608107171450494
0,0616440388538902
0,0591464355262038
0,0616969604765539
0,0628200846773614
0,0583401495610636
0,0686126709443979
0,0643435536270588
0,0708466401962187
0,0624013541678301
0,0682896459385239
0,0608218435505794
0,0654043602962947
0,0576146228199097
0,0639427967006468
0,059450431499273
0,0639857157590157
0,05790999995978
0,0649124263413546
0,0610514191488189
0,0662570798340148
0,0597101568956325
0,062362838403363
0,0585200981161533
0,065984045897601
0,0587106205722393
0,0655715518808847
0,0603383827053504
0,0623878547993073
0,0585169601573673
0,0674642265260236
0,0628873975362705
0,0560912787526063
0,073700045124021
0,0635507846297538
0,0747857940591839
0,0589185107659316
0,0681834809950528
0,0606296965034979
0,0644416381228521
0,0614718702728903
0,0647397015231471
0,0627475623548164
0,0639058656170102
0,0597068537910419
0,0665826776204983
0,0631244217511609
0,0564940007865773
0,067730806212746
0,069618375709415
0,0710467954691571
0,0692268231492559
0,0528648581673183
0,0721493353324374
0,0695740147969077
0,0721426304550805
0,0627245388818702
0,0656252671424254
0,0683520325905862
0,06493328317827
0,0658202550478064
0,0644885550992136
0,0684094940570113
0,0632812657306347
0,0680968353970405
0,0627836977207824
0,0671694793027545
0,0661475142488673
0,0652008325552232
0,0691369242400369
0,069532195103614
0,0691314414649657
0,0685169673152224
0,0669471234507847
0,0705037387090506
0,0658601475699285
0,0701222389499208
0,0607250467754717
0,0736180161930579
0,0700144008774221
0,072755768750973
0,0733261392527596
0,0754632929957386
0,0709717185338182
0,072459118336171
0,0713093577310898
0,0764109064475552
0,0565493725043892
0,0828759841180645
0,0659095745810867
0,0942566235867261
0,0680864963205338
0,080178008408288
0,0630927537393822
0,0788197693698772
0,0659143726101737
0,0709071267938648
0,0769456607641471
0,0771218138432212
0,0762616922378673
0,0666958182661779
0,0774312395262982
0,0739901193278602
0,0794203843186145
0,0702704616908581
0,0752751894913286
0,0676790657927459
0,0879595933791939
0,0681394952747913
0,0784907602261331
0,0773141577393003
0,0834087708374276
0,0981661701462696
0,0743624206219658
0,0818280825493215
0,0792218774271866
0,0849735585565644
0,0833745918728279
0,0770349248659578
0,0843288866194242
0,0731492475149187
0,0813738478985841
0,0916579319543459
0,0863152293774251
0,0849000758379289
0,0765868946426016
0,0854612945629632
0,0914489631561103
0,0922579220856146
0,0819849914704262
0,086615548937883
0,0803246945081613
0,0757867768575926
0,108760967350003
0,0874404391735932
0,101955838146116
0,0836417763052902
0,107319737249516
0,088572056426174
0,105946371969379
0,0853274975351678
0,10294351241927
0,0972203527002818
0,104718634777834
0,0839187517174163
0,111890832615384
0,0997706938938525
0,110727064690094
0,101777598394496
0,103388806915591
0,0919655222070896
0,108309411135223
0,128706575881412
0,133727081734631
0,110012470706838
0,115320353476482
0,11729824423004
0,12497231704799
0,118240776455053
0,120649004669678
0,121378744304022
0,121329552402667
0,123587518122276
0,127695145509939
0,125067735354434
0,133211946297194
0,123472829404525
0,13691210192306
0,125329817656369
0,17220803177393
0,141787956295836
0,146028338760765
0,140318131689592
0,150724643576491
0,150328130015717
0,145827829016798
0,146961765290187
0,145508410395807
0,153598754904021
0,150427216475772
0,147563837743933
0,164643339787437
0,151489014657369
0,184874456928095
0,158241178424275
0,179042844918291
0,141257075207396
0,174437426164382
0,196022658062364
0,192871467369943
0,19093681567192
0,163402327076645
0,197508322019343
0,203388208466535
0,209443297647144
0,193390844964639
0,201579871147949
0,194125635015249
0,205793242398238
0,206392289453254
0,213778943178629
0,221633166366689
0,221813046055437
0,213619139271097
0,223367994706241
0,24612107554009
0,285527746024556
0,244890371796295
0,249709032788349
0,249745224172804
0,264872928330654
0,260164819928102
0,27844257692629
0,25630977559988
0,296208629756752
0,280887280611416
0,310243946729774
0,276946622933805
0,307386549278726
0,295142617390927
0,309057633939332
0,325424583590599
0,325230173227301
0,333429038766831
0,323055035149357
0,342064570541394
0,328780768943867
0,340527616740958
0,356718191367409
0,368001715396117
0,363426630067686
0,358796193307086
0,369955440770546
0,361566472351311
0,379672401114834
0,373394361773432
0,384578399754941
0,371292779324125
0,388849092703737
0,489461933984224
0,41042350594066
0,40713221388915
0,380266659281172
0,389836529888377
0,403054112628718
0,410942488941427
0,418709524805097
0,41802473125186
0,408456959028726
0,395254591317532
0,407750571394681
0,39928639772272
0,410638362723992
0,396329351990419
0,405600110037404
0,411898661376296
0,385901879747436
0,44090300585559
0,42363379917067
0,422590213912424
0,397692476811892
0,39610434136295
0,385712667345709
0,401212220739811
0,380363026784059
0,400089027817585
0,385642335740053
0,398747932016499
0,373388854851325
0,365849784092038
0,379956210183167
0,378490809895213
0,369215504885917
0,352888951383739
0,350546027628173
0,359164889942695
0,330780566791764
0,361203189475946
0,358249858438037
0,351235500469201
0,324029397115966
0,334297826641641
0,321969722089475
0,328105666119899
0,31460715844888
0,322977241604104
0,314478229668963
0,319179210225041
0,312661412853792
0,314594787313602
0,308757571665111
0,309768721938144
0,309747882462087
0,311343815482996
0,313791808363962
0,306069539683278
0,307660761944267
0,303922206175839
0,308526176180547
0,311385285495843
0,306548199464242
0,314280230111942
0,306570702542753
0,308059245815517
0,311015487786044
0,307555959746214
0,311870128301031
0,312635689571318
0,314944002755982
0,315822735565125
0,315315448420666
0,31429043211579
0,322733572282346
0,314763209825131
0,317323929133219
0,316322512545796
0,323128777486197
0,315341479845088
0,323756585456476
0,310777027057518
0,311535412478735
0,353715414367452
0,346310404865475
0,337594965872007
0,318707846287554
0,337148789418391
0,314908382416184
0,326255938982473
0,340430858362778
0,348629715559301
0,337931568567964
0,326171638704079
0,31789330760243
0,336743446320598
0,333040194797314
0,336734051618152
0,321081538828481
0,320183183803476
0,351396952954944
0,333677303155552
0,394211239167015
0,347508634953952
0,354397092246707
0,303531977804132
0,334865763572148
0,324213300942369
0,333167700055159
0,308675051889278
0,31216143559427
0,312930117193339
0,313652682119783
0,313484640397999
0,295483823946221
0,293850247709201
0,302317079488591
0,304740278174117
0,293236995340784
0,302801619824313
0,291078144342317
0,278016280510104
0,267424524691782
0,330909732155604
0,286426036830567
0,268736315802382
0,266243417559664
0,247147325145087
0,269889680018794
0,265477062489521
0,263107240074644
0,258758441345131
0,246221408112551
0,248392056954989
0,232630390764119
0,265332914199194
0,230422663781538
0,252921167429018
0,23581739758086
0,242502563674184
0,220501295585427
0,232030410430672
0,248110255951047
0,257590887443272
0,238020368725474
0,215415928254893
0,242547475491129
0,231133233601595
0,237254387021312
0,228927193215696
0,213820277795798
0,223361467230622
0,221348097302705
0,219254578385456
0,224673187541832
0,216716769268412
0,232154223819336
0,218369898177545
0,242376797304292
0,242599533368366
0,218883684456057
0,215629180201711
0,207533047492428
0,220427655134477
0,210955577013208
0,203503213880257
0,227705687683168
0,209546450464224
0,227776101024982
0,218235833359767
0,230624574026922
0,217705862557362
0,226220628100169
0,215614131326683
0,22222741429745
0,231391390109462
0,253679823749583
0,231190784482072
0,240418490500629
0,234095242302249
0,252986489060602
0,235331665080136
0,249811995004503
0,240071219659329
0,252436824162113
0,255249957794435
0,264615482976283
0,258603879584123
0,270161721837719
0,255086551187465
0,296593448017672
0,273843987685345
0,293312799115323
0,274023088983673
0,312350049277613
0,316080715101657
0,315210449988266
0,315135810223508
0,307180940646883
0,323319606884259
0,330410011535624
0,317247363132741
0,338592947657424
0,343744890643793
0,352122316454674
0,341464528583153
0,35330590208382
0,347813149949278
0,356389228691406
0,35265483640697
0,351985431232031
0,389854847787042
0,384985208772036
0,395947245983985
0,366553701816713
0,372212088888429
0,374008838901465
0,376901178536116
0,377313577808784
0,365778446018446
0,382940138236259
0,383719137606983
0,387733828435762
0,378928544079716
0,382525223588665
0,38520447150458
0,380380880029081
0,381319689817039
0,39521207060982
0,392549781797357
0,396996295613776
0,38221019337668
0,401748205811724
0,429730217834544
0,428829536786889
0,410481621192902
0,403054372846723
0,420343284470329
0,410218248183493
0,423668883099456
0,428866751630211
0,430313712883574
0,430559440270653
0,428885815804501
0,435505379161571
0,434245356297834
0,453387389715122
0,447362495915773
0,451634217546717
0,452970645719263
0,436859036515689
0,473292246315368
0,464707170574141
0,472961099185479
0,458350330485922
0,475178009269191
0,453935405871775
0,469936902337668
0,459097156999762
0,461006285237605
0,461187321992915
0,465151381486903
0,462258044844923
0,465392089763443
0,471690442521954
0,455296774173561
0,462783647789858
0,470114822410908
0,472246990998138
0,462429673884762
0,464195598119478
0,461015760671332
0,453295418530036
0,470747686447059
0,458797687580512
0,46651027500199
0,447391394347221
0,452359633505789
0,468026061229426
0,460822917184623
0,450701416038949
0,456340627624396
0,449998299442994
0,457190660514457
0,440973763229009
0,453676110831346
0,453145438020293
0,465397462748135
0,457433707033098
0,466119100928031
0,457953677971728
0,469465013507266
0,467970072812843
0,482978119023875
0,476537171746432
0,483615305197859
0,480837919334993
0,487711308202142
0,488916951766942
0,488567295824525
0,489459932921444
0,494940324088356
0,48791920185516
0,490590067461637
0,492771715999678
0,492806908872898
0,488777750910557
0,490146515186977
0,478678584136326
0,487606261839143
0,468403277448747
0,491325244551064
0,484460430806934
0,478391298588112
0,472217154641852
0,468889985047044
0,464174042880452
0,459905335079045
0,46102641797125
0,457804060622798
0,454843576415542
0,454004490243466
0,450000016487391
0,451190681663688
0,448388664639411
0,447221844399853
0,444050104340221
0,448420013143084
0,444177813463366
0,439979398404985
0,444619247583847
0,441129913251954
0,44162819681323
0,44495450422008
0,442485534463209
0,441018241746433
0,445025553262423
0,446892118020789
0,447241083420207
0,441977015155697
0,451785904452179
0,43892154509324
0,445175650224525
0,435896621865303
0,442245016008411
0,438520101305739
0,440580172134519
0,436176457203674
0,43726951115207
0,435379629757845
0,439607598936065
0,436361576023119
0,433673436490531
0,434234834147821
0,428565093030548
0,433726659420012
0,432572422915028
0,429509043476645
0,430791708217767
0,429860700515514
0,428479975277593
0,435801675511376
0,425564229670819
0,430736763820506
0,428906157946825
0,430178369458536
0,429234554688159
0,424007919319281
0,422227434194748
0,427020918431964
0,425924547175959
0,42116074976933
0,421382476680728
0,419115327856613
0,422627265849057
0,415181723025033
0,412699355439058
0,412452684034611
0,408678514365649
0,410602818080246
0,403139754514292
0,401290520993851
0,399278741506075
0,392245279037821
0,394681182127579
0,392641326383627
0,389096525443895
0,384555160976887
0,378847813117807
0,378312167952686
0,375963466164697
0,377178764441393
0,370785560268728
0,368526215053804
0,370200260691043
0,365606324219617
0,362667885967973
0,36387288051307
0,359185345321207
0,361383924501208
0,362256937393725
0,35824718272254
0,357715233761674
0,360010838896149
0,358240866715101
0,362112978230457
0,357799892166809
0,364122598635426
0,364079595425954
0,365241349024943
0,366070571353364
0,368805096254187
0,366610937295317
0,366500096915135
0,365819560759431
0,374743260941667
0,371655893090021
0,372757106459789
0,376871551130164
0,375431595653276
0,377169824707581
0,372763680152973
0,377277094295832
0,381111478013799
0,378081821397755
0,37858297375029
0,377371816756202
0,376300173312308
0,376925100979106
0,376690822371713
0,37414767360127
0,374991870323878
0,375454958557953
0,372726446148373
0,368547217459128
0,368218892111827
0,371653176074229
0,368689289954777
0,368489435863764
0,368110641321839
0,362661291223775
0,366016307022456
0,361973875752405
0,361152553539064
0,360084705600346
0,356338358373563
0,359720003251203
0,358139637375564
0,353985644106262
0,355775317891191
0,353856259682481
0,351925661092592
0,348280328188863
0,34854826552749
0,348503846064939
0,347208979147719
0,346267745726392
0,345036178786368
0,340245581720356
0,341270985058357
0,339371254230324
0,339864171505391
0,33618556925331
0,33119027661423
0,332517723191491
0,330921145424242
0,327988491852555
0,325854212928821
0,324207833446793
0,32152992344364
0,320287087942345
0,318752273553187
0,31773722455645
0,313044431320269
0,311406302824835
0,311231210606093
0,304983724919135
0,306671158741176
0,302838057188062
0,302080769681379
0,301594401499295
0,300297671619255
0,299159564073834
0,302488915426107
0,299872319072193
0,298580083082803
0,294807705751983
0,296302059576276
0,293784787051491
0,289067891726689
0,288903545359613
0,286825358393566
0,284086372796253
0,280421008775172
0,274826830353033
0,271888033484886
0,268948038781359
0,264267758327018
0,266015340914693
0,256075219681297
0,255205575390618
0,2570451135812
0,253011648623079
0,257525702467937
0,254533800206688
0,259641358504904
0,264305347524866
0,267854703192095
0,273664655009598
0,28143781051779
0,286339924458324
0,296750467122458
0,30601512688496
0,316328733915521
0,329400074528416
0,337658032282927
0,351208324327106
0,362928259052102
0,378827547126002
0,389855856607954
0,402798355383464
0,420052220709341
0,430078498481346
0,446254032135486
0,463507487318487
0,480092717444103
0,491244915620773
0,507385036016091
0,522893806362332
0,535955718377194
0,551205434057425
0,569337994093078
0,580511664676485
0,592472623818865
0,603350304510082
0,613726586139909
0,624679804893803
0,63300986247989
0,639514981725115
0,648560999911875
0,646573336109524
0,652985251731331
0,655846189975469
0,646194160999732
0,651851613058047
0,650623582495565
0,645294835618665
0,646126669841481
0,643571409444892
0,645634408979839
0,636123625693907
0,635895229729225
0,633189384813319
0,632511844660694
0,633712782439839
0,633326196331373
0,636162790408499
0,64080099142511
0,646966497164999
0,645531627482802
0,649388571893091
0,65618796773049
0,669977061842487
0,66444772777443
0,677981180970779
0,683850686496408
0,692195435176592
0,703524975571575
0,722970077795716
0,72373315967538
0,732896026899186
0,747836082343277
0,750226899100083
0,763109123167188
0,766996357554202
0,768530464148865
0,775010962774195
0,777992271668589
0,783796331678241
0,780591284824781
0,777304652738483
0,779402286492274
0,782856020755189
0,785545493932815
0,773712654239664
0,768872857313789
0,771038669720798
0,772041239107922
0,774374677158709
0,772055510134122
0,780882038669135
0,789710998906553
0,791599381839909
0,804346328746401
0,81424752492894
0,827145131006859
0,829530098267009
0,835665391984649
0,84738715418726
0,853913950277367
0,868354398928342
0,877891795828821
0,882894011151159
0,899137649006499
0,90811395680939
0,919394688145353
0,925108718528398
0,938766072483042
0,95817875963978
0,977873970964619
0,996899683154811
1,01413260849148
1,03506300775005
1,06229565621411
1,09104510111747
1,10631560108781
1,11679571382377
1,14084678929963
1,17155971554982
1,18873778560002
1,18134486476861
1,20212529702286
1,19752402717949
1,20712196146208
1,22646195406619
1,22398761693456
1,23827617451086
1,26544163253379
1,24721732945576
1,22254948913789
1,23838787535211
1,25952324956226
1,21270026961133
1,23962477075981
1,23671976327927
1,2091620879062
1,22711238925672
1,21420016444425
1,19563969197071
1,20674010683075
1,22876757388381
1,22257104469198
1,23599740297876
1,2590617581714
1,22774691225443
1,29441070580095
1,26164782698151
1,28328710380088
1,2863273296782
1,32792775632515
1,34484771755487
1,34840612661217
1,35826539056571
1,36591712455433
1,38446469087033
1,44394130093065
1,40453256182822
1,41701245330194
1,4775449349979
1,4910234956633
1,46826248382679
1,50598651546924
1,49380090964507
1,54366946458185
1,56316854208725
1,54792666981495
1,51484131300584
1,56660373362603
1,57261293718598
1,63640901204494
1,57772567013997
1,65175671950233
1,61637501455184
1,68060569264981
1,62543810791248
1,76978217552005
1,68568839792609
1,81204872016188
1,72947423570638
1,79485956866669
1,72370988171638
1,71760560168524
1,80028941353491
1,82571071509749
1,70619875260579
1,76082496040414
1,68261843766921
1,75829586280544
1,67265473520336
1,65665873389012
1,6811487130647
1,68560048769023
1,58017127614991
1,54423842867351
1,49723560642768
1,47418502627179
1,43043796893578
1,40894455095659
1,37606496728427
1,3658579886638
1,30699213837601
1,34866753745089
1,30632767428999
1,3416000654314
1,31922980778069
1,29895707171186
1,27108220253697
1,28529626583458
1,23773438083405
1,22903120784084
1,21519437399851
1,21794769414321
1,196410454445
1,20868973313045
1,16852759821306
1,1513713979381
1,1081167007657
1,08167314714107
1,03544946991378
1,0052445382197
0,98600780312542
0,938815305394968
0,90353573921619
0,860084458197206
0,837066178210917
0,816586054060495
0,764923693472382
0,718117565433286
0,693472766213355
0,670211314278907
0,632376357031373
0,61180537774123
0,581142531157969
0,569505967841448
0,542401120546482
0,529423535673593
0,509086368240755
0,49831411679563
0,480172051773332
0,473550754535269
0,452227545422569
0,446079005254435
0,438397026145496
0,428289808684792
0,42062100477443
0,414131510297313
0,41103503016921
0,407428453334699
0,401535959087836
0,402131024696798
0,392322534739329
0,401369649013621
0,392697166811111
0,396164607125768
0,397247439533812
0,395533210448488
0,394336648376561
0,400558073070401
0,402764679645409
0,402249685902095
0,399705895182093
0,409434749955718
0,40257041421573
0,401572464048263
0,407927789126253
0,408469055634882
0,405622153595329
0,407986073438027
0,395842207161476
0,39954909547389
0,398742920967815
0,399088565761571
0,404109676165965
0,401110725039585
0,398282512138226
0,401513480505135
0,404018365996879
0,408394483124808
0,403830267264268
0,417369241873068
0,409723717443353
0,40897320714692
0,416373729823887
0,411598264208343
0,416155562346069
0,422309677226008
0,410644372625079
0,414594567825605
0,418845334211267
0,42044409285865
0,416598024423413
0,421924024978544
0,42165487674539
0,420133400977848
0,417864532522678
0,421580158916262
0,418879349294634
0,411968361081057
0,41600561423389
0,421688816757049
0,416390143898865
0,425594840263764
0,422090931478306
0,433186443473628
0,43610979630388
0,437336027728799
0,446601197600879
0,452712711905704
0,4646815651362
0,471200267995893
0,47778535572823
0,500267756719766
0,495111601569645
0,509683406175628
0,511919206687983
0,521416789270093
0,525538832414353
0,530614008446913
0,517889700577893
0,517798034583422
0,510854345615656
0,512123543384082
0,497391548570766
0,502375737248549
0,489561154860204
0,49192953682075
0,488921657294916
0,486570308532176
0,486819065067876
0,480270777166319
0,487734279637275
0,489637487202015
0,487077992949647
0,486627506928201
0,493682739480978
0,489758999865138
0,489412150791492
0,495902669135167
0,490788260379695
0,484761312728305
0,479344574657116
0,477325691598251
0,485017248085463
0,490558990434002
0,481024004055524
0,472238792714039
0,477661871402659
0,486809335965866
0,46530941036456
0,476127472952531
0,476842122924939
0,468708059967329
0,483420605552606
0,472075712276731
0,478171062220624
0,482028284272839
0,473262072403358
0,469077384101666
0,463374380900099
0,470879457035594
0,455828492056022
0,472794642617804
0,464347466248638
0,460010850600724
0,460391066984746
0,472542275344032
0,471668128947802
0,469875597290284
0,459821329898896
0,466159257029071
0,474542282559507
0,468742756963014
0,446926654348428
0,463276279838614
0,43584992522442
0,455265578863194
0,444351677773811
0,450148331908031
0,448789422584208
0,443362950489445
0,449541859287057
0,454604419961196
0,455043948196611
0,453741150576018
0,433769115354393
0,454540111550578
0,456980115578846
0,45091608831432
0,445586208160441
0,456382997735073
0,44694307925653
0,462465387836461
0,449388322584936
0,464475191587134
0,464598716392001
0,469123539423847
0,454796051896096
0,461899246144666
0,461518396019454
0,480486007279952
0,479298749404874
0,469652692667696
0,47493490807788
0,481547514343191
0,487361979033638
0,488852988557852
0,472489595534426
0,493332599537376
0,496604579257252
0,510951112865338
0,507075440029011
0,515283101305085
0,511706806445645
0,53179899943674
0,510830397400337
0,538114853055068
0,526443984165757
0,550492509080434
0,518354504059541
0,573734930428481
0,569291185722085
0,573724122269156
0,604192669246299
0,626862792079166
0,606506987414906
0,629436460166101
0,640628867015967
0,64890146052103
0,63464334994292
0,663527938215567
0,690262555718614
0,679361047838017
0,662194381589506
0,704936460710692
0,670002868250915
0,744853213924182
0,672478243032613
0,703325124178995
0,682054415186456
0,677871020189586
0,699755581006265
0,680705310488203
0,698844769678202
0,713999229389472
0,68942787958128
0,702299748610413
0,70957911555836
0,739148796053153
0,701543892532393
0,729579396163549
0,72726865337079
0,739803701490911
0,686202854617716
0,745620104245678
0,690153856453587
0,712771252014701
0,730899825380271
0,723731871871249
0,669007029964459
0,724281414470681
0,698362120962961
0,723419026855059
0,649278577833939
0,68691914385321
0,680414976455972
0,77256597857898
0,726011339585658
0,698248930892771
0,654434020082339
0,731841937225082
0,671207779956583
0,691791894079643
0,668389065873324
0,694951394176986
0,663376792114023
0,744485796609149
0,691854101525006
0,72960900321129
0,684013576227782
0,70508255335024
0,681659325001454
0,764217142853986
0,716082936893797
0,737631858028231
0,700420467668715
0,728233927155331
0,722116241852599
0,722368372593014
0,700676291358073
0,744033132257763
0,701296244026585
0,736904103061556
0,713789136568013
0,755799972035333
0,72081729322369
0,763147636002255
0,68283155895773
0,711510474317659
0,721856452327362
0,796548271132802
0,725855915253404
0,762278148074267
0,735088805041139
0,810042852832871
0,707310264373539
0,829741811978104
0,72863522781441
0,870265740687572
0,747362124445853
0,950140080602456
0,892064681659299
0,847768210192223
0,799525551315884
0,877198097217241
0,74418553246261
1,01363620588517
0,91748316458436
1,00519153909878
0,906430234747916
1,11135868506729
0,756803595279991
1,01789669431356
0,840980098238112
1,10390921948807
0,781032597000774
0,966705166266009
0,757767518493106
0,988085325419095
0,81740556052371
0,905495935703722
0,891335917190781
1,01211497923946
0,728853457428288
0,941291068204311
0,828311256971655
1,08798747983515
0,828604427225257
0,852355782608702
0,734366421908551
1,02573651797204
0,70293830068282
1,11582001691144
0,693829178637073
1,02232764545541
0,806502755862266
0,96180960502354
0,888206761156692
1,09146130319883
0,990999322088069
1,00690273711171
0,890103175155918
0,810109849016646
0,910368904487945
0,726496498250735
0,85123589360717
0,707204137427613
0,667384853210708
1,28173840644541
5
5
0,850522637018256
0,861672147965172
1,02581841044238
5
0,914820963667238
1,13266584346765
0,726767099697279
1,55920375497606
0,811868708293663
5
0,651024319296437
0,725668967277908
0,908870528317942
5
0,737559858860528
5
1,01389389701395
5
