3596
4000,36533379555
650,420452594757
1
2
2
0,0476331157896909
0,0477060033329856
0,0428992792283455
0,0498787403708957
0,0387396367181575
0,0457285943907115
0,0394705927052442
0,0471909430071752
0,0423008126918551
0,0504279822809336
0,0409328350108471
0,0485131931868287
0,0398936907521897
0,0439424776052508
0,0386810498138212
0,0438844711601747
0,0402685307393726
0,0412601673104059
0,0409065003570061
0,0446037797033235
0,0353027439026239
0,0456201703807036
0,046673345794488
0,0490480791371128
0,0311122028803576
0,0470386715099903
0,0413432673757467
0,0520256691472242
0,0412562215801313
0,0538342055771516
0,0408355379954166
0,0448654022468837
0,0419416230220649
0,0486312815570643
0,0386095795965676
0,0490829803757738
0,0329023168027225
0,0410956047178073
0,0403398827380143
0,0475728329950615
0,0363310516126856
0,0487212585049243
0,0384354966169923
0,0474125264918562
0,042171170923152
0,0447150652852697
0,0494985920851039
0,0366539893274363
0,031911944058401
0,047340712425385
0,043426799422082
0,0381499580807009
0,0426189135566349
0,0564715932935992
0,0425704138544878
0,052692137175868
0,0486969519144919
0,0421328133039402
0,0354281443114355
0,0414310690755714
0,044002090975111
0,0528909580144023
0,0374144790556824
0,0511728061522095
0,0342860693592862
0,0524163708411454
0,04009865141474
0,0472936603535727
0,0347463099517875
0,0511029079599886
0,0223940812272813
0,0448893852295826
0,047314220230799
0,0507344827735474
0,041460434854385
0,0501428778161905
0,0308147682087024
0,0356682394236061
0,0338413857382241
0,0541193451665264
0,0423867607190112
0,0438311315690629
0,0373915950677345
0,0364988026193752
0,0386479185393383
0,0639850248899254
0,0260358372414066
0,0483704100438963
0,0485103256235091
0,0441958644307043
0,0296386945125902
0,0378907309957748
0,0303145645203228
0,0483249929330707
0,0316146894507398
0,0455226175842496
0,0329034818448153
0,0451321766967725
0,0250516717991175
0,0426515964626535
0,0358687089614133
0,0337217631059737
0,0799864901004339
0,0168925369001766
0,0752628379132837
0,0476548656466774
0,0158396305034704
0,0741950596220029
0,0375668097824886
0,0515762561149168
0,0322773975393355
0,0483815240082725
0,0273190834067241
0,0500531955911645
0,0135751324520075
0,0553149078295327
0,0582695028671222
0,0491946686852669
0,030650464834233
0,0476479847933338
0,00346500355022762
0,047394390892736
0,066841888862162
0,0355831189758101
0,042439578339496
0,0391962597841683
0,0166261428909561
0,0545140914168786
0,0545794482798447
0,0416790330056567
0,0425897393183843
0,0372213349773181
0,0275036180056189
0,024279993264328
0,0635251787158383
0,0378038003147289
0,0334424182219709
0,0220061757645599
0,0345485965935846
0,0872160245206891
0,0441057519943888
0,0367018061514857
0,0168410173224977
0,0258226765900629
0,0606061129439388
0,0565234411011649
0,023067810430273
0,0521751174753315
0,045986421276353
0,0341830825083145
0,0293056067849839
0,0280937847521029
0,041825778917252
0,0499754959841695
-0,0215651722709334
0,0494649907530383
0,0688034741843393
0,0339652211551172
0,0955064479102631
0,0322035043519224
0,0495313514866982
0,0308934716357811
0,0426274469820503
0,0300806661868694
0,0366854733552106
0,0194856311252741
0,0221526157379599
0,0641570583652488
0,0349219103823533
0,0239554527771731
0,0485521454077961
0,0478422986210967
-0,00248392043403758
0,0992851027105275
0,0404225933124027
0,0207641785726972
0,0504763258782736
0,0621872671648911
0,0294538809411452
0,0307434503005999
0,0519399284449183
0,0285178496549786
0,0342342696045311
0,0305949933133862
0,0334348602755958
0,0493540480442494
0,0458148033886362
0,0369176531004663
0,0380784477191504
0,0102755036495407
0,0196298078819353
0,067229511422445
0,0660500066664345
0,0421493731153548
0,0422390386212258
-0,0131530790324088
0,0615153431852677
0,0681398288946403
0,0399417736715722
0,0386327112923827
0,0308671080401985
0,0349285994672163
0,0293853016705201
0,035611533180247
0,0292044178190077
-0,00083785355176429
0,0711556969627434
0,0433374675307994
0,0382274893090733
0,0277647882513175
0,0305503642938695
0,00232481159327876
0,0707484709357872
0,0674521983395025
0,0339711829751795
0,038425633951464
0,0185823080851881
0,0444373483603206
0,0402952218048101
0,0327388884668247
0,0354847343762393
0,034290079427688
0,0363459467836637
0,0326518659999349
0,0352044684948193
0,0369136890164699
0,0304362665232002
0,0373589893826947
0,0265712977128275
0,0317983814245937
0,0357588983816618
0,0401260740017254
0,0297949454074528
0,0423291348664155
0,0198798451351935
0,0339967954639543
0,0531018004993189
0,035208631480304
0,0365916088749852
0,0376565869335736
0,0381762375715319
0,0288615232991837
0,0358352023854067
0,0343855560394763
0,0322965266530556
0,00867456234667789
0,0638394216992996
0,0361295147687964
0,0475275687486652
0,0134537612708757
0,0499069204422507
0,0457119164913872
0,0336988410199989
0,034286683630297
0,0393829386252893
0,0264988564230194
0,0168499490630433
0,0583876359576739
0,0439750375018255
0,0242529211739598
0,0431023450826287
0,0468300034088037
0,0360496297202057
0,0369981641559703
-0,00751267123846631
0,0969582450151238
0,0415399644603035
0,00438095665142317
0,0972226739701617
0,052573535513053
0,0498747280899369
0,0342338968613362
-0,0336617875265962
0,127490713980793
0,0870865964779043
0,0395431155762993
0,0251128376274912
0,0583315172803536
0,0308526636013619
0,0475896600727843
0,0271805923946072
0,0420285862783366
0,0469482499915564
0,0385541585328474
0,0965681297789809
0,0158581910403085
0,0603997768000966
0,0675581655773832
0,0472837511110603
0,0419975843770252
0,0357881475266397
0,0180324389430698
0,0480196550179914
0,0564323564269037
0,0476883976832554
0,0439402629533696
0,0267993909478518
0,0658149441141521
0,0406854937210095
0,0397308052827718
0,0409000801033357
0,0540847729647834
0,0410276367484593
0,0455366120550884
0,0337454617552711
0,0549724119944239
0,0254499980686506
0,0258505345034701
0,0808866262663952
0,0538677471532291
0,0369490594206542
0,0759063931718781
0,0480832868753478
0,0468490256846422
0,0453403325510262
0,0482650150132324
0,0366723025597213
0,0463950969031703
0,0193858100376515
0,0666067174139877
0,053514228842719
0,0524926699005978
0,0447926415886509
0,043420121398137
0,0362923737381792
0,047835104215781
0,0382864999135291
0,0435104106268695
0,0478138037243628
0,0287673418722393
0,0418652048327915
0,0849710224647141
0,00921979189461658
0,0783794666896248
0,0802981625507035
0,0550408162927818
0,0498422443957422
0,0490237137936048
0,0519570015962439
0,0549915436734402
0,05851705101896
0,0461143640275245
0,0466663048914246
0,0649787839653633
0,0550881604963487
0,0470613271065784
0,0305705978954178
0,0738281313566344
0,104422416392513
0,0816119440869045
0,0650597504367263
0,0255582253166059
0,0735900105356044
0,0803367432012822
0,0823837784438345
0,100174851106287
0,0555316700268985
0,0750936994221318
0,0600953785948612
0,0763018744121664
0,0601978560911403
0,0807830264775337
0,072041660670206
0,0782656213231675
0,067375833562755
0,079662640858602
0,064303944902445
0,0745766638333525
0,10539383589933
0,0906543534774902
0,0787610781287757
0,0933272031783993
0,0587142575098753
0,104354106753551
0,0816965045817817
0,122745447925018
0,0989583594482268
0,100304718605789
0,133355582323818
0,0971811393971342
0,104583963768473
0,0901358539556655
0,0977783319103334
0,101769610986645
0,109129396268978
0,10077194111127
0,100782746957117
0,102786188508017
0,112302029185609
0,107763640145476
0,112121968849142
0,101304173593818
0,1238784684779
0,112794479163269
0,123752238825424
0,0972919807525218
0,117372892152383
0,142060208828935
0,161451715141734
0,136751492555692
0,130662784741487
0,133706081439508
0,123963434625646
0,142081645995382
0,135838803974167
0,134864444495868
0,124404410982013
0,17627403928384
0,143821982729784
0,157261426985217
0,162377059175493
0,137552115857173
0,163068030636979
0,152223771504746
0,159398648557362
0,180814411015833
0,166003750127901
0,142661940095432
0,172770371551083
0,173906426585408
0,152243530741987
0,187727548905944
0,160272556929578
0,183253683836593
0,168597544558575
0,179250136435733
0,170835229957197
0,188113085112312
0,181304791129518
0,183501269674335
0,193201182979086
0,195895840404634
0,178861953796524
0,209756832387188
0,201481737642588
0,206974147660889
0,215300584939073
0,199780771644423
0,208363561433892
0,198317199803584
0,228124363450449
0,226810795023613
0,221410040391042
0,254581492543892
0,213246214262009
0,225176137667839
0,214396818487813
0,232266952400722
0,215419640864401
0,249222678915191
0,238138636897346
0,231176553106041
0,241372046198426
0,256162549196367
0,251859480011043
0,256431001576297
0,245072894739358
0,261915942154101
0,253266629962269
0,263399251057492
0,26518050008508
0,257785096496279
0,27979221833125
0,309806321621941
0,286702065720514
0,299392648819832
0,263070054533717
0,296983655122175
0,288586504594842
0,300343251711866
0,285380630355174
0,303902496348503
0,295161279731457
0,322330065245802
0,305547621857333
0,318965091293499
0,307002228572038
0,332855736981375
0,317839658367845
0,320968001405669
0,31729503970612
0,350304021049091
0,332253942190875
0,342716429147469
0,329415580838765
0,366840571858511
0,33996292631111
0,361536025297195
0,35796521698919
0,355522625972282
0,348919034438826
0,375362196378311
0,372642463534961
0,379431192997957
0,366064331546517
0,3717579050892
0,368694277649655
0,390758638991739
0,385073129140672
0,382388470689819
0,386538230398206
0,400308887418768
0,394531843026577
0,415486607253983
0,41702335426616
0,444335891111469
0,407580379988602
0,436842102015096
0,415608148708748
0,422152445847543
0,418072293672938
0,450719755963708
0,438273299084843
0,456275319181134
0,439695235552033
0,448436280317685
0,426960657668246
0,465860675292298
0,442236736376821
0,483722432551777
0,459073190734741
0,468414676902215
0,475326067862714
0,505579599687589
0,479889917035927
0,487537226053243
0,489193915185824
0,504707116885401
0,48265712867572
0,506972705119305
0,498423828989721
0,50857502809396
0,508975712418008
0,515398666788861
0,501854020001359
0,522608499515402
0,514914215005722
0,55523329205896
0,522987615775587
0,549318946881708
0,530926263362826
0,565592934431199
0,540798290441087
0,555979035944638
0,54617372301308
0,577278355453354
0,547523638450462
0,587771695811945
0,58162743652548
0,569619967011776
0,549638711333058
0,588001099134701
0,578139535583937
0,606161869433282
0,606790466281095
0,608709341858338
0,578374064544457
0,61718369813087
0,60747714274385
0,622753913008953
0,606213434732355
0,612826594740382
0,599323550806999
0,633978615841716
0,611376644522525
0,640267007399544
0,623647337659784
0,658615194073721
0,611903702434534
0,640355710173812
0,614449019563003
0,664590779240407
0,642874306060129
0,681778516736689
0,659665530217436
0,683528909783565
0,650048910581598
0,6965790094882
0,668818942708285
0,677771045728348
0,677183308080425
0,720244358164856
0,705652732173555
0,700112037807535
0,655497505969034
0,718988763294844
0,674797243778617
0,717287792146376
0,720228028049867
0,713648930388395
0,711915004851124
0,740702528960715
0,705605748793474
0,753636355315078
0,736004567923399
0,732900429987133
0,703535978969384
0,757018577969117
0,735806185801366
0,801781989286685
0,721946019115901
0,76549144358866
0,732353440168413
0,769465979615085
0,769464776959182
0,779847314487084
0,733777321769442
0,780256837252718
0,744630080657255
0,790453158209529
0,791147456767605
0,804563436415684
0,774900959717848
0,780951771305898
0,807371856876441
0,843930557998162
0,805095648080694
0,819770855812405
0,854434049690773
0,860400834591299
0,789907169384138
0,850418107575687
0,787555723543252
0,831659743427702
0,835234871894706
0,854046521761884
0,844309257878448
0,915176390839312
0,798854755152465
0,827303299733107
0,850009103059431
0,851670585014866
0,81257237958216
0,869883868109507
0,853383758207011
0,946122836145276
0,87974375183844
0,888527672307766
0,848461711994901
0,904294454827264
0,885966517158628
0,926217119772354
0,845990023795282
0,875059147752917
0,869371790094122
0,944396879864789
0,896034974807029
0,891392017796222
0,870509648300773
0,923127687205101
0,894128756081568
0,889976084068202
0,869833940810335
0,952543085333579
0,913291294975075
0,947991749620614
0,93136668985478
0,973306799917409
0,93361159376074
0,993244981852739
0,88477872246119
0,939755582000693
0,928466884892206
0,958670874725802
0,909587778414623
0,99417026850565
0,927437731099854
0,944058503245228
0,927929595727403
0,962534778769384
0,949142591910394
0,996311734394622
0,91681833026421
0,906383813565505
0,919871265114626
0,994651736101397
0,943853913006458
0,969436907025433
0,959347527781514
0,981250221223531
0,962554556449175
0,976874722551603
0,995438664014247
1,04620110002907
0,930050917904468
1,0183374343172
0,97207112967816
1,02793574495872
1,02047869139302
1,02555056076391
0,972667557097779
1,01522415919314
0,972871669892778
1,05485279484491
0,977330606615746
0,997487625304469
0,965703450957001
1,01940455760504
1,00328833411108
1,03449544844794
0,986201597226794
1,00132856239888
0,980778391874492
1,02178920517467
1,02078587879627
0,999479748816859
0,953021154662983
1,03347570438502
0,991552086039574
1,01956336420037
0,998574204505142
1,05041730893167
0,994322500422122
1,04078984906727
0,96728371968106
1,00176584040203
0,975685752094567
1,06714182686417
1,01988760215227
1,0410987787497
1,03501313744784
1,021198166806
0,990842586170736
1,05419301561143
0,997780293180667
0,999185172036844
0,996647018652546
1,06222173158082
1,04737178095622
1,04381090450248
1,0444268666171
1,03187030299542
1,01147189342886
1,00679963838029
0,987193017278286
1,02320098042945
0,974642270867658
1,06870986805605
1,04504566309462
1,01706265369752
1,01221951821153
1,05514842794516
1,00353358962889
0,971731289547006
0,985941590356948
1,05672301384892
1,01877081222019
1,04036978669078
1,00052079457606
1,02551028766978
1,00575712866879
1,02221491408873
0,987835707154752
1,03944794629105
0,985358613241584
1,02533194924525
1,00676382499689
1,08838755262864
0,99087096246963
1,00925931851577
1,02853675730819
1,04330592191646
1,05064072428063
1,03839951661256
0,997589389525638
1,07000054561145
0,991941533805459
1,03018382952969
1,00995743753988
1,00382352923788
1,00395196453128
1,02906022476404
0,994910049656865
1,04975134502667
0,995407863796074
1,02619008777253
0,993286891866079
1,00990795885298
1,0131915444951
1,01636730345614
0,986760707198148
1,00839635250881
0,97388679663488
0,996891890608607
0,976587348090752
1,04745256893358
0,990022394113086
0,997313941150316
1,01216426540753
1,02590572046919
0,971770514272131
1,01991689593697
0,979592981257258
1,06027829101261
0,98228091923852
0,993127294979231
0,996809282428729
0,998225901507925
0,986461321966112
1,0338078205729
0,984945673466422
1,01780133786862
0,98094862211315
0,982922689581462
0,978445402524327
0,985823857795719
0,951393676915971
0,943491307368379
0,944939150976088
1,00742401938812
0,983169883648663
0,983529820642802
0,981694850760634
1,01270096614298
0,95289910300258
0,964917644597158
0,935540059924077
0,971536623108369
0,969945356536424
0,990106832122916
0,967705705249444
0,95928517365581
0,938768278371599
0,985908554105357
0,946462389030081
0,971377189620024
0,946122391598486
0,932337384912438
0,959005744718098
0,960228477318494
0,900906774691846
0,944910473781221
0,926093059100171
0,942701338261581
0,920947426769091
0,938053991903848
0,902048989204766
0,933582907811503
0,931218442548915
0,925111782223645
0,907892220415914
0,944525150743974
0,908540241732682
0,931061159997286
0,873230000230475
0,891012394769849
0,902133024918058
0,902600744465626
0,884471184518529
0,874382860626518
0,868866851830444
0,896425163232196
0,910093127389345
0,917809551527799
0,873013726445282
0,883379534845624
0,864636791090686
0,881101352166156
0,869140599192081
0,86430185985789
0,845718745458205
0,848785018440604
0,821900293528625
0,851416446684776
0,825513895822521
0,829861334213015
0,828712039241033
0,849595719950334
0,824294908927832
0,836704247819835
0,816924681336433
0,828051487438871
0,792508329052627
0,823694867883133
0,80200490495754
0,805268327498395
0,813627814712713
0,800592615425877
0,795670915139123
0,804617664183622
0,779176086674587
0,808977274330653
0,785231737071608
0,798436737229471
0,769593852410917
0,801129315064109
0,787479282394846
0,758561921097114
0,753234854674033
0,766040453365447
0,755533352203849
0,759909836068891
0,739756934187051
0,755349737948966
0,728869067209802
0,731738221677163
0,739611595250538
0,746900507942765
0,727756477422758
0,733475078364044
0,735966626269682
0,738749004498988
0,715298437795639
0,714015614290116
0,691554033765082
0,71395425676513
0,706264627938777
0,705457917103724
0,704871521662558
0,710924856688839
0,691473860147611
0,699485691137691
0,688101777673314
0,68551493359586
0,676538599840508
0,674343791410857
0,675704085828798
0,67301647599433
0,661475966048414
0,670439994375716
0,651992077997521
0,65898945956225
0,657308045434244
0,651938786193152
0,644576766385552
0,652110595645345
0,63734765415146
0,642652466342706
0,620684442260965
0,624108652653586
0,62535821312006
0,625673225568842
0,608723117343716
0,62037330947066
0,610678529984575
0,614860996434321
0,606247543425545
0,616855894695671
0,606582504870766
0,606519187323258
0,595843240167986
0,597332639507924
0,572626594992915
0,568617354115077
0,575750434865183
0,58965234993759
0,567849802459648
0,582849284432606
0,574652213694686
0,576361682445358
0,559860138074616
0,579488643602445
0,557996714208339
0,553235135927975
0,54986422449471
0,544835477192752
0,540010500254582
0,547548818654928
0,532011850602432
0,538737521007882
0,532772042119725
0,531933498620459
0,529942149451345
0,522780537125682
0,51605091213164
0,527244843357718
0,519752548783625
0,522438698524233
0,508246439174051
0,513186512029714
0,510338852552791
0,50853005327901
0,494286563053541
0,49946150938755
0,48947300551572
0,481631034809384
0,490010312573162
0,489895440905801
0,483052612894772
0,492402125020859
0,482168590499072
0,476523960658768
0,472652548011463
0,48757958166266
0,471453204956272
0,466450548467035
0,457351557152079
0,470416689244675
0,464078341618498
0,460697756736785
0,448980146497663
0,45777421198793
0,453670147675103
0,462694578926416
0,445645696379895
0,449869476383632
0,434251391228649
0,440438898955558
0,438285364869976
0,430805416281482
0,426668601905676
0,434127424759765
0,426338663695089
0,435074506318562
0,430686476512076
0,429133590023486
0,418947271976155
0,425313726103999
0,422702772009471
0,420581947867623
0,410109174472954
0,413851004196718
0,407302457962581
0,412208813412995
0,401653559152437
0,406298933951131
0,401749659239303
0,401582396909258
0,395838481056033
0,396353754764328
0,390539686920095
0,388417686063059
0,385128645675173
0,390289131439853
0,379215690204941
0,384034114442905
0,383333013316979
0,383728804491733
0,378463022471247
0,384993511467956
0,371056794765505
0,377722558042875
0,368283376044269
0,372201869584403
0,373147914276198
0,370409673352297
0,366259789023587
0,366600818577883
0,356388587001123
0,366850120176676
0,354486125256715
0,362050824117021
0,360168347497185
0,357780976677949
0,356537783276822
0,355784414357256
0,345234385053784
0,348761213508176
0,343329667637455
0,344699961080045
0,344166856566744
0,34709022066353
0,341903941356444
0,340961546923486
0,337538958377887
0,341333171098607
0,333570609089249
0,34010238034462
0,335525370728085
0,334684507797852
0,336333298008004
0,338268178321571
0,330443991734622
0,332909288282975
0,328400452218102
0,331462590989283
0,331003629028982
0,3296552926794
0,327353846218397
0,329139062904819
0,326657430919603
0,330261434492194
0,321406019703305
0,327683443610793
0,323004402451723
0,326928429029022
0,323731482241858
0,325102108934525
0,325809721745758
0,329903960840002
0,323313966973144
0,326153280542244
0,324691643176985
0,329030763602805
0,322283529812458
0,324556524084805
0,32174606622017
0,325069517807561
0,327824383617886
0,330384295102626
0,326619553635652
0,330472399237084
0,327542500941494
0,330578951774283
0,329866286897204
0,337043312438684
0,332457706972236
0,333709189075105
0,336149151918524
0,340772135871287
0,329599712655492
0,333833632256787
0,337336790128768
0,336387792925257
0,333459207670715
0,34560880637001
0,34220321046911
0,342288155371359
0,343888079197575
0,345674153811961
0,342177846647626
0,348429652808677
0,355383313305833
0,354975433241552
0,349548997380886
0,358465634697785
0,354986053777464
0,356316860568875
0,358187780986825
0,368144991165642
0,36668008781973
0,363750608003658
0,366238166378508
0,377126908642037
0,375878998282673
0,381555089314838
0,376331243779838
0,380116176596097
0,384513386201941
0,390630972970551
0,391766667095667
0,39298228157608
0,395325921722127
0,405194952134613
0,407070383710019
0,40754916973391
0,407069267321016
0,422869207565491
0,41899218611252
0,425823443274213
0,421497290466936
0,424823511879538
0,425242932239787
0,431428794534815
0,424851283083098
0,430895658831512
0,433114307434635
0,433982724552034
0,433140702079872
0,447417119546575
0,440637422613951
0,438821145225126
0,441248784946315
0,436026208804717
0,430462979989918
0,438937032359585
0,436305980133351
0,441971443085163
0,443786725466586
0,437310223325005
0,425318824319347
0,428569803281746
0,430622753746142
0,433722503201259
0,430037310603873
0,431149735694565
0,430294517828645
0,4343634287094
0,417923104689991
0,423472152082686
0,427651142806605
0,432131412604955
0,428286625178049
0,431637516365885
0,426827602464429
0,423440586091375
0,422151110887158
0,425440295929458
0,420762740257088
0,421883364408243
0,415609814538343
0,429498066990771
0,420422421356004
0,417673481334473
0,41553018448965
0,420140192537838
0,423411666224173
0,426871102264827
0,415378645632884
0,423607144812388
0,42391670751264
0,421740099182226
0,418872980553602
0,41979357832164
0,417929372606008
0,42190334259932
0,415232490662088
0,416905553469264
0,406525218458503
0,411751676886568
0,414480173954803
0,413105811647819
0,40397359467236
0,409708386807457
0,404002151623984
0,406030477364687
0,400095365414574
0,407106295981993
0,392392436576504
0,390102719703729
0,391325567787793
0,388457667277415
0,386096139385417
0,38203046327831
0,383976093997623
0,38897881892009
0,377305729417885
0,380169989229929
0,37431309439124
0,376648514537721
0,368800993792332
0,367797955507743
0,359660278252916
0,367885562667596
0,361481155007319
0,358034597580511
0,353228888094108
0,345862348436106
0,352786891726544
0,357118753587375
0,344535496920799
0,344663915996227
0,345157448130352
0,34688271233433
0,335900093057253
0,334029895131
0,331695454575178
0,332884140011134
0,329869139080281
0,33069176168207
0,324957067586308
0,324566007457585
0,321953144899018
0,326449722332017
0,318467625822902
0,323245205436647
0,321802833064325
0,324332728548433
0,319432439694567
0,321095494861147
0,31751361302155
0,315180039080496
0,310890578887889
0,311681574450213
0,310649335215817
0,303314162747316
0,301928207235884
0,30680648330776
0,303968191737266
0,30279763825489
0,301325344028456
0,304475668360641
0,295065633462388
0,299684277821341
0,297525078338358
0,296509360326523
0,291105805887569
0,296285227105298
0,28820672835342
0,287134017510937
0,289530185403068
0,288015810611748
0,2872324581706
0,28462788291111
0,284379460978323
0,287677033632699
0,285412625071243
0,285175431228359
0,280724035253234
0,280339337920739
0,276811893005068
0,277323683797547
0,273615954563198
0,276250409553424
0,269592408720161
0,273695104350601
0,275687861958506
0,270955693786782
0,270373352694727
0,271298133838543
0,267282266016265
0,271458011865647
0,26613642153624
0,266798683235058
0,26357729661564
0,266856589427101
0,266962826081541
0,265491985530579
0,263249859845124
0,261957611611513
0,259201581866085
0,265959642322578
0,262399351959946
0,262109888089437
0,262321737522858
0,262978148047467
0,257563920516432
0,254968352283385
0,25525538992781
0,256152711021664
0,25331764103331
0,253558410986929
0,251173347918166
0,255279181104218
0,251938415928836
0,25173983952547
0,255244456378336
0,254124724411264
0,249212156702834
0,255337346729794
0,253799931287818
0,249662933120269
0,247736598215533
0,25112115782892
0,249391430910685
0,251177115479525
0,247340216657701
0,244747465151721
0,239900089371234
0,243856017284563
0,243642961479496
0,242350795335864
0,245251037387918
0,246140960110115
0,241070639163241
0,244345530880844
0,240691748989675
0,241069336449885
0,240571714194101
0,24183714320344
0,240289730580839
0,239380336375837
0,237544502987871
0,238438651502158
0,23656389220482
0,242635903484392
0,23738374614403
0,234891596480532
0,232008385974262
0,233963751868977
0,23594459273589
0,23640514923612
0,233913253124838
0,233790116580463
0,232304321381001
0,238764588623967
0,231600758202137
0,231842831517832
0,232500602934491
0,229419087847118
0,229193956418293
0,232532918528687
0,231630063680143
0,229498194200753
0,234166096086784
0,236955592432121
0,228906909552471
0,225906267373141
0,226846346571323
0,23211595924321
0,228849445691986
0,231322663594838
0,2290205779127
0,229850666591841
0,225368898236885
0,225923627354388
0,226969429199059
0,228761449516714
0,223627285875763
0,225262135763192
0,225848099103274
0,228223785395624
0,220197068564933
0,224296390148075
0,225605515404064
0,222958045087476
0,224274262264712
0,221029904878706
0,21907020676806
0,221677318280639
0,221557796580064
0,223045776759811
0,217905899659219
0,221625486940423
0,219846630592628
0,218985131217829
0,216716669078282
0,217772939678743
0,214386959116331
0,217444561721675
0,215890500632894
0,213743987538332
0,213212085712237
0,212893865824521
0,21231280823495
0,215410118966429
0,210623868652084
0,211244031603534
0,212083874100079
0,212751816965758
0,205209029713209
0,206163392966232
0,213490863858396
0,213661971678327
0,209777335776824
0,212136208566576
0,210365930969486
0,208596530789947
0,205013922895835
0,2069983145807
0,203583890192659
0,20701591972492
0,206662076802394
0,205199406850659
0,202306863171243
0,204844263319427
0,204638445488766
0,200574870320993
0,201260081630161
0,20247799515382
0,200199833445484
0,202330000325865
0,202467625013822
0,202471157288422
0,195947456026177
0,199340774159209
0,199125977037543
0,196926614154513
0,197558466621536
0,19799586285298
0,197063270622954
0,197011938009828
0,196887174394559
0,193574407277006
0,19220471225341
0,195721399222233
0,189536568958853
0,193118536937873
0,195221910265445
0,191243455648433
0,188462407393154
0,189809042273587
0,18645389999019
0,187426124133521
0,185288875171242
0,183429831886307
0,184240344830256
0,184004215190118
0,184472365462009
0,186763370964326
0,182081390857149
0,179504984068946
0,179965104981211
0,181431698619204
0,176903111846885
0,178044629171068
0,177511502701541
0,177694695044296
0,177841886123812
0,176147924816209
0,172252555538078
0,174355628031105
0,17242846556854
0,171651693067574
0,171954167043496
0,175490471476946
0,17232377045249
0,170351246159108
0,168314633645106
0,168008449751668
0,167433878976742
0,170923574356654
0,169205225431395
0,167767389370711
0,165910367635279
0,165581625264428
0,163770101100973
0,16697727599039
0,163539240356864
0,166808763189119
0,162629204712477
0,16061355472708
0,165126676533536
0,163946687089882
0,161019263733287
0,162552651373899
0,160545703199484
0,162025488338079
0,162032042613024
0,15949265877848
0,159704920831067
0,16386976109208
0,157327348397733
0,158372550890844
0,160717098413008
0,155462614161954
0,156474714856381
0,159138722629034
0,154962540219451
0,155960007227149
0,153832162526972
0,154258880494158
0,154123243851911
0,154500721306752
0,153991132899774
0,152793918081464
0,153708755080123
0,155280236347234
0,152422249734269
0,150639582310725
0,150051040983462
0,151903457095205
0,150157255797381
0,146852689542746
0,144693223961395
0,14994880246351
0,153058340176092
0,147656300799092
0,145954475814723
0,144980674831307
0,143200627324171
0,148966030954042
0,147516933711796
0,144766368965859
0,145229156158684
0,14220018864043
0,14027100706613
0,144218831490397
0,143406411519185
0,144178365480116
0,143135378529381
0,143546205497472
0,142707349998692
0,144631287106811
0,144953388838443
0,145042275699715
0,144044922384951
0,144252445654769
0,140194915342783
0,141013906223181
0,142649185659166
0,14197403485723
0,143070370168328
0,141361052904148
0,138698971585201
0,140537777023105
0,14100803107806
0,140349169394024
0,141954798851229
0,142501182133567
0,138996561979769
0,139605020063818
0,140138369484987
0,138704384045535
0,136735257012409
0,137724112324516
0,138072700952496
0,137122188608696
0,136068112464879
0,138039810525617
0,136080991332422
0,135734645330849
0,137090631025201
0,136329082738159
0,136669771827975
0,136116617726407
0,132509185687464
0,132076575062569
0,13046955603988
0,130432015323211
0,129963430643531
0,129303338952336
0,134689317908841
0,131540295904901
0,128270357501217
0,12991736144176
0,127933844894924
0,129880351240218
0,129254175420651
0,127148913420034
0,130342208605907
0,130878085228528
0,126402925670685
0,12854591553475
0,127463293214349
0,12847947649605
0,127401850045189
0,125793242509856
0,126272113751397
0,125592839406104
0,127461693750788
0,127786434398438
0,125093115735021
0,122227660206039
0,126007778054885
0,12741745408664
0,12660072689711
0,126773425784452
0,12316628858825
0,122646270701631
0,124500564836696
0,126237142612359
0,122685948956795
0,124647474837384
0,125159921767634
0,123065383876061
0,122936397948475
0,121433407021011
0,122806175571441
0,122291536085183
0,122259735717562
0,123125082269803
0,120321256095719
0,121414864549617
0,120888530847386
0,118736836415007
0,119065278734451
0,120682559968944
0,1206912435325
0,120694267645886
0,117675699648193
0,1167398341998
0,118546059987119
0,116789404156895
0,115994692076227
0,117123393979489
0,11478946418095
0,117595840410226
0,114192047545406
0,110581152136644
0,115292893561186
0,113715506025713
0,112255456966653
0,11201642306222
0,112605234023795
0,114646230516178
0,110056868689124
0,110455353588842
0,110131677574869
0,109692508256543
0,111662923737417
0,109734937526187
0,110338779632601
0,108873764662271
0,10756967067062
0,108727436134
0,108819503670606
0,108934331146125
0,108438898538895
0,107024787708275
0,109006609620912
0,106381720060529
0,104723278443173
0,105919779694747
0,10278156084355
0,103698345533091
0,104449187124413
0,102127582563421
0,105466490993968
0,10330193064133
0,104006573288389
0,105135517428848
0,102964787729933
0,105901635843034
0,101882724713701
0,0993344600569585
0,0985673773930869
0,0999427861291246
0,103320902458248
0,100993716574903
0,0994588678415743
0,100576156856888
0,0987352156515362
0,0983179681911301
0,0971427705040401
0,096413613786083
0,0991552849793333
0,09788669961882
0,0970411611759525
0,0974566605928995
0,0978272157412228
0,0950423548001575
0,0954071480181082
0,0961550315377464
0,0958208304573124
0,0937663498006002
0,0932068151503202
0,0915488769904047
0,0912603318922729
0,0913739427161494
0,0921205748131733
0,0898054114318103
0,0923482547337652
0,0891966790359345
0,089905175658007
0,0906971924752155
0,0883649746106477
0,0885143366212712
0,0886020444432749
0,0883865546904249
0,0870192627871823
0,087246000020458
0,0901660634946834
0,0859956872449685
0,0862266308821502
0,087226086097452
0,0868956559730728
0,0858529850503493
0,0867213902598304
0,0842665537358064
0,0876576586161228
0,0843887542362693
0,0832212238692311
0,0848879184108149
0,0831926902928952
0,0835848871606757
0,0859693018200875
0,0824967246571431
0,0842523980879015
0,0836749411396189
0,0850807671730417
0,0834308131889045
0,0843378722703423
0,0836907376659896
0,0836586239025419
0,0827086671178697
0,0855794661883993
0,0847162009416927
0,0860293553737796
0,0815801498360134
0,0795405483815342
0,0793359282481296
0,0827685064451148
0,0830105900446465
0,084529730700569
0,0835827966718246
0,084876765860283
0,081820171187559
0,0782344586728149
0,0730715314464053
0,073797194556051
0,0740492012391602
0,0850021842127389
0,0826839046295433
0,0757248680432386
0,070170936676793
0,0844116698661631
0,0791032510125179
0,0792377448191134
0,0790267748414369
0,0800494017079309
0,0749482456752988
0,0796668212484311
0,0740083659293464
0,0784587144997577
0,0717136993793811
0,0796100001304243
0,0767250812626723
0,0795858137854688
0,0786686193599217
0,082662791837216
0,0728146742408807
0,0799997337302484
0,0723131497011649
0,0754846776307926
0,0704867475129799
0,0793329026758336
0,0705346665560808
0,0772251234614231
0,0705731105224362
0,0826583362583766
0,0712093368140596
0,0787303703024578
0,0699855125489235
0,0811235451707414
0,0653996492593509
0,0755389003061475
0,0596806776831974
0,0751725174684405
0,0671788307734587
0,0854512391607142
0,0724261621841944
0,0767608748082919
0,0566611621758781
0,0734386222886105
0,0759526865783925
0,0829944576223275
0,0674690094629076
0,0708331313064387
0,0751459378248192
0,0824464311169298
0,076610294612591
0,0681532840826473
0,0821946692069641
0,0707451344292929
0,079497432273399
0,0634123525149249
0,0861049171703972
0,0650890593366634
0,081544931058305
0,0665702815633599
0,0828600303918956
0,0624009350919639
0,0825066314733079
0,066046548349839
0,0777599318606737
0,0717744326625819
0,0776122812159744
0,0719879281604386
0,0726979134887676
0,0705923635094416
0,0751788466918337
0,0689309205438743
0,0716266046850119
0,0699126810370195
0,0731701318963818
0,0681278462103558
0,0734999718224662
0,0675262930151871
0,0736407501429174
0,0674481727738624
0,0720803636008085
0,069994160062459
0,0728573761267857
0,0698611436515299
0,0713273783329171
0,0696062980443208
0,07175273943581
0,0675356124911417
0,071829672918528
0,0691625439105289
0,0724903341127128
0,0666490295022971
0,0710172400792663
0,0678591103863729
0,0705558044874352
0,0687123220461552
0,0714190140469097
0,0690183828492722
0,0722085896089534
0,0691835153946838
0,0722696713436741
0,0695337804387009
0,0730369731833918
0,0712998664266537
0,0704711038793905
0,0688329744862399
0,0701757596775098
0,070914698931195
0,0739755451380432
0,0697714475395143
0,0731804266286387
0,0709336022206788
0,0729265092795224
0,069384386593973
0,0725682534690497
0,06990090184179
0,072653219862382
0,0704858673941144
0,0717896523735677
0,0737881451654194
0,0734552064768287
0,0690916482231682
0,0748085917730395
0,0678706631237394
0,0702014138854905
0,0701968441731954
0,0733000627917543
0,0698150832970728
0,0701265967401779
0,0696811882419898
0,0710001146116781
0,0673100911695255
0,0716421765850381
0,0694408148645222
0,0712097555212674
0,0703579386053958
0,0704498780615587
0,0728748632375072
0,0739687622864447
0,0688888353037593
0,070749992849434
0,0691729865713206
0,0702726638269584
0,0702334353661078
0,0707648037990662
0,0706596296082111
0,0697676105209044
0,0692739446850204
0,0736061812430887
0,0694072418969779
0,0719573481839347
0,0691263110325085
0,0718949041673791
0,0710605187601468
0,0702657054275694
0,0713127778515197
0,0730553432858665
0,0712814725133935
0,0720265067831959
0,0708768384989323
0,0732450323070472
0,0714163432863882
0,072662502447273
0,0735083318891687
0,0722570875787182
0,0718877399807521
0,0742379969487266
0,0712178720388946
0,0724222643827085
0,0718909947757646
0,0744171372611809
0,0712288374962914
0,0738022611143982
0,072627781900723
0,0734846513634985
0,073019611427262
0,0743062920696187
0,0722504306722342
0,0754265818161521
0,0722041520214183
0,0735740898395678
0,0747418334516789
0,0732762818271194
0,0747796305009597
0,077226218894171
0,0748212670652393
0,0751643621512667
0,0714208208677919
0,0753209606059947
0,0756252707022914
0,0750000563724013
0,0768721601965229
0,0762864464728295
0,0714145759760424
0,0739951302034476
0,0734802491012597
0,0750674598540967
0,0751988511964378
0,0744974006674723
0,0743309265432913
0,0767585636143987
0,0734264811215404
0,0748248308969528
0,0743646578908542
0,0747931327344878
0,0731804231370067
0,0758951592287531
0,0751387549287983
0,0776478203481169
0,0780294602945199
0,0775026503839835
0,076174539724841
0,0777256499726766
0,0746896907584898
0,0771469549924174
0,0776955020811203
0,0769512494444603
0,0768746236103516
0,0783043422074523
0,0756360509016932
0,0790125644393497
0,0773928572826725
0,0789173465588196
0,0778546693107371
0,077903479944242
0,0791709548871464
0,0793560311974319
0,0788699111927277
0,0795726647822933
0,0760360143151944
0,0777716588327772
0,0773454184423622
0,0805044546455556
0,0794162358415819
0,0764917973878002
0,0780947722726897
0,0800439191474528
0,0781554715792323
0,0813380685397343
0,0789508608574458
0,0789010378072272
0,0786031108239302
0,0787135491778841
0,0770614552500615
0,0800101829530103
0,0770052474815103
0,0763313288948048
0,0763999232237118
0,0784180170106513
0,0780148999343075
0,0771810874127075
0,0768610332384677
0,0763419839398168
0,0751045379508835
0,0767100895569405
0,0752924938022661
0,0773824469937321
0,0769318271548956
0,0757086943479443
0,0741476358389048
0,075951761257557
0,0743477217906614
0,0750436144782569
0,0756029955840726
0,0755002921369541
0,0733936642072976
0,0761163577815858
0,0753826208225082
0,0747956865131062
0,0734873182248968
0,0729789261447875
0,0740144429231473
0,0747138543248056
0,0733006748627807
0,0760469919767123
0,0736091575861011
0,0726850448939314
0,0737031530975309
0,0727685911549452
0,07068928078669
0,0709542977200566
0,0725617792836336
0,0754854086000759
0,072600935623714
0,0740157424200344
0,0711730517173039
0,0744305286455994
0,0744809442993839
0,0731454850726602
0,0710980952066622
0,0732171362932313
0,0731017677394853
0,0729629398618893
0,0716475737325693
0,0733584191294259
0,0729121869194278
0,071008176607066
0,0711484904211963
0,0720289369035362
0,0722589777812791
0,0738453063987801
0,0703325080137924
0,0717077980246802
0,069459190005266
0,0715570882209396
0,0709227558936096
0,0725385379481581
0,0703915937897992
0,0723833325055639
0,0707272214635636
0,07371375638782
0,0708673353540728
0,0695513157037348
0,0709178051898359
0,0719636352627176
0,0705690093785275
0,0719113554548834
0,069748785755983
0,0716537868516543
0,0679526088727819
0,0709936235658578
0,0713699763314963
0,0698644501655449
0,0692905266696899
0,0703185906491502
0,0689604235453065
0,0710261253929484
0,0687030065424737
0,0712047707608791
0,068505370530654
0,0685452040958244
0,0695627009903698
0,0686934686361232
0,0684880637374006
0,0676312869936307
0,0648961103111164
0,0705336628387972
0,0698328400365213
0,0688395648494802
0,0677802870375027
0,0686292353844931
0,0699147911761234
0,0680053414366491
0,0666323717853252
0,0679259366889855
0,0673281338236802
0,0708085812386025
0,068863163929956
0,0672559939615866
0,0664921922248779
0,0692200443238251
0,0676037451073537
0,0685223835728991
0,0640541079962142
0,068230204522383
0,0662957934144637
0,0649087925925748
0,0649574855640695
0,0650454987717475
0,0638148394233778
0,0657895461769891
0,064462624077433
0,0646657687234835
0,0623273738816343
0,0636352996366654
0,0644754451321725
0,064417137288437
0,0633939358963158
0,06477007536857
0,062235425138558
0,0642799413568807
0,0624598886796946
0,0638419469206718
0,0605070034398628
0,0612093753229773
0,0616041585507987
0,06315457051169
0,060245462157472
0,0619804373633056
0,0595043595542505
0,0602003356912215
0,0581493723276077
0,0593532161420991
0,0585508096414813
0,0588351109371534
0,0595304566151228
0,0584743146806081
0,0590126411812144
0,0589184653899828
0,0556716118231244
0,0561199072399341
0,0586516399265008
0,0558409254582544
0,0550588251379035
0,05649638029391
0,0550733307921852
0,0570137613276622
0,0541599050537483
0,0559385275932244
0,0562488886329079
0,0553620004702595
0,0573869916724133
0,0543176619376621
0,057089294021597
0,0615987246714734
0,0585869333527417
0,0532742941206621
0,0578441521400705
0,0560762384235792
0,0573843413095889
0,0540192264555587
0,0566589387489715
0,0548888096944781
0,0545687180057206
0,0558885842459254
0,0549858592340123
0,0536499587145801
0,0545425391430633
0,0527983376270851
0,0564642897382034
0,0564379700711495
0,0547060322796129
0,0552303917052316
0,0526401324911875
0,0543308755395947
0,055467863813362
0,0516921468613412
0,0560944011200116
0,0536503151931801
0,0528972723482976
0,0538638981330246
0,0567795075255738
0,0557136873061039
0,0521499411370173
0,0531499815017823
0,0530862940802537
0,0551369595731488
0,0547975186941228
0,0512740112690131
0,0529784323754196
0,0530722652470709
0,0525321141509325
0,0536199605968811
0,050547530451422
0,0547993723164203
0,0525077788014356
0,0516029040274331
0,0527949655260623
0,051702314481442
0,0512211366031272
0,0542750398074676
0,0493831663838176
0,0522923112483932
0,0531139582371761
0,0541432367442822
0,0468651922381986
0,0570278945219842
0,0554279131541934
0,0572289174706517
0,049313754677128
0,0530449320849259
0,0501711502275637
0,0523071135461349
0,0485581389017111
0,0516061864471361
0,0495479300534764
0,0517148557501774
0,0515487991635416
0,0523952697207007
0,0499200412217895
0,0520511478501725
0,0514914053285647
0,0512644588402839
0,049491980162264
0,0515205125006644
0,0484916211748576
0,0512817763427839
0,0482104715148529
0,0574188468632367
0,0551602349617011
0,0543842251690383
0,0487594728793457
0,05090385201249
0,0549157311531301
0,0593226241597444
0,0514605491684139
0,0506257819094124
0,0521566775308225
0,0461373739159855
0,0497645057464716
0,0471463942833103
0,055273546686895
0,0497255608007508
0,0524007269622906
0,0508177643248274
0,0507074238326078
0,0491815741016396
0,0492476047804879
0,0479217208043882
0,0490253893538639
0,0475201359424507
0,0492321701129614
0,0482333486011737
0,0481621658303248
0,0490520355408762
0,0486310759390679
0,047162139774084
0,0499992447331057
0,0488238678597706
0,0499097318020456
0,0476006194934452
0,0491963654657878
0,0433200221378893
0,0559033378121956
0,0515760467382065
0,0560109951489308
0,0450585774168241
0,0505573156576666
0,0466427294830581
0,0482906645206382
0,0476908430154945
0,0483776340536466
0,0483522003257713
0,0505337259667029
0,0486473352716919
0,0500588299788845
0,0478347824601978
0,0483052695710088
0,0494182253816806
0,0460813612237428
0,0503069025053216
0,0486849801277166
0,0487510763772112
0,0464530498385017
0,0455563196406702
0,0547584109388398
0,0568078467917959
0,0551001419255955
0,0527921893860489
0,0539501425205655
0,0477720835585426
0,0504744923055306
0,0436094866219211
0,0493518314134755
0,0466931146004395
0,0505659859299055
0,0439885294611064
0,0497425027175135
0,0465995850364283
0,050727381523675
0,0449504504959722
0,0514879512060791
0,0436188465362917
0,0521586098134931
0,0449399004307106
0,0513759180145893
0,0457644457522233
0,0490782439844899
0,0432919298550898
0,0570547220630278
0,0451071453194139
0,0465637578745255
0,0552411793732177
0,0575901255514438
0,0579112608294075
0,0443518315707472
0,0529461748408655
0,0462559629123187
0,0480026479198025
0,0477058932653801
0,050627321045961
0,0466326318496905
0,04877016142115
0,0452589123058131
0,0521524044877043
0,0463239884060471
0,0418843227227678
0,052150730433856
0,0585085020911565
0,0594713068897727
0,0521588632708845
0,0407621566988534
0,0554538328018064
0,0559923637055921
0,0592560502478958
0,046365886343129
0,0518442603852874
0,0501634643725338
0,0502073066536379
0,0498338090756127
0,051446119046956
0,0516399177220607
0,048400216762278
0,0500825974598163
0,0478451546910391
0,051953132826508
0,0487686523736884
0,0489770486661255
0,0526384690119471
0,0529779381965293
0,0535509952703037
0,0483104528623217
0,0525808269734547
0,0527697406218177
0,0498060037161508
0,0514808853757271
0,0458118278790287
0,0562986048883797
0,0535755790768726
0,0550628305044661
0,0571043194716044
0,0586308828724109
0,0536659367184338
0,051280282912869
0,0572564783459129
0,056318872172902
0,0460931843266362
0,0591290376910536
0,0541007832308317
0,0769122692800895
0,051110552078007
0,0664472616109117
0,0436740898751298
0,0614824489457763
0,0444383084931453
0,056664584536771
0,0525863506012113
0,0626662209830476
0,0512367734375355
0,0528225081793515
0,0551570845838986
0,0599288747853599
0,0620482414479067
0,0556845138381576
0,0565349821389125
0,0517383011168277
0,0674042315747981
0,0549893348208344
0,0582388640360733
0,061447133846072
0,0677597896798779
0,0726209511921895
0,0590938105698402
0,0637193837192652
0,060110373600992
0,070266701316661
0,0611264712229657
0,062091976330528
0,0642932509264851
0,0553402221213642
0,0623122073836417
0,0736571583411691
0,0695319936166986
0,0647374584561926
0,0592833108667247
0,0654958715944551
0,070037367760041
0,0788635530077847
0,0634844369109125
0,0712451128508298
0,0602116090503643
0,0640287432488464
0,0798962037104219
0,0774479831298436
0,079521181860438
0,0724248164834904
0,0900177640558303
0,0728900929507804
0,0864471342120398
0,0699460179425518
0,086938322471467
0,0816982142384443
0,0877515004979862
0,067577615544189
0,0903713545702486
0,084069230625029
0,0993134625660423
0,0834885148739831
0,090013723940349
0,0733797972324292
0,100174474202205
0,114306693347928
0,119552278325345
0,0970121285582002
0,103631877522627
0,103466358653589
0,11275571564222
0,101332305504604
0,104977280351335
0,106334511952381
0,106968272505653
0,111009200472791
0,114044076400079
0,114316252192245
0,119848195054943
0,113225784715079
0,120513562144452
0,116340525940803
0,170193127833775
0,126015247745726
0,138923721071674
0,122292665038508
0,144671497476296
0,134457127069207
0,130855737376751
0,130457786798058
0,13431173009408
0,134118277265637
0,130402648632682
0,134024886108017
0,139984121473881
0,133766674824128
0,162313995389953
0,138695501910005
0,152720688049134
0,111508598674799
0,161700200582952
0,152934305636693
0,181833226269814
0,146074725518698
0,136814206101006
0,160083536158952
0,173166009015836
0,165904930430821
0,146273653835073
0,151882169894679
0,146103745984073
0,149839866289242
0,153303912640055
0,160511566255978
0,167053369314437
0,158836964886839
0,156459367772096
0,157814078954306
0,192684541367423
0,218795769573645
0,180983274201951
0,178856286255915
0,18001184919531
0,186533736207914
0,182236964608845
0,187733284033564
0,174062815556633
0,204602442201336
0,194924593931538
0,222617348749671
0,177919370141316
0,220775987606909
0,194453904393006
0,218118970489943
0,21545616861169
0,232258319564026
0,218935092713284
0,215021348711412
0,228061610415281
0,215162900907567
0,235072307671884
0,233918893475524
0,245608482233143
0,235334600250602
0,236583647492159
0,240271971250439
0,23333540499381
0,252881507415277
0,243726206563706
0,250557549302579
0,233918008553156
0,287563777849437
0,349186551411065
0,280464269264222
0,265814127783335
0,244412191594408
0,257866239618527
0,254042917193279
0,280906558463075
0,281491970912971
0,280491069064734
0,268649355648085
0,251500082039126
0,264951741827114
0,251428665227763
0,268475745131224
0,247726261119125
0,265582122994167
0,258988631725292
0,257583726216568
0,287330829008087
0,291285906561593
0,273443885143533
0,246265367307006
0,26326185340774
0,245115623362314
0,258705942547365
0,235660591659682
0,263587397677116
0,244740267764831
0,258926135723132
0,232093254423911
0,240426302181341
0,241801261022845
0,252236771387472
0,24217775389981
0,223495383999611
0,230672198365151
0,225159211699417
0,208682927752177
0,231925934880221
0,232558093462345
0,234933985742488
0,202613014091044
0,21667409372373
0,199669129796664
0,207232708101704
0,196833688324826
0,21382606909516
0,201608804329563
0,205702170696496
0,197138183813285
0,199783255650833
0,189113179722962
0,202843277025395
0,198135614251501
0,202330070794589
0,196771963161976
0,198677730276639
0,1941906986434
0,190334622357983
0,193106125754958
0,196353112648612
0,190596758534122
0,196378329563676
0,190033148458708
0,194697528146426
0,19484483734853
0,191090426110797
0,191071473663597
0,194702619806401
0,190978742045815
0,195005732258771
0,190265208050293
0,191372435813071
0,194709679230135
0,188665143372611
0,193729675823105
0,192508575474953
0,189828038644323
0,186993901558922
0,195545104252677
0,177939665558449
0,18713858919956
0,212029400658156
0,210269851098073
0,197746354155453
0,178681383671385
0,19878257371675
0,175254514247036
0,191268938716833
0,189670649189555
0,210620753703825
0,191021521841532
0,183960310979589
0,17931810597366
0,196471746893567
0,184240991481125
0,194082760297973
0,167547360318114
0,181916678369207
0,17981018585423
0,208922507617071
0,249533566386377
0,22034227757695
0,208744224129921
0,167861687583857
0,200114130964396
0,183912536522407
0,197134237967246
0,158752808213467
0,177351049196779
0,174430127648717
0,177667642825121
0,176785431885771
0,162593654715163
0,165080037240061
0,168208640437563
0,17579291325737
0,167720779814979
0,18114787115549
0,175628384824044
0,175885147324737
0,158867325933576
0,217534538902001
0,172585580736991
0,163029609284109
0,156939994858137
0,148347346979199
0,169782798411103
0,156596856710149
0,169977841326599
0,158766170088925
0,148728316729424
0,153741368957116
0,143408788453777
0,172446852487948
0,142723301727969
0,167432038481639
0,138024244899137
0,164976454384498
0,135246939224291
0,164110704728546
0,157233182040766
0,180557746833677
0,154461889561741
0,139342038555664
0,165245180640675
0,155431004000604
0,164505527032204
0,151422666376643
0,144497025815005
0,156050326403376
0,152117681852129
0,153512195074448
0,151298950300858
0,153290974313804
0,166302589199693
0,153541428512672
0,188090606526006
0,181504423531834
0,1597869671569
0,152210356804225
0,142817868768409
0,161153506968979
0,143585321804124
0,151598447334442
0,159027724384818
0,156198263060429
0,169979469638766
0,160269285386038
0,175811251582276
0,158587040435296
0,167187513445893
0,164013833473965
0,165403118689308
0,186009103181815
0,197954390927337
0,18060543629244
0,186445050495237
0,178502105869388
0,200944264284977
0,179944258993443
0,194844055055307
0,184430700122338
0,200514039835848
0,200152333707397
0,208787031621889
0,203153802779333
0,212366982273124
0,204827248532903
0,248214033305178
0,218654342268977
0,244411084608229
0,214415809840097
0,272481471525652
0,261542583101687
0,262433348475288
0,257654521019601
0,253466241383349
0,266018956923699
0,268060616869788
0,262680376379896
0,287814134355766
0,289724744770321
0,303174323053325
0,2848207452947
0,305395527961211
0,284583619675997
0,308331165280818
0,295406144101766
0,324994499129154
0,342284475773584
0,333756355659829
0,338366213041881
0,309209621292438
0,319424494364502
0,317733432301781
0,325736775347695
0,32432537974053
0,320013282579629
0,33388900091446
0,338922114372243
0,334755685127659
0,321788776585779
0,326625453539786
0,330455390174434
0,332912512714214
0,332068156845679
0,332475244818827
0,335971083828411
0,341857160900298
0,326862339138528
0,348176261020093
0,360825896890299
0,375041944817792
0,34782753487563
0,350130336349267
0,359277297926671
0,357473039156809
0,367028798697351
0,366099387577248
0,370707120355333
0,367509981437997
0,365838308472366
0,379062401769167
0,368117277257954
0,395066325786996
0,377813680614936
0,390201364451704
0,373115399123713
0,377823533752827
0,399657841509336
0,402934737534324
0,408856459785289
0,385852564426836
0,408501937200729
0,383988477265847
0,393606383554686
0,385315800732093
0,398149378240627
0,394495050731588
0,399542848217193
0,390265601512872
0,394124514436745
0,395026298809586
0,386701648364559
0,394478259573939
0,400780947724549
0,396445996306507
0,380327289919905
0,388991210492991
0,379547487433376
0,379005676122734
0,394325348972766
0,385955818516387
0,384356884482598
0,371470876450572
0,382045237497887
0,392899732578363
0,384109231135118
0,373611496843739
0,369516233322953
0,372903813869537
0,38065886703711
0,365837518875768
0,382058548396931
0,379190190389367
0,393130265237171
0,378852763055832
0,389603911715994
0,38521455010104
0,399493094255097
0,388642733985571
0,401960857178847
0,400714604734793
0,404622111234661
0,409287694722379
0,410990948014242
0,414107217521699
0,41864669169661
0,420705935465904
0,426046665835489
0,421842505227921
0,419955017783863
0,417671524089702
0,425093941972673
0,425850731910669
0,430954381229027
0,415812659063513
0,429987622259391
0,411463386696613
0,434360697879199
0,419744358429472
0,430424443616115
0,423339494845907
0,420952581001042
0,412251691157015
0,410428839972557
0,412230027659566
0,408257113677297
0,411137533924235
0,407519194581769
0,407940735727873
0,402714454731629
0,403456834201861
0,40213026917865
0,397011196663605
0,404665732915846
0,394828050658963
0,396318477896188
0,395645894156071
0,395823499085148
0,392676089748086
0,398562949273469
0,390809548359351
0,395639771185624
0,398395977627767
0,405887434890012
0,400516538467606
0,391996172731728
0,398445703415449
0,391526966669392
0,398171579648825
0,388905344940432
0,395100447841701
0,390475224097258
0,388001303785425
0,381199244734088
0,385873886344617
0,382296736397617
0,382158196157802
0,382142749408523
0,382808705475422
0,381544247412791
0,375913273785293
0,375969498768333
0,37618999777707
0,371741139940731
0,37505195738349
0,371530101347073
0,370206565890934
0,375258204723986
0,365778158768145
0,36896590661383
0,364083196514817
0,366512219872258
0,361823677292189
0,362310003721888
0,361902113384841
0,357452057862933
0,359068747756748
0,357973415270475
0,357232081957874
0,356756013221201
0,356410229364519
0,353128617440988
0,352231781632688
0,351903478728203
0,349773757763674
0,350229985709554
0,341635108925536
0,341944563546015
0,343005020706596
0,335608255902931
0,336099520128597
0,333553518861832
0,331850575426625
0,328551229297209
0,3225032971428
0,320783270211585
0,320413946606003
0,318551238955577
0,315193050443353
0,315647597024409
0,316274294775201
0,314116807378859
0,312075639016923
0,31191987112525
0,311099347604633
0,308791506492075
0,307997990283189
0,307980547483716
0,306829847634244
0,306774456850575
0,3075497087029
0,309578228879846
0,307582539798246
0,312824349757376
0,311296958381707
0,315239275496332
0,313347063748059
0,315030179501995
0,31443679576832
0,316123886275736
0,315144459323951
0,320071382943759
0,317838102132636
0,321500289219815
0,322853846392652
0,323342823924059
0,323238831962383
0,322518942192482
0,324935522793531
0,324605824879093
0,325176898926782
0,326457009542247
0,327189640495501
0,324476847692962
0,325269752459783
0,326653755805255
0,324252754887858
0,32476872313381
0,322326513139859
0,324119880804359
0,320265004776335
0,320360950123834
0,323523776052436
0,320491952216182
0,316818178371364
0,318155242702958
0,315341128007605
0,321401032456027
0,316185925939903
0,314066849863986
0,315027875937435
0,313840213054955
0,31154576969387
0,312507491423367
0,311339191828296
0,308046542420909
0,308784779773671
0,307484862385702
0,303929638283951
0,302666087462766
0,301020355105407
0,299529915761274
0,2958545603823
0,296992893114265
0,295424744696045
0,293663393854791
0,289879179526063
0,289623281542736
0,28762389151598
0,283809854336184
0,283171269699417
0,277701445322498
0,276870512374566
0,277289040113441
0,273632116852499
0,270272147220086
0,270125317498077
0,269237263635685
0,2681411781876
0,265148851850767
0,264726695873532
0,264624045940475
0,263168424052875
0,263025845408946
0,262169594508139
0,262581364629973
0,26308686293792
0,261773606948719
0,263426927941868
0,263169393696026
0,262296562155849
0,262714915854288
0,259172263673164
0,258219117843215
0,256970966594813
0,256411315429884
0,252145366397409
0,249456275024288
0,246711200325564
0,24280548142234
0,237180934022755
0,235251589492536
0,231717572198817
0,22646972234505
0,225160920839039
0,220004672327858
0,219037232951353
0,218116950909395
0,213559208874628
0,216169238752905
0,212878881167442
0,215868626320144
0,218649539600842
0,220729296838832
0,225807143388107
0,228888163008292
0,23377502833237
0,241209121697327
0,246733045717804
0,256480741806253
0,26634179347791
0,273661501857048
0,284014346443994
0,294147655753117
0,307486985918375
0,319911163609149
0,332776237688282
0,345629871755905
0,361212338868629
0,381414789340158
0,396294696810156
0,409923955794587
0,431489989945515
0,453465535792993
0,473198287205281
0,491265524324263
0,50772019897961
0,530071985139036
0,550705558875204
0,567390287130948
0,581272640435099
0,597310633456261
0,609437251243751
0,627925267957903
0,629571879612508
0,643587967156683
0,649160605136693
0,649855112940807
0,655495535846958
0,65676630774295
0,658682146896237
0,650195900722128
0,645467290230826
0,648869101120275
0,638831901942688
0,632208578504192
0,629756440910621
0,618613663156116
0,611678632381026
0,607770517581163
0,600752821823448
0,600744042147467
0,592121805810608
0,59393013547246
0,594606174188255
0,59241504384834
0,592938341617395
0,599045448033967
0,595283465904945
0,600924777235974
0,601994886136012
0,613706369474497
0,614806994714091
0,619087549354259
0,634696717057976
0,639517559732638
0,646097718599451
0,655076622686598
0,656044064109221
0,672302476402493
0,667002444022699
0,670370602137832
0,682608910400058
0,686346374177633
0,688226875960285
0,688232683696507
0,695859674122605
0,70022885131646
0,700314311489063
0,704865706016666
0,706222294321499
0,709055338710607
0,704238235782941
0,711509469801356
0,710536481208608
0,713757936160909
0,721064954475624
0,72537571985758
0,728683738856932
0,739583545055958
0,742726982962711
0,754452930821411
0,749109376688261
0,741921763170933
0,76249604035927
0,75779473877136
0,756791502815553
0,765443535830437
0,771255156115134
0,774817865476044
0,787593403347094
0,80225116710577
0,812893226188849
0,835793495573855
0,842353703106678
0,876387171810678
0,889661989494352
0,918899834416057
0,93056719498246
0,966226121653969
0,987557587103896
1,0223815395054
1,04614592697967
1,06477679182473
1,07676919282188
1,09841432847587
1,10027195796852
1,11351934687529
1,11558567763086
1,11106511921095
1,10759768708505
1,10753096772844
1,08180937918257
1,08481342707066
1,06431478935353
1,07321035524031
1,06586659866961
1,05442687141983
1,03725110494258
1,03803696993461
1,03694150225431
1,05943202381049
1,04757685678723
1,06197030628633
1,06308973569648
1,07890286250839
1,08105057604274
1,1097871819895
1,10293697604395
1,11797526184518
1,13302344959181
1,16220049037517
1,16330533596681
1,18213764262657
1,21094678793896
1,23213135987981
1,22700604368509
1,23551997607863
1,24027700379955
1,27311984562449
1,30184725823924
1,31453932810225
1,32291106464094
1,38184125301656
1,36674460916757
1,38924895859703
1,41215509731103
1,41818560291182
1,42828007985017
1,45478659263237
1,47464274337289
1,51711511596835
1,56308277072774
1,5207264148371
1,55719006230973
1,62978393297263
1,54671452188052
1,6409869480816
1,62894859559917
1,68896946456348
1,65566319704082
1,72047045943345
1,72726525723271
1,80087844151818
1,71473113903517
1,8867052007198
1,81696296567581
1,87140490389665
1,74792875835253
1,74966151768959
1,87936481324684
1,84799643151624
1,80887623003766
1,88634791019456
1,71801787787243
1,7522221333666
1,65642238253476
1,69124661894036
1,62824163428262
1,64912246601318
1,55922807039704
1,62637843046686
1,60084991477249
1,56797874848656
1,48060309774799
1,49060934773726
1,42334576203815
1,51138918802407
1,44173040282397
1,46447131435153
1,44965029938281
1,44788825241195
1,39475356454992
1,41756403608709
1,357383817552
1,36125148556964
1,32866821425799
1,3578475446708
1,32618121785712
1,34083251967606
1,2616644768966
1,29459353594073
1,23801736568795
1,23744181614617
1,21292925986492
1,16839508230065
1,15093201501364
1,13777159091473
1,07736757144945
1,08080067048533
1,02519682956125
0,968515210618005
0,909121327659459
0,861846732352203
0,817092241258034
0,760333795715623
0,72478526564616
0,689493597583884
0,650267601712832
0,626511418692793
0,584961280837096
0,561024985382716
0,537541923028222
0,511824187428233
0,496312696355361
0,479083218738185
0,459948056617854
0,446055170025567
0,43721707188648
0,4285058208407
0,41383933058026
0,404852250058933
0,40032323522277
0,390909461352469
0,386414229130737
0,385487100176997
0,37895872967331
0,375915605497552
0,370103507504377
0,373943661765272
0,376116268416106
0,372818338926413
0,373588843514501
0,373429610926995
0,374890963180997
0,384221334546249
0,381624688210538
0,391260591388289
0,39327240539981
0,400951667966731
0,408893898466019
0,408318230075122
0,409333731463947
0,412851633777513
0,406217394728741
0,410135150365609
0,416235451384255
0,419314456987158
0,417735713956764
0,423656172393224
0,419857934161232
0,421608430346182
0,421894856754871
0,423309149113829
0,421314527309049
0,424878715670109
0,423794109664701
0,421425620677076
0,423878247300011
0,420007599669807
0,423101159812994
0,419885350248171
0,419507869673156
0,422279754171697
0,418647206087144
0,419143764313193
0,411200170923872
0,411977618199754
0,408312413438086
0,409756138794128
0,397420876047673
0,407075629630873
0,39357957366939
0,389054410551342
0,390604205668565
0,38659921097232
0,389877302759179
0,388612526147737
0,382097790903367
0,390950387317093
0,386431723021992
0,394160553760128
0,394133812284845
0,395488420377141
0,402117111130863
0,407474293121951
0,416771100799431
0,425807648036906
0,420897972228941
0,424800899212519
0,430113597580697
0,42676418794304
0,427160284705993
0,425027243798154
0,433730919640779
0,42131332813364
0,409731948658932
0,415249979924277
0,40283350587634
0,399832630016528
0,392567475022876
0,390572807024438
0,385084533250391
0,380433717087021
0,372325077100715
0,383529632534954
0,370876693231695
0,369746429306216
0,372145767343166
0,379778981971456
0,377779347734324
0,385456058660462
0,383720337526269
0,388548451879392
0,379675472244887
0,3868314577821
0,386049252889006
0,387996001569487
0,37858603280499
0,384275722083188
0,382465294882502
0,385369729013212
0,392454624196119
0,398979677267635
0,389277776258833
0,404877146034838
0,399550675709351
0,396530869376613
0,404667267101395
0,394755200090343
0,402705184712765
0,402571732029559
0,388327495860646
0,392822177730535
0,39825156130339
0,400791085661928
0,397762989298949
0,390814411797036
0,392559708444669
0,407280856505366
0,378155668481156
0,395946313991571
0,394259844330473
0,388438519037318
0,383213112432375
0,387509219024885
0,382147498272844
0,387445235559294
0,381618915415097
0,382790109390316
0,365712225160634
0,378331795041159
0,371220607904351
0,370063595312134
0,351078831204702
0,354719777393381
0,359423644198995
0,359213342049
0,342835325347448
0,360227515304431
0,341522531934035
0,341481584493616
0,349137058399159
0,343631863920388
0,34370425340244
0,353624878885728
0,337780796626665
0,345392649179711
0,342031276186138
0,349996764440555
0,354226822451197
0,357177324622345
0,337547579225984
0,341484556664033
0,349415148292015
0,367481550121859
0,343365913501794
0,355802072135028
0,344579897880956
0,361672441785382
0,37353688685881
0,352169643107666
0,370692838457473
0,366430112293115
0,354406771064438
0,377776364469911
0,374669139742919
0,389358728149158
0,375281575711583
0,386299438716254
0,393696236234626
0,389553083127072
0,381564842304095
0,398526653874662
0,386455986251231
0,432320339788779
0,436316981321014
0,44114718402998
0,445314722353619
0,458698543673077
0,447534419760401
0,461642696367247
0,458123905401378
0,486699258202435
0,483157211842164
0,482794294013623
0,49413452603867
0,502581187117917
0,51704769892714
0,508601203841502
0,491308706997645
0,520739903447467
0,49783373211452
0,530675713701918
0,521287084796792
0,503256206727019
0,516316327437457
0,510191372028031
0,547201810262322
0,548667232410859
0,518785168015528
0,570378681657191
0,551003471859941
0,541597709554403
0,538836291731043
0,539012021102081
0,541998487725988
0,589426605422174
0,536471635514611
0,553173142262512
0,555725429355903
0,562118156515491
0,554248899404745
0,558662886025332
0,564728300642729
0,593058350443948
0,551565135876669
0,584586370743932
0,516444630886136
0,526720698463524
0,527875210205393
0,552591497529244
0,563887581317579
0,540003122444513
0,544250866913241
0,53255428690021
0,527511957007232
0,553712008089624
0,530354062063505
0,517539299477528
0,512449737101224
0,533897677222508
0,508552163007123
0,499041498176798
0,530462763153146
0,537155287990621
0,499893676486259
0,553535093175332
0,510628308810903
0,556402319388262
0,499766721594823
0,538263173093469
0,53308765455425
0,571020820386563
0,49383472867647
0,597261156003178
0,517671068634703
0,554780299312531
0,573454302827716
0,552399489445826
0,513376550231515
0,561235250647801
0,511710312416124
0,601282318440761
0,496629405907991
0,546358024077539
0,578619257936088
0,565951723812
0,543445984884748
0,613549674649519
0,560347339820957
0,597267315445999
0,552971562141389
0,61344709131216
0,543235655884147
0,647866879781171
0,689042002183157
0,656932225618199
0,705384966401007
0,673967346350482
0,64698323243215
0,707251836198692
0,578718928374341
0,69738600919651
0,648460381849463
0,700974592219412
0,657552876256263
0,754974104797687
0,625878968008517
0,696812475594776
0,583193967069396
0,702530864651434
0,642884607814967
0,736892344875865
0,774494717130203
0,625863171188444
0,598778154036323
0,692297459134423
0,566744405665105
0,864934493640856
0,63832780183076
0,747451632666496
0,681012140699107
0,5565069851922
0,597249573770437
0,682759926952961
0,656059713413925
0,609944666477007
0,566954960855302
1,03819448565685
0,640185673356274
0,807784666064073
0,567560629438133
0,658094483933944
0,621459891576517
0,792947948043702
0,500751240450908
0,707005898970646
0,431000210270707
0,753534093518911
0,571634126530539
0,714596996098148
0,606109025151029
1,04398501002596
0,886035971496158
1,47943019525176
0,641858620176493
0,946399584968773
0,681259095354445
0,725358569748559
0,762917905252949
1,51294120723653
0,486956099114653
0,66407253104
0,59100523842106
1,16209517854863
0,493924178204821
0,782594247045206
1,06856092046226
0,493603081907098
0,426685095059308
0,77464911227799
0,720962142054436
5
