3596
4000,36533379555
650,420452594757
1
2
2
0,0284643123452787
0,020944646308021
0,0310897187052989
0,0239951419304002
0,0266990568924004
0,0301380244314052
0,0272442271322164
0,0180563863440376
0,0312998567546503
0,0213531095041805
0,0295102995688184
0,0282255952669805
0,0311158152175144
0,0235412055378512
0,0256457402519579
0,0185557466173463
0,0275140482341535
0,0209211777483865
0,0313557472292488
0,0257982746669105
0,0304894866577976
0,024954821262355
0,02975078356859
0,0215287252044271
0,0261557488236397
0,015151415089119
0,0319875042222317
0,0227063325716007
0,0263093174712565
0,0274173125254379
0,0240845909231897
0,0233398249145075
0,0272073089863521
0,020051246614872
0,0307360020456589
0,0208374485779245
0,0218563529924774
0,0201584009235773
0,0276599635209233
0,0206689965915876
0,0324056770277061
0,0207905740928424
0,0278183309020838
0,0221314857781154
0,0290170544664726
0,0259861970821387
0,0324701025576437
0,0176806725178638
0,0268356864400175
0,0199059637902134
0,0268515115043875
0,0148403852066295
0,0252244655972973
0,0215458529546257
0,0305645686695027
0,023225350155328
0,0311440542424926
0,0248674238399609
0,0239524981844632
0,0210824614913831
0,0331301302203416
0,0255598596197646
0,0273308832077794
0,0309363529388467
0,0227638398470177
0,0258440358242547
0,0270400596816372
0,0230198654841167
0,0288391477530467
0,0237255888801236
0,0204216771933174
0,0217860538314397
0,0260160206885549
0,0221652799344504
0,0329136757382223
0,0281424613917929
0,0264513767718713
0,0217210375837405
0,0249810982346804
0,0260282243894196
0,0305414698975007
0,0196160202377871
0,0246966054198389
0,016812486233732
0,0260294937562052
0,0286572273445023
0,018353013121415
0,0249240668966579
0,0300879709332716
0,0121541642401795
0,0253138727626751
0,0193169426445357
0,0224392000916889
0,0191871281783664
0,0219826000481515
0,021982287021217
0,0224032666817951
0,0255443822120648
0,0294018225512015
0,0309210142003946
0,0244868207566764
0,00333747402235936
0,0486308000467883
0,00565575191956943
0,0433180156783841
0,0213874692133612
0,027327930384434
0,0308969925362757
0,0196802730659401
0,0297970644218944
0,0248602269069059
0,0258711521308562
0,0167410092625313
0,0259066217577971
0,0103101868318097
0,0273121338916172
0,0257167032583582
0,020156293465666
0,0261723739388372
0,0247811412006015
0,0138194892295127
0,0207770890778661
0,0383224440363627
0,0189693959347205
0,0303369199361686
0,0177688906396723
0,0236989432843726
0,0157251605697807
0,0211174129566298
0,0180403390211405
0,0304426841751073
0,0153837974679646
0,0275827335884044
0,0116330165713285
0,0386332564017714
0,0140586620012376
0,0220086166381524
0,0106980873218057
0,0253475452833504
0,0320136740863112
0,0224303190699064
0,0213472076220572
0,0183618817682468
0,0107058981095201
0,0358223746393841
0,0235642758667391
0,0181124002322162
0,0219412548683496
0,0261135840471459
0,0141603629384422
0,0258147805017809
0,0203159034187739
0,0270467814865998
0,0272999831125814
0,00682328858065896
0,0150701423139491
0,0408236926260608
0,00452580198194419
0,0449336739512023
0,014230166676639
0,0440186327522502
0,00991013006269718
0,0306113360417686
0,0113560068861119
0,0308101012789223
0,0105655327944972
0,0179306452636488
0,0244738613568135
0,0226849082861776
0,0157911131485663
0,0332911587338955
0,0243321052407333
0,0165080753734072
0,039031118575423
0,026260239397647
0,0146007248565642
0,0218165347643656
0,0270563908458148
0,0228676964171969
0,013724696582314
0,0303503128883892
0,00685333196642019
0,0221914567014088
0,020349596707579
0,0317847839491966
0,0260889322565903
0,0300453723317482
0,0184280936196714
0,0298775697698879
0,0072570035989745
0,0254277718315091
0,0208432913020462
0,0334401835688757
0,0185480226242559
0,0304633294605861
-0,00614199855030684
0,046014717691034
0,0202387900058784
0,0251830993112251
0,0182366671204397
0,0221604452838834
0,0211975665270616
0,025640831895873
0,0227182053284729
0,0265199134792719
0,00317164124217353
0,0305065405914542
0,0102083270828973
0,0296902759180487
0,0112463723933764
0,0289433068192348
-0,000212772504940122
0,0447611019431105
0,0245581394430053
0,0162472736019578
0,0115670259865087
0,0155951063366288
0,0261146806253621
0,0229374049353045
0,01580847068902
0,030091226641191
0,0212774808928913
0,0371180466833156
0,0218891620287696
0,0265101920282639
0,0200390266617979
0,0245946545703741
0,0201471806308752
0,0219760849048898
0,0145955917116979
0,0325624214875707
0,023274593622465
0,0283941140803586
0,0224479012125052
0,0193597793725975
0,0197439473126
0,0373467390432533
0,0155341620729147
0,0276948887057147
0,0251105459764088
0,0362879966941966
0,0214555802605666
0,033034336136117
0,0209156255820985
0,0331544730903141
0,000351094618671142
0,0298309545835196
0,0153656934696277
0,0367636454158825
0,0101968204523641
0,0424545204456523
0,0206206422636493
0,02952369154353
0,0190368197840602
0,0343876608093196
0,0202212363520751
0,0248611619320762
0,0215904502151146
0,031506240354816
0,0172325282787404
0,0333027201467376
0,0202372968727571
0,0366292890772138
0,0273690365727391
0,00860071563857999
0,047968792459088
0,0288444657557146
0,00844446818931186
0,0544336276180371
0,0204532056412543
0,0372958673736893
0,0220277875650338
0,00566171560920305
0,0314193557590367
0,036501532486782
0,0249355286409044
0,0237553417248787
0,0335453579083879
0,0309276220437334
0,0334477641573964
0,0255981274186864
0,0249069383046932
0,0437117819260681
0,0259388377767251
0,0569207485569964
0,0101188306914233
0,0508683366565489
0,0227428063552516
0,0339637963607361
0,0242229661169416
0,0328901700518216
0,0178443097510482
0,0466011850902092
0,0294661729806111
0,034117245627685
0,0220326463353683
0,0330108722464464
0,0406642067192817
0,0266240285432154
0,0240800943958361
0,0376889320730711
0,0377493481510045
0,0332673150311105
0,0299778856633107
0,0333558908950993
0,0373421839383736
0,0317048178725887
0,0280811492367346
0,0486175669703269
0,0278884792400719
0,0381831408425442
0,0434996940424978
0,0375667542018564
0,0359065154895346
0,0399805499351867
0,0329019761751046
0,036128789007011
0,0349346052058077
0,0336618710055171
0,0465187295229463
0,0370140244478607
0,0381138883175402
0,0413711394647566
0,0372195922950654
0,0341741847425258
0,0403558057574065
0,0464530015555373
0,0391703473691879
0,0473092740281623
0,0337938622048114
0,0401885124335405
0,0511290968499162
0,0292247151532343
0,0612106941949928
0,0464458490806064
0,0415922038950824
0,0518782746790881
0,0425059500546719
0,0553643814509148
0,048811776110492
0,0527463216196633
0,0443101721503128
0,0513827179608231
0,0492510440543984
0,0538198409209273
0,0392697271551226
0,0487928943840648
0,0484216330993549
0,0729347800068199
0,0560229781123998
0,0672574375765194
0,0341760803449839
0,0799752257722292
0,0549174613928858
0,068948840487252
0,0654726566667463
0,0603646885940691
0,0691518063383252
0,0642698944748195
0,0750350852884045
0,0689887875861489
0,076987604238855
0,0769730539848431
0,0789342700933073
0,0758872138259348
0,0813390670523506
0,0829353090953447
0,0882064213259956
0,0878190290243418
0,0830720270833941
0,0870884883146214
0,0893712339596329
0,0808889799833478
0,0931493243695178
0,0921369675629574
0,10961485666535
0,100457568010671
0,102573988329165
0,112460750044402
0,096180633768065
0,117241977154107
0,0982116490138319
0,117772838292531
0,111640568110339
0,119279778753974
0,11069812560642
0,122020521263934
0,113227877002324
0,124820415945124
0,121136113519247
0,13517180268857
0,115302988225539
0,144857604858295
0,12335599695483
0,148280737792969
0,125663932386204
0,146409153157808
0,127876102072142
0,168185410170375
0,131290471491306
0,151797611214613
0,1436824123683
0,153378935827201
0,146525365894815
0,160262517622699
0,160226625225561
0,15828381592611
0,169322190990496
0,176913175577662
0,179232193568407
0,179366861104285
0,158100742024495
0,189180338133824
0,174501207026104
0,198234274016018
0,187305429745113
0,196362190801744
0,181290179561529
0,206303250586583
0,197081945051505
0,19447838299372
0,204073632484049
0,211197587530025
0,207075176030995
0,215007573352909
0,214225945701436
0,222612888137316
0,231326403804914
0,236192266960444
0,221962303662887
0,240569054662708
0,239594349722107
0,237901921273806
0,235289259580065
0,244609756592495
0,239912015241748
0,257734529913618
0,249379548079475
0,276983433296485
0,246672178841873
0,270639685405235
0,264564031052084
0,276438686822218
0,271149849150978
0,277141225396944
0,267548067091287
0,290758354840701
0,292122900148435
0,287274372268784
0,297588552235774
0,295991868026178
0,287939813133437
0,305676899824314
0,303902138505176
0,318816497287233
0,321285942416153
0,322973299309518
0,32946570777052
0,338985183711985
0,323411765187026
0,357915683883584
0,326148231321213
0,366085366821893
0,351801550951963
0,357838617516558
0,358750618325107
0,364165174846648
0,351338153403597
0,373397689778366
0,370854593301234
0,383971292089902
0,382824502615791
0,387441378400601
0,371753715905257
0,400803502874519
0,398253796670528
0,402340456639747
0,395819253454976
0,416270773133636
0,409321700123139
0,425023868458739
0,420230002492684
0,434510128046363
0,41540465963224
0,444427310092745
0,433983638039652
0,44031527224489
0,460423934753168
0,485659752353586
0,455475595369891
0,458845717777088
0,461335577625037
0,492014804254839
0,476393075499409
0,48665549133325
0,459345845307873
0,511294012646919
0,4773545886139
0,49392171867393
0,486369276582364
0,492759101341575
0,499946346989699
0,535590431207293
0,499577308533858
0,527092006545188
0,515655510102447
0,535631113770965
0,505279173743372
0,545521302298913
0,517047378151516
0,540238354928522
0,547928436869318
0,561251633878254
0,53810747808418
0,581990394273305
0,555774115768216
0,568673272891968
0,577173345674124
0,567538796730262
0,55742739577623
0,593090813231422
0,60854715493528
0,637530226501962
0,599261640067573
0,615590381468291
0,584035586934713
0,626507743752568
0,613872655991054
0,628486130708841
0,622134394429878
0,61979817268389
0,61027725763055
0,679809890791762
0,646130532885997
0,679772811984803
0,642702211241308
0,682046416906131
0,645372023937591
0,666613963575438
0,667538914901203
0,676298761353051
0,665219244446831
0,69548725370042
0,679190417536685
0,706030940992281
0,683515956594533
0,714367038893266
0,667003802946348
0,737646390750428
0,684146172575431
0,732685834321149
0,716741371970066
0,762046367868818
0,723707095923569
0,748554031962638
0,735173460815503
0,731919920221547
0,713158770563011
0,793730824063992
0,731533302291025
0,757196123543418
0,751928403144564
0,802396132040514
0,755009886953922
0,768678782688354
0,763940111694846
0,782253338612596
0,733602807272886
0,782467158860444
0,784188039655016
0,809491519963596
0,765315241440678
0,836954139382589
0,802674011108283
0,847192120302131
0,828581039182606
0,852351944062152
0,788743610765651
0,865885560530102
0,836025077575861
0,85458393300769
0,848108558663419
0,908863283623064
0,841443706742928
0,934886909628112
0,856589905965077
0,91012754078544
0,87312200387983
0,885850171916066
0,858330170500016
0,866688120165695
0,863593161652793
0,912939837385705
0,87205465271846
0,964709264074667
0,904294625782237
0,935642181387231
0,846142187407623
0,951609947886823
0,884520562572622
0,889404916998497
0,870715446542821
0,940489026306252
0,925133427945622
0,964426043725912
0,955711704278721
1,02179343008723
0,932433343652841
0,965205205765427
0,914805609353693
0,975139801494925
0,968773721504802
0,99887294427322
0,93320304621489
1,03976389668778
0,984078165549535
0,977838724959846
0,967411363255457
1,03971310659072
0,954379513909029
1,01469787060986
0,998136620506625
1,02611091884985
0,973878097424173
1,02249044433861
1,02291793071155
1,13037942957043
0,997981499685095
1,04793503016755
0,954221562571246
1,04361353908427
0,991174911941143
1,03417191674704
1,03765510184856
1,07803081044163
1,07762820683361
1,10986348217151
1,03021777349315
1,07144057445255
0,981233342740723
1,10381395379179
1,02893910450402
1,02618032255389
1,035761923097
1,1321105468516
1,02409293559904
1,12407622639411
1,05748086693089
1,10593530099603
1,14598031011486
1,20002550222888
1,05338908334192
1,17374826245214
1,08990961485226
1,20584214152709
1,17700514094132
1,16747455013454
1,08331596284948
1,12042986982387
1,11051266523059
1,21481180916626
1,09803935831914
1,12253741350613
1,08726214218795
1,17670980842756
1,11534438922342
1,20080131354334
1,09470352432197
1,25104895155772
1,115556639234
1,15022850627026
1,19806576054339
1,18584830972996
1,10004547763341
1,21823607701396
1,09614390330755
1,16472622362427
1,11745043332551
1,19608524870893
1,09639980750563
1,30700321630372
1,19360081915604
1,24950273930266
1,23724121648781
1,19059359143034
1,10377199330202
1,26540303793953
1,18815954367738
1,2294996721392
1,13639512760203
1,23214921905114
1,20730479590836
1,31564432748023
1,12912200934604
1,2377499852511
1,14627966239516
1,21679147624719
1,17388398391083
1,21236607526617
1,11728922702198
1,20039607896824
1,12873876022616
1,19667975259027
1,16497017352019
1,20500022394822
1,22046461236879
1,25874489180998
1,17430874735168
1,21228085870752
1,21958677092568
1,25110686171481
1,16724488995796
1,31123015489498
1,19053908589704
1,21988443480916
1,18517183644883
1,17987748886548
1,20269395184633
1,28537233373786
1,19736140429597
1,25488220991423
1,09971935057216
1,23589622140496
1,20305689240571
1,25042246538997
1,1298249711119
1,32136751435902
1,20321343879924
1,24341447679867
1,17769951715741
1,31928647401342
1,21938636476611
1,25195221662278
1,20260431482782
1,27322230978084
1,20303950803046
1,32318045378669
1,25501860190648
1,22701474231043
1,16135776715863
1,2064280642947
1,19011178519786
1,2266828482116
1,22278780712172
1,30812177632608
1,19762414911819
1,25865756306706
1,20950130706932
1,31743055903852
1,1920320946063
1,24663552576404
1,14538978084048
1,29468237858823
1,15251475079029
1,29922462784149
1,20274348471243
1,21036410155154
1,20066508354775
1,25122959283095
1,21197903642538
1,225830334851
1,2045077451646
1,26189553127669
1,23577374340809
1,23283456874461
1,18190110405452
1,23574391698795
1,20198369057439
1,1966613120021
1,15062831636052
1,2214465857985
1,14554737042557
1,25390594049961
1,24779038393251
1,21478755108653
1,17845934161025
1,22644898532803
1,17705787806646
1,21286122501143
1,20183865038581
1,19742087165062
1,14420724371577
1,20809175279735
1,19008034358373
1,26469898669132
1,15144595336195
1,24774233997186
1,18876445376668
1,16615829843659
1,18579097093916
1,15568933445978
1,15538547759534
1,24143194728058
1,14177122200946
1,20848111836136
1,20737010249771
1,20919159710508
1,1679918033428
1,23922183857504
1,16825351733241
1,29175131470331
1,18660635063884
1,18945360226807
1,15613803341074
1,27019138491735
1,11465891057161
1,13520046223522
1,14748278790293
1,19797171399812
1,0744836007317
1,16553836500005
1,11991458287415
1,18777304418276
1,13747931288694
1,18132424611698
1,14402516177838
1,17546020721067
1,16361520283961
1,14425559276136
1,08379810943158
1,16239452479147
1,16935515248995
1,16873398247131
1,12121936379623
1,12894419174809
1,1290761131227
1,16888502956613
1,1017816153548
1,13946229556841
1,06192864213491
1,17471101574569
1,04352180020214
1,14788218063595
1,08938995204723
1,13297138912073
1,06152473465147
1,12981720049697
1,08755711778106
1,13216458685948
1,09794941085224
1,12454075874432
1,04097180321626
1,10189908744696
1,02758247101154
1,04355583333359
1,08159931871435
1,0962470360547
1,08710214476712
1,07868258447194
1,01100791834896
1,09702486298925
1,0596938863356
1,06216982716701
1,03329114919553
1,06635223433776
0,988993939162532
1,05520116056816
1,01792672338637
1,00669987288135
1,02584011638677
1,02580004331593
0,99080844337594
1,03278463731426
0,982385003661591
1,00821053974101
1,0059914795945
0,997463780805844
0,990643816275088
0,994905030437366
0,970874232688602
0,957992509768841
0,939706098313859
0,99774129826638
0,947296911586695
0,988838458753667
0,952351609493411
0,960839672063065
0,943862418050834
0,955095652755321
0,943610684499
0,958409299866121
0,933456454908103
0,940622862650569
0,902883039800758
0,924840383204642
0,908912316910856
0,912956230792545
0,906301677635509
0,876774870906414
0,872758939914118
0,879103673955994
0,866356062259121
0,882399654121517
0,878191547345083
0,86207499378594
0,848885131105261
0,890768633677105
0,867296441793043
0,870144406551687
0,836391525816335
0,845204259882552
0,829042087470851
0,844923888073939
0,818743379042029
0,831968195649361
0,821301019681903
0,839658608471055
0,802149514648918
0,793421586328351
0,792149460610599
0,829618857529958
0,79130432062467
0,797717880317126
0,785071725237987
0,793737061034489
0,78345685964764
0,79605826389717
0,76951730474267
0,77381388475927
0,765689435886567
0,768237557216184
0,751389152575022
0,762667498300424
0,743381550123425
0,748462275562653
0,731981158916025
0,745575302187241
0,726851715448151
0,737288749672223
0,710742869887849
0,727956870059902
0,707530481030071
0,712210700649385
0,685774956657568
0,720854222335544
0,679952901155541
0,698601183003116
0,678085056990509
0,690602934273943
0,679437109478269
0,684271266541268
0,664240732109106
0,681798009164616
0,655154185234711
0,662257838914958
0,656882080170503
0,658726888391131
0,654097354388429
0,675832725325838
0,654378720994835
0,651404793208323
0,632905673802745
0,64048693867024
0,618464648449154
0,637469722920031
0,617508691678098
0,626591421181773
0,621233164328703
0,627620947332139
0,596859943935029
0,60993423993991
0,600170705152385
0,596527669249542
0,5933506162577
0,596505633200152
0,574197842724312
0,589077862531338
0,582633581043679
0,578777687105985
0,574588972808539
0,581600756338542
0,571425613443068
0,573739872138104
0,553318575597082
0,56669007014988
0,554583055977626
0,541432622917945
0,544941431779343
0,544089778114153
0,538675011816885
0,547217107478489
0,529244431712073
0,53777463742441
0,527163920571359
0,534301657049173
0,523538650712438
0,520557366570019
0,504278427217752
0,504884659928672
0,501746397672013
0,522815542583556
0,512839570077638
0,497759927702364
0,494390893352725
0,502942647112113
0,48508430142
0,482862625762595
0,485792435809948
0,494653483883293
0,478499887083891
0,482579939232391
0,467443492541839
0,475611084435413
0,463170935485247
0,476757523177924
0,465580467325184
0,47102942051788
0,454942337841288
0,45767909030512
0,453506459836778
0,461182042778296
0,448141984060655
0,448792482132868
0,427829690608401
0,448957488679214
0,434776114354921
0,430767410229987
0,429461689468875
0,431296023350986
0,426235379625677
0,427592099127037
0,415511336876529
0,428258076087307
0,41607690255217
0,418744046310574
0,407214354622842
0,411856410556555
0,403969162484685
0,411420692908552
0,394909261243755
0,403388266840431
0,39800645050848
0,403854807219416
0,393029921943056
0,403422170733747
0,385030006481243
0,395870050812419
0,383659769559864
0,385447529981128
0,386393976894843
0,383278409808632
0,374478757949819
0,37993984429782
0,372630430279192
0,379951631370476
0,369850764082262
0,364696400258809
0,360540897766065
0,371872838520472
0,356028535937902
0,361986514834882
0,353798250734334
0,360330115293595
0,357679821080469
0,352748564348415
0,345503418459661
0,358376558775176
0,347172239758935
0,348519216551107
0,34000167659367
0,348159978911461
0,340612738663832
0,346883948790477
0,344104398158399
0,342344605944013
0,337128667700364
0,343731373986071
0,337861197992652
0,343763553829038
0,333629479737161
0,341325176030531
0,330335553935639
0,334019963136846
0,332764997864217
0,332932491000776
0,324321143916322
0,331119866016496
0,324628862187683
0,333750259901398
0,322576436437734
0,329257189671757
0,322321985651078
0,331889206144802
0,33353794933877
0,334339087883246
0,327354237482721
0,337368978451679
0,331537865963719
0,334704475162264
0,332150944710041
0,339120827479232
0,326177339967753
0,334987425994939
0,334880937810349
0,334142759025255
0,332122304826444
0,340985891590319
0,340108173037334
0,347729138406377
0,342026510587025
0,339769322744887
0,33668831601498
0,34420274989964
0,336573701168738
0,343663625620228
0,346261477000871
0,362552881885949
0,351792010783529
0,347734282471192
0,347595540828497
0,351066872956793
0,351974075137939
0,362785367173902
0,35150654124398
0,360523104750687
0,367115003276209
0,371380550668108
0,365058104222819
0,371272632239511
0,374026178082314
0,382427836956926
0,3689415200047
0,381609439396671
0,381575075759918
0,38768013455249
0,38856316278485
0,399449020969742
0,384645054407533
0,402929866092779
0,407960007024484
0,414161685692759
0,414716335201596
0,421367493223354
0,417725762863925
0,435892559164978
0,424561700488968
0,437031231242276
0,432093415852701
0,452396708112784
0,444782524528655
0,443848629615023
0,43938223516511
0,452663210287879
0,446702126027367
0,453024270177489
0,460771218382766
0,46893294509
0,448407569074096
0,464991564821856
0,456333471060748
0,464952589993968
0,454550369352089
0,458021929485046
0,457617389025519
0,465816071237805
0,454365615100247
0,458572267332157
0,449780029479584
0,458276563262934
0,453163542532454
0,450957803585815
0,444716433417273
0,451530597786639
0,441507014902081
0,445264411712287
0,435209465078402
0,436875568961238
0,430353747641404
0,442126424335338
0,438189029902678
0,442902344755513
0,433453172517293
0,433784432238424
0,433956364136635
0,440262807049343
0,427919263986599
0,438648479246318
0,428234270659868
0,438792146818512
0,423461111313171
0,429381948316254
0,42676056248701
0,430939236437553
0,423241372023977
0,426814162261743
0,416508384509127
0,424066423409227
0,420448119886831
0,423742528418254
0,422313449613182
0,424181741947764
0,425998714722577
0,427796840769791
0,418962104270568
0,425197863301054
0,4115209642544
0,416982663423678
0,411123696299938
0,414188507386537
0,405649733574189
0,413023832506722
0,408148578455195
0,408577145014079
0,411044908772328
0,401396306914782
0,398831654760674
0,400958851332158
0,387985053626715
0,391274222629524
0,383267159175475
0,380550616221839
0,374871467868638
0,386972712595381
0,369621863699175
0,377793169202808
0,373464002845525
0,36734806431683
0,362862243650489
0,369253580112712
0,356823722130175
0,359230251973587
0,35201553322046
0,351724298552212
0,34972110584872
0,354902103461094
0,343457944349947
0,352171644036798
0,336496530283503
0,338671696234868
0,337620700205861
0,339048636044064
0,329355288725765
0,328147832296564
0,329051467765829
0,326821269125488
0,313201635489286
0,329949899404823
0,313507871086238
0,315037192169316
0,3183699241806
0,311394387243681
0,310931868315282
0,310686643028617
0,30589424049465
0,305612604383634
0,299706683245469
0,309939022316183
0,300336506952964
0,300037961845497
0,295259797457439
0,300957109972602
0,290037375778135
0,290302820125466
0,284589604032346
0,289237394608081
0,281909845174117
0,283938219839339
0,284408813449478
0,28427566934055
0,276767087976039
0,282943543797714
0,277245836241405
0,27327522628869
0,267823866537643
0,275257073733445
0,27028014740968
0,267886426175156
0,266952706122494
0,269942948537653
0,260513305282584
0,267065403280441
0,264668004056621
0,266967407963128
0,262148176287066
0,25885986574417
0,256977426164264
0,256654177840779
0,254243681887984
0,256399226531482
0,250417248236133
0,256252853195524
0,252038884451243
0,248613131225689
0,248033611681119
0,247147007882829
0,245452805725207
0,242938284043523
0,243091967936589
0,242691006204437
0,24268639353524
0,242604979478056
0,238058870688203
0,2390334255303
0,239062797193969
0,238113107061383
0,231028889852719
0,240171698867994
0,234989837180016
0,233087753958469
0,228732497713191
0,232767977046164
0,231482563367674
0,230663699239065
0,233830193488032
0,22959007987579
0,225669851571407
0,228371787322473
0,227192121045254
0,228899978847724
0,226616209726678
0,22776024299503
0,219910344631566
0,223827279981877
0,226422392546536
0,226521612660362
0,22040103037422
0,225373753036073
0,216444375374211
0,220156315933776
0,219701804619621
0,217902726051961
0,215299010567452
0,22214853420327
0,213873228297691
0,221456745787237
0,214045323520248
0,216594037221162
0,20939439571374
0,214299133976817
0,213857939938181
0,211753971748461
0,204493255462144
0,20811469011539
0,208036263751151
0,210676028110118
0,209274083735609
0,208073279932639
0,209493357435339
0,210382347530119
0,207458569119105
0,206734197899675
0,207335085201065
0,202496657247451
0,201654133933041
0,206519369012917
0,202514667904329
0,201963005198225
0,201178060324173
0,200990498807562
0,198513971345866
0,201646622464023
0,199498454482384
0,202660297122279
0,198558376973393
0,198750187695885
0,199836813196813
0,201412559671358
0,196142913749933
0,198633961544271
0,195184653043831
0,200634177761693
0,196162691761436
0,197743190837759
0,191451215012636
0,195014477951003
0,19546358146466
0,194266543849478
0,189955902029275
0,195420784488488
0,190189839863671
0,197547160919096
0,194189619701904
0,191114254917268
0,19550825902053
0,192115914357932
0,191546474036235
0,190500996207054
0,187972091249086
0,190563603205773
0,188260355037654
0,190082815480782
0,1887326089751
0,186859703525125
0,183803700519694
0,188091306898185
0,182680687401352
0,191198010927497
0,186397214195417
0,186550482338433
0,183168086073165
0,183916927536828
0,178926188796063
0,182200758019027
0,184364074430189
0,180251000889785
0,177085721085039
0,180526129263729
0,181015623308657
0,180055322392013
0,175610538927641
0,181718109844363
0,173128479741086
0,176132034122223
0,171417107470221
0,175800831998878
0,174852012186883
0,1728253759319
0,174463557952189
0,176014794670625
0,172959492900231
0,173353250267353
0,171936537462092
0,168408474301693
0,171250939612527
0,171615784174991
0,16922719206755
0,170211964322176
0,168924245131
0,168134981869579
0,165097735520062
0,167018615304281
0,166335165573692
0,164794494666656
0,163219103504571
0,166725788077167
0,163192040356252
0,163010507395668
0,157929576272395
0,162521142027296
0,158887991787728
0,16259553811163
0,158573968249186
0,159137949393263
0,159423248804698
0,15916968983908
0,158076234095914
0,160505184053449
0,151644908473792
0,155846541057912
0,153709794478412
0,153712177262969
0,148197722915709
0,15064132594874
0,15488786358052
0,154323937295388
0,151728233222292
0,147908651865854
0,145840204751499
0,149442113317775
0,147705022085346
0,143654137316861
0,14400421001472
0,14732447029653
0,143606761676772
0,143608017785268
0,141333001826646
0,141668720883249
0,139401038599967
0,14351112504535
0,143063289332632
0,138177515350291
0,136411196896786
0,137311413093658
0,136514525965556
0,135490757718935
0,132703115543641
0,136885239456953
0,13446091811223
0,134624178491788
0,133049822780908
0,133252190418092
0,130723307081548
0,132777456877621
0,125784948491702
0,130257974402795
0,128613509669558
0,128808098630113
0,128183784276504
0,127872092439312
0,125732521771368
0,127043616956093
0,123596637492571
0,125854038531191
0,1222870426794
0,125760998629331
0,120205646015689
0,122699742687172
0,123876992785151
0,122823626321089
0,121542156096307
0,125206224148844
0,118960492924254
0,121562480265179
0,117423490946187
0,120870426512545
0,118522431212399
0,117507458927291
0,118680953758057
0,120526163643012
0,116211271434522
0,11938722298244
0,115976123415827
0,116216975324945
0,117893708529115
0,117691349652165
0,1118937948857
0,118105576941298
0,116189452128293
0,115960244904336
0,109609314215073
0,111789806678714
0,110665964235144
0,115781795863462
0,115512918986721
0,11418348594217
0,115299463895566
0,11367776673072
0,111622358561042
0,112252931593452
0,110464877229394
0,113265504033139
0,110516525249789
0,108830838286821
0,10922784392187
0,107625412190573
0,108366486751738
0,113553369953341
0,11020432486064
0,111934521089232
0,106097964048016
0,105759735442046
0,108119308190532
0,108807751602239
0,107130783698991
0,105947186268697
0,103662552538675
0,104189672278125
0,105672239977904
0,106586971991236
0,107549389139114
0,109575843037159
0,102555790489024
0,105218649559381
0,104605912839143
0,107420143796741
0,105143498876076
0,106465764532396
0,102202226301516
0,102612454843312
0,104247730095374
0,104773871265659
0,101259713188718
0,10433353389993
0,105177597807072
0,103322502792119
0,101256244217237
0,101067820803824
0,102523494266382
0,103405929656844
0,101252488964904
0,101335766151018
0,0996623813636443
0,100001847173261
0,104232883961488
0,0998395325637443
0,0977120384763108
0,101824392009914
0,0997915534164117
0,0999556782180215
0,0989722573049971
0,0993459856700124
0,0978476867149934
0,09942320966711
0,0972775538365343
0,0984144251395268
0,0991203619767876
0,096709854188762
0,0949505897665564
0,0961493278618101
0,0938033977339292
0,0968620415390025
0,0937340806700612
0,0980834738511956
0,093890786386458
0,0933711871215485
0,093529425221225
0,0906092567592477
0,0931178955771181
0,0948265775977125
0,0935805301473507
0,0942294396145319
0,0935757595209481
0,0929135369204786
0,0909736548292456
0,0937091635923539
0,0919227567652972
0,0914700798284223
0,0892949102247732
0,0924852075208354
0,0892537722754117
0,0910571276441766
0,0896799091515782
0,0910470335508209
0,0888038181726706
0,0893040875789655
0,0897004638024066
0,0902048496655064
0,0924544159461748
0,0912928489663479
0,0869290226569392
0,0885368763865651
0,0932713539651119
0,0888933317957869
0,0887951667560015
0,0917747251506198
0,0880287188939489
0,0878281524077605
0,0884058613914074
0,0900072936169218
0,0888519550081835
0,0892552555274979
0,0867217764799881
0,0854192277617847
0,0882125558320042
0,0860278544859892
0,0843393880190364
0,0883822689005232
0,0888455721396677
0,0879338549807183
0,0854216369234628
0,0843716265797176
0,0820616255375288
0,084030888679174
0,0826776439911345
0,0840134954579982
0,0849563346859545
0,082320029314841
0,0851365303271534
0,0844853912012313
0,0812730992960734
0,0837072755995075
0,0814395901660913
0,0828390535611127
0,0812243073796395
0,0830988492040193
0,0813035006549238
0,0814936100208414
0,080577335725324
0,0808971668702226
0,0780565116609791
0,0820868969135888
0,0785996647745238
0,0783529479436272
0,0791472356962359
0,078288584579767
0,0789743205094534
0,0781626442185991
0,0768652547191435
0,0763694085209053
0,0767873090638762
0,0788657030103896
0,0783965016124876
0,0761315585037419
0,0747796363710551
0,0740428225112384
0,0758289995816622
0,0756305744179684
0,0722454085524701
0,0766198741237509
0,0734762730601855
0,0732037258874675
0,0731706779961096
0,0746994356405306
0,0748116889043835
0,0711620447710652
0,070716993270886
0,0704067523419633
0,070463870970232
0,07570021715011
0,0713845226497828
0,0714684416009403
0,074203716084314
0,0701605564471615
0,0687994169694915
0,0716443971684318
0,0678219652458074
0,0695981793003619
0,0711602604433502
0,0704374680676711
0,0672307802305991
0,0674203617440742
0,0672901605815185
0,0664349689628064
0,0683893830880498
0,0683451531660377
0,0692236639530447
0,0659722204176668
0,0628722942010163
0,0639830122477762
0,0649540914803518
0,0660883339588997
0,0657362030091357
0,0684821053835879
0,0641883624518401
0,0652427765464101
0,0678330743375584
0,0628492605946545
0,0617527418170019
0,0601364918246365
0,0633720419931832
0,0625586975831218
0,0615498480377089
0,0610210255185041
0,063462986344905
0,0628997665794323
0,0611421169048894
0,0626489998654304
0,0612227592229515
0,0623548428949483
0,061138276078958
0,0627044086769078
0,0624498707430139
0,0612257873051152
0,0625121049950917
0,059837393880229
0,0602912262879588
0,059240754977434
0,0605521979272835
0,0579616762588888
0,0597043173224363
0,0625310551773421
0,0599443873642045
0,0629034428024119
0,0604792133941243
0,057760688171143
0,0582306101143418
0,0613131443733248
0,0592796069226663
0,060229538613535
0,0574045740273061
0,0552603413971007
0,0563359775339994
0,0582625800659172
0,0587787056784396
0,0594165709888046
0,0568585503364147
0,0580527991495293
0,059267751030762
0,0583721666241915
0,053653528413103
0,0554672774007603
0,0596780678673795
0,0596954068070603
0,0573973488091886
0,0528077319497135
0,0544379422032237
0,0615876236660331
0,0595290428893373
0,0564838236195041
0,0595178748047431
0,0548012989730054
0,0592760853694134
0,0524446654191052
0,0525509636404874
0,0542697582974143
0,0545099590701956
0,0549957780095576
0,0592930305241045
0,056617402508244
0,0590084634403529
0,0555033628358605
0,0542594793550804
0,0549444753446816
0,0568453400159678
0,0536484935837691
0,056163995691211
0,0490720532693024
0,0599107174831841
0,0512276222097599
0,0595897391793306
0,0518009510196254
0,0565678179738874
0,0456865098006355
0,0585798893135702
0,0507464576468332
0,0605624657666599
0,0465220467946009
0,0583238809283202
0,0437547470389317
0,0638845897611949
0,0472232051018357
0,0624638041688181
0,0442363029897504
0,0630107974940068
0,040531108616679
0,0687485593688172
0,0425872357234565
0,066971450746684
0,0404028040393282
0,0710935547128682
0,044829153540025
0,0641212283448572
0,0462833775045786
0,0637436594501567
0,0456736033319126
0,0581796981492734
0,0566463759419001
0,0522040623103014
0,0558819328127348
0,0490176823789357
0,0611849131232285
0,0473262088767155
0,0599746981011495
0,0458981053479718
0,0579317659604687
0,0488562617468119
0,0586350689151997
0,0539028852147602
0,0573249946977438
0,0546953822017423
0,0560602203140939
0,0567642914866746
0,0524328059266279
0,0521894014333526
0,0554549099514622
0,0520760655133897
0,054591859718559
0,0510776458574682
0,0548591506673227
0,0532577884000511
0,055031196912798
0,053487936450739
0,0556582277289005
0,0554045655510693
0,0540093544161817
0,0523033455873917
0,0541013739994052
0,0537801625137087
0,0544272987711452
0,0540038419213809
0,0566450602369345
0,0543555599974223
0,0537199341812095
0,0530189644891014
0,0554557370650643
0,0539585299453695
0,0551106697180233
0,0551409464537832
0,0548549649823704
0,0554200859562655
0,058641742344368
0,0563525390081475
0,0562604381660083
0,0552209523826283
0,0575214224643599
0,0538814810941908
0,0563164287973517
0,0522310853055219
0,0577428174319
0,0563976129523001
0,0549787472371113
0,0554270749833545
0,0580749546743063
0,0554085296808287
0,0558651074321893
0,0573244485885611
0,0566610873767095
0,0561469974170057
0,0583389405531121
0,0560437479138987
0,0597929224892509
0,0578735325493841
0,057380193815869
0,0557984786198933
0,0565618954251085
0,0546552333020582
0,0573534953790794
0,05887351243594
0,0590343979792379
0,0562074479455985
0,0570703098670927
0,05522687601742
0,0573611545467722
0,0578636648776951
0,0563904314784295
0,0545181844656294
0,0579990248610897
0,0567111870171036
0,0624821310392979
0,0576286127788985
0,0589470156880796
0,0588195600513587
0,0585446628539588
0,0571431567497988
0,0592278204134821
0,0572961515430981
0,0595318185706592
0,0565274347540843
0,0582519997849149
0,057700751034179
0,0577261425517034
0,058810575598266
0,0592963798119123
0,0585297546173456
0,0593846862255185
0,0593126513328214
0,062537642454016
0,0586915623240239
0,0622209824125099
0,0592374719436567
0,0611917405977122
0,0582377064928644
0,0600549579907775
0,060531964953537
0,0638164192247994
0,0572329005396344
0,0607627232692963
0,0618751851210595
0,0623663388258631
0,0604026839087985
0,0597661214869485
0,0600583169204256
0,0611168135609384
0,0616007754404143
0,0617434256117213
0,0606770270899269
0,0621987114128419
0,0628377138619716
0,0610765523147311
0,061975767954685
0,063607209049863
0,0607343474078442
0,0644285906595767
0,0602735755699436
0,0636605756014051
0,0638317184308413
0,0653849910732957
0,0637613805439334
0,0647553444170756
0,0633853311775868
0,0668464798250983
0,0645949786121695
0,0656653600554479
0,0658552667562461
0,0647703033783164
0,063441246028265
0,0654514859370409
0,0645889647404562
0,0680645992649989
0,0640653332179925
0,0671829008399157
0,0648135680356384
0,0655027936094386
0,065398445551493
0,0650557777857759
0,0655431721140405
0,0657558399364434
0,0672414835743739
0,0674859068282553
0,0662950520240831
0,0692781654899865
0,0664298784622591
0,0681532144290382
0,0678772197570243
0,0665578561266627
0,0667541799300181
0,0701787239372209
0,0641424647605913
0,0686733163284453
0,0685118848398687
0,0678965048944359
0,0685421800849428
0,0690713334593074
0,0694210358582158
0,0716984431051018
0,0675080298038077
0,0693470876489834
0,0688673413751159
0,0690888424925004
0,0692223977744349
0,0700729664218017
0,070312612180518
0,07015341941448
0,0695463115355446
0,0696747920110726
0,0663806294817445
0,0720678258315367
0,0692170211271584
0,0708218499772999
0,0691664875573703
0,0698275607786317
0,0690423133545808
0,0688773016049896
0,069754639538537
0,0709546793208641
0,0705012178758233
0,0695844773134381
0,067449315027554
0,0692837027742553
0,0702784662689721
0,0707735711667705
0,0678426107348981
0,0696908533547081
0,0676953371433508
0,0672317966208463
0,0666349024035252
0,0721108732353662
0,0680268014747444
0,0685305098377417
0,0693449763454301
0,0697605176545919
0,0679783633293372
0,0677741357521379
0,0681967242788906
0,0679629497876165
0,0667672909141827
0,0679733576133619
0,0678910416463413
0,0681313496612635
0,0673043435965263
0,0703125159407152
0,0658251124142017
0,069247298239907
0,0661722637240989
0,0676821474085113
0,0693299289459113
0,068578281361782
0,0652072394332771
0,0664789655209203
0,0647303268710655
0,0687677494741227
0,0659626022847846
0,0671743072976742
0,0682033259073197
0,0668950155093339
0,069102801277958
0,0672832395306228
0,0668032075689758
0,0676384407318594
0,0656202467119874
0,0675158895711471
0,0654875321950681
0,0673191203005552
0,0679601893852327
0,0671069553377812
0,0643455776980185
0,0674783690068497
0,0659071748511489
0,0674218539182818
0,0638759931411969
0,0665552929418856
0,0681031583804505
0,0652344129848896
0,0641623787565806
0,0676901501938523
0,0638911789503257
0,0672783500893964
0,0653986850015188
0,0657922349498264
0,0652928365487848
0,0671996857303331
0,0657336601449746
0,0657134295950814
0,0634347391645576
0,0653654857929961
0,062164202891004
0,066011128885133
0,0650654991030094
0,0640139731972475
0,0668106706944313
0,0634115940671525
0,0643526037770341
0,06413710722344
0,0624540463940648
0,0671666531418372
0,0620117731357351
0,0623749209092433
0,0650243416992087
0,0651701471966451
0,065633803811583
0,0644865605094672
0,0647885675759763
0,0634025989661759
0,0620784904152768
0,0645536720814545
0,062813941462521
0,0621961943644094
0,064164406081853
0,0647035936954638
0,0633439233145729
0,063226513399373
0,0628509231854554
0,0640197413656749
0,0615416430143864
0,0607764090822216
0,0620237543348489
0,0618800558498453
0,0632955371303227
0,0625123629576234
0,062637915867457
0,0640355196135426
0,0610997197401176
0,0627097949085337
0,0633096736693879
0,0605246190366582
0,060632725808939
0,0609999028138868
0,0603699545534281
0,0602100138325907
0,0594074558888004
0,0615329354940066
0,057906855789014
0,0613957676133183
0,0600844418254193
0,0591976267108305
0,0561303960261868
0,0583396263364734
0,0573703135526606
0,0579895865234933
0,0581518153456779
0,0579519342375767
0,0577329503665908
0,0551543496905785
0,0569675094106485
0,0560342704643541
0,0533041304874531
0,0597734326916056
0,0559277541699683
0,0584190607682223
0,0557000185082498
0,054406243824621
0,0539798810477262
0,0550653297380622
0,0546680386767916
0,055753020646551
0,0549843231467135
0,0554606378583154
0,0510155913927415
0,0533392121773161
0,0526044211196771
0,0516641956446351
0,0523959772894796
0,0529964113568675
0,0506627227279211
0,0524422429550384
0,0499022169847293
0,053104181516293
0,0496341023714042
0,0514749406707339
0,0496159294208443
0,0529568761082874
0,0494722318753925
0,0526917307086529
0,0502923911469441
0,0526816769573551
0,052325987243601
0,0501438495840238
0,0511272107224439
0,0501178341556673
0,0514932883854592
0,0515290468537636
0,0501748567266494
0,0485868829877402
0,0494876866618609
0,0525546014700511
0,0508407321875127
0,0505585626520981
0,0520554444383818
0,0498291091100184
0,0482647260864553
0,0516627941984603
0,050420264418802
0,0510083419483274
0,049802932491047
0,0500779049653695
0,0496192033819094
0,0506908538177121
0,0477365870895634
0,0526071542748415
0,0484126208502677
0,0488626491039101
0,0469398039956006
0,0502159203245309
0,0510940644910721
0,0477883370369021
0,0486637619619378
0,0491953228387231
0,0503689975644648
0,0489127455954782
0,0475976553814055
0,0507714807086686
0,0507236570571599
0,0487305037535209
0,0498922057723261
0,0488102452654399
0,0493822617443649
0,047068219962808
0,0471181368248122
0,0478714445672979
0,0466652633358268
0,0470271736908517
0,0504778763030723
0,0449922178232209
0,0467518756313289
0,0475636246824221
0,0489392777792768
0,0440966246510748
0,0471054178665865
0,0494775835237242
0,0451170863031652
0,0502439835916859
0,0469310308942508
0,0503677142155406
0,0463472252715036
0,0486441223924566
0,0485015635630641
0,048419026596389
0,0478160278739396
0,0483230576773321
0,0483353424267509
0,0496174726110552
0,0467180798982147
0,0488943422413681
0,0456725784558439
0,048690968882212
0,0467293037705353
0,0470201704240423
0,0462471100811985
0,045973301762222
0,04901700116825
0,0487562602131943
0,0458596253713205
0,0503230400366804
0,0445788761711074
0,0513301405539418
0,0443561179301302
0,0497762868742078
0,0448208224847966
0,0499949633267804
0,0436752592127985
0,048415544617103
0,0439583866393142
0,0503300734287059
0,0466540118567342
0,0473713834395216
0,047124134925402
0,0459846659774287
0,0477445298724298
0,0452320082179821
0,044626502321881
0,0448216667604242
0,0436397211449839
0,0482820438159653
0,0456317050108187
0,0462694276362378
0,0475060206487223
0,0489051548605725
0,0446675750740113
0,046493776323604
0,0448258636372438
0,04815418598987
0,0443991455842737
0,0474446651586324
0,0452884716684986
0,0432623427561757
0,0464900309723676
0,0451703473886606
0,0459642436314218
0,044773536301025
0,0470374380051652
0,0436099914012649
0,0479061635287511
0,0439421246364473
0,0458079894632787
0,0455242754117087
0,0469009334038278
0,0484849498975591
0,0471694651114895
0,0480222490662287
0,0473676141954568
0,0450264014597129
0,0465357798887378
0,0463389203020255
0,0451676084373114
0,0473568437653796
0,0405276341400835
0,0492437780167344
0,04481988004061
0,0497490587029635
0,0460775824821097
0,0472959578796405
0,0477290516123085
0,0462904763349005
0,0436694895683152
0,0468344842009913
0,045651670554823
0,0466484972597609
0,0461798741366716
0,0472912566396677
0,0476567938315708
0,046709731950138
0,0465183300195492
0,0462355187864385
0,0443321073398058
0,0469428411176743
0,0472517799706819
0,0461142391224432
0,0475780893070503
0,0439121845233903
0,0481496507704319
0,0464456062100332
0,0503882961192676
0,0415748409638408
0,0503154222666435
0,0453035298819908
0,0488134822045669
0,0467272299312003
0,0467921610001297
0,046966786769282
0,0453864169325252
0,0475503802161667
0,044952679697974
0,0451153647825088
0,0471331739311301
0,0471570350560013
0,0480174979147924
0,0469858854567083
0,0425320586716466
0,0481169236704438
0,0501315007524343
0,0461981831682061
0,0506789228477142
0,0430848912494779
0,0467630122561318
0,0496500120431687
0,0454810736343992
0,0503180809800174
0,0472904563385732
0,0508013566943869
0,0465582984986156
0,0486749309276216
0,0471306025191431
0,0462627864693377
0,0464724706153399
0,0497093203250855
0,0467980529333511
0,0480187611753428
0,0493249956981596
0,0470417911833878
0,0499395000824503
0,0496443801770147
0,0487656409946857
0,0515409302141718
0,0489978920272113
0,0507521162479541
0,0480166016204826
0,0495282228957952
0,0458480021246809
0,051727988409033
0,0511097219987909
0,0473433338129987
0,0530620465755893
0,0507887696989923
0,0490396186493199
0,0547280712986676
0,0479298927325193
0,0579769183504914
0,0443738568701832
0,0579108090137875
0,0531679696202476
0,0529029807644376
0,0574078766009811
0,0503800580250496
0,0529579202211698
0,0518663041939988
0,0541774715510729
0,0476985488098085
0,0621838813017553
0,0490626731213786
0,0564927169096593
0,0499152227269407
0,0564836320704462
0,0540609861488007
0,055733368373229
0,0531056949868174
0,0553727676961784
0,0504039731422002
0,0637185564334519
0,0514849377228336
0,0567203888518565
0,0639337772672871
0,0540152406185659
0,062932858430583
0,057066653933945
0,0546297861511057
0,0604208507594294
0,0544190159596866
0,0617212873862358
0,05583880011443
0,0601301081191345
0,0562909789941942
0,0568820728402574
0,0674313529455874
0,0589939377318955
0,0600170153941484
0,0601750794520684
0,0581384383998259
0,0659688218449664
0,0631237556473898
0,062342763144129
0,0614983838745723
0,0664388669686707
0,0566192083350668
0,0821884394449692
0,0596441249134197
0,0714946606022489
0,0657889405617822
0,0685712788687345
0,0708621783128089
0,0719506066575592
0,0688347598368073
0,0725017580100678
0,0720740948496917
0,0747901422608894
0,0687871827630633
0,0792441592314822
0,0783159782678144
0,076253091260206
0,0834629531209758
0,0773640014142455
0,0750306313604789
0,0841007711570334
0,0836601033326767
0,0826085702342646
0,0894957765298659
0,08551751580927
0,0928932289137551
0,0901368137411451
0,0923589663939288
0,0915873720468741
0,0920959334204933
0,0915668558952029
0,0936546677688395
0,0991330864607111
0,0958024087273166
0,0986167392559512
0,0978157777748021
0,100615149653908
0,100299880989112
0,11039415838341
0,109469827206858
0,101422390067876
0,115855617419145
0,10547695870182
0,114613970355686
0,110856800793648
0,113500351833294
0,114297760586194
0,116696654868727
0,116835070299742
0,113096322835004
0,120605120670389
0,117151666005681
0,130290152230073
0,12365419176226
0,124640651399245
0,121000337453923
0,113879205259685
0,176350387645732
0,122488697943214
0,144027384896338
0,125536764375567
0,149786193368012
0,146612940773399
0,146819849136691
0,144848627986467
0,151949011504509
0,14443223174179
0,155700002576408
0,153599742278908
0,157647474777013
0,160409177365848
0,167058046520366
0,160925423896145
0,173433940038971
0,169933995265666
0,191592377560594
0,181523996073979
0,185067699707035
0,185715793081157
0,189953721930218
0,188968393692269
0,204384573063249
0,194102252664111
0,205130710444082
0,207692031770818
0,210636453792907
0,208227669372278
0,215437858437864
0,22654530922458
0,216778639790895
0,247721374917341
0,228189202824514
0,241422293894606
0,23792191456588
0,244262144227958
0,244056367840993
0,243908610801623
0,261024559703171
0,26206757784588
0,261768336991369
0,261464421398652
0,267159113710933
0,260988343262541
0,270883602986615
0,271210433215051
0,270499744713971
0,275756464638047
0,277959040706747
0,322902296153066
0,282337503182825
0,284615434768819
0,278893277889278
0,280568970212382
0,292735466784251
0,285100519586091
0,300175069917613
0,29215811699518
0,290096357717563
0,290676264551165
0,286284427382859
0,289334736772928
0,289203344292942
0,289152572608717
0,283777501193356
0,296026711457998
0,278285211860441
0,303511902784285
0,300527403451966
0,285179597869094
0,275564514336635
0,277060942431576
0,273434470539835
0,2809193746778
0,271597608018475
0,274521331466263
0,272696852971611
0,261371040063697
0,266536269325615
0,25211933304955
0,266412308789128
0,252313725660045
0,249495216087739
0,242577878434566
0,236632182594342
0,244364891513831
0,22638205265733
0,229991125613947
0,235403983723347
0,216869024484088
0,216772976692036
0,211238726264478
0,210692065919694
0,212068312022771
0,200312543586902
0,201251064599229
0,204037254479267
0,191679847431003
0,197407335295904
0,186852172011123
0,186206692747196
0,188196150777552
0,185639933794996
0,178776571279991
0,181169904216854
0,176418694949507
0,177945302864858
0,168413447390346
0,17264434504002
0,172542269003362
0,171679337571983
0,169885512684942
0,167177634386057
0,163344877689901
0,166562142953403
0,161613296383291
0,163252650646311
0,159679893251094
0,157430430885227
0,158211478858698
0,157255162010475
0,155783119332046
0,161632223276687
0,151051434730149
0,155142994065252
0,152616699312553
0,1529067572856
0,149936381614761
0,149750996510515
0,147585381326303
0,142637150342389
0,16214850296188
0,152431685364146
0,14830727968761
0,13819996033606
0,146000059619554
0,140956853620837
0,142846783499843
0,154226099072148
0,141798367626073
0,144831307764891
0,141101800478372
0,135346306421852
0,142679012065712
0,137911901622304
0,137943634488591
0,138772719397843
0,127565579970466
0,154931017548711
0,120977510379529
0,16228968196292
0,143112184615096
0,147014595762187
0,12822200913576
0,142398793041366
0,141645617724782
0,137347927377007
0,134765608768397
0,128216131135826
0,136193983968209
0,133584367153007
0,134488989602188
0,12918349727957
0,129525243838508
0,134867614050265
0,133738381900192
0,129493510030584
0,133013883593827
0,135115179530583
0,126299840257751
0,119888513447277
0,131054087517361
0,128418109942533
0,129274125986136
0,132034221950989
0,122159019568458
0,128966386849633
0,136273208596959
0,124804714904005
0,128736168643522
0,123706377853372
0,126939794735455
0,12365532556598
0,133800432818585
0,125435954574185
0,125409826071816
0,132028393910743
0,122930515658573
0,12856314202945
0,119952212604743
0,131034084193803
0,12962749870159
0,132320963210506
0,119576186387329
0,134372562515653
0,125055125125424
0,132675069368911
0,133411747479846
0,124387120744932
0,131210279120501
0,13356334915184
0,126216081420762
0,135108308997277
0,128355098817867
0,133786416146343
0,135482915119586
0,141370613376292
0,146128205860874
0,135361824834269
0,135202748561368
0,137988525528909
0,137144677130686
0,144624934306996
0,132876408653432
0,152742047982342
0,139979715103861
0,14698945884666
0,152164816293901
0,15083487780774
0,149749030183305
0,15445874753471
0,151775149742007
0,15544829355223
0,160446985910864
0,1649985931725
0,162317988562651
0,167902040620867
0,170162723314805
0,176597997874067
0,170825945567056
0,178386755466497
0,181160328873252
0,186423791474641
0,1908105075975
0,192988190784757
0,198124555315558
0,204196070640774
0,199082192042276
0,219234104666227
0,215758440959287
0,220070568259412
0,23100097839832
0,224346721560221
0,252843636870332
0,245629356664878
0,254490737138126
0,254618545277113
0,260236834115495
0,271473599470991
0,270483676857807
0,285401710001579
0,283355599082392
0,286896979589772
0,288921858807959
0,295466859391144
0,295695823361516
0,297835334557827
0,30775141906837
0,295947172831691
0,331523542266678
0,314323303019858
0,321766366384578
0,319431198112093
0,315130218118824
0,324942281521773
0,317004805640458
0,32941841134674
0,325041992629442
0,324172043168887
0,330626858984145
0,325257631847146
0,324445914980017
0,319869622668656
0,326374237187968
0,32655660730798
0,32766522834679
0,332371282604518
0,334315519220844
0,33700872462288
0,329426848202618
0,336442833789165
0,353095936745343
0,343782968101792
0,344590660054133
0,342938035269597
0,352357737827446
0,352104402123398
0,352653833664712
0,354904517095924
0,350573240623708
0,356711497986529
0,357780507541774
0,367141154405304
0,360183210131171
0,367950308097344
0,370137075080023
0,363266200065392
0,372240849926706
0,362688191225073
0,379065256470942
0,378639565674531
0,379826876928756
0,372078266784209
0,37554730157266
0,375800096098575
0,373474899701176
0,375325181493551
0,372237775316453
0,37669211461431
0,373487583620814
0,374697237697648
0,367153366247648
0,368766209443128
0,364622009473722
0,365980160082679
0,370578215006109
0,369894318221832
0,360291945861849
0,36415059779817
0,356770347320519
0,353119219724522
0,356675122505128
0,35195718718112
0,350496789501186
0,348167342087065
0,344894013954864
0,35439468619111
0,345412694779997
0,345720948345542
0,348895870498264
0,343028787010217
0,355007399537593
0,348741835456532
0,34907860895526
0,362337745376085
0,361462223673344
0,363836888733575
0,36640843696373
0,372300607669904
0,374727950432638
0,377028544292163
0,380463133112969
0,385950484219163
0,384453387229876
0,392415191697684
0,389487542312196
0,394437874903159
0,392380346389322
0,397219528305442
0,405630289192988
0,403675688338187
0,407740024678049
0,411555322218225
0,407951212353887
0,412330096195416
0,415191375554275
0,406543210682178
0,416312416218808
0,407270654015299
0,417989331432229
0,409948730769728
0,403983396010204
0,412302072251602
0,407007704141325
0,409180501799427
0,407325571009725
0,403098614069485
0,404619959541054
0,405907354695175
0,400644152883659
0,400224622311184
0,397675636113936
0,400469391343679
0,393956077210396
0,390077959947207
0,396136919378509
0,392068879821253
0,389959425125756
0,38564912028041
0,386972239820403
0,390124269131463
0,385144593592607
0,385074591330786
0,380915290805741
0,390608774724427
0,384811722331831
0,390229371109931
0,384237214647368
0,389397229484663
0,380809634828087
0,382224773404747
0,38443351579141
0,385641088999544
0,381419371215248
0,385625098865401
0,376054486595258
0,377621233660504
0,370197252594205
0,372838179472405
0,36749171036766
0,368588122407613
0,365338402333362
0,360341038233976
0,355595720712261
0,356171341175581
0,355114063806486
0,352928607364493
0,349842110655577
0,349033935927087
0,349758375462806
0,342731804407683
0,343148876214816
0,340975141391814
0,336754592712736
0,339170968193715
0,334248521872751
0,338077245875029
0,33547409211314
0,3346399648878
0,330993563453529
0,334630075263505
0,3301384267475
0,336432274303906
0,331286289759602
0,329812370280748
0,325676549965742
0,328386655769174
0,323369160371123
0,320906703014709
0,316689808449643
0,318948712164223
0,31410388832411
0,312052922351122
0,309162716670152
0,305325777887433
0,300789893892841
0,301803092141756
0,298885466434446
0,298585641099195
0,29459516197602
0,296850739264244
0,293826747260478
0,288515025842374
0,292402600626716
0,289355054513834
0,291642750159655
0,286248861208154
0,288895233766483
0,287931852205351
0,286550477948379
0,28678220243388
0,288236178440919
0,288046449679564
0,287818747038984
0,287014463526121
0,289320794612001
0,291469445940631
0,290160997007907
0,291542872090418
0,290878325904807
0,290523519371091
0,292702665562606
0,29632189645821
0,295282326764894
0,294014625635102
0,293659889119595
0,298538088430584
0,29910276771019
0,297465024924845
0,298703229439315
0,29988953441139
0,301453045890343
0,301689174672313
0,298575022237223
0,299441801599598
0,300863618940746
0,301682839329071
0,302450071580477
0,298469984257309
0,298293368667672
0,296724400878549
0,299175180266688
0,297903341170961
0,294573527235818
0,298969516722407
0,296828377239445
0,294733287190486
0,295492276932522
0,293786474989633
0,29800848357899
0,293630792719224
0,294051356450999
0,293240802861004
0,290682210025155
0,293022437257228
0,290906897569489
0,291280529146889
0,291072907409292
0,290986934853512
0,287851994807565
0,283522820836501
0,282409332135803
0,282864983734854
0,279930072748065
0,275631038161216
0,277026075387434
0,27278345171666
0,271870216812091
0,268173008976537
0,267530716380405
0,265469820357553
0,260252805581904
0,259982818261644
0,256389349338554
0,254777534180749
0,253291434369025
0,252981758504107
0,248330999707302
0,248999258131619
0,249866274076951
0,251097221462174
0,247085348419403
0,248014567437409
0,247959743559197
0,250220866836409
0,250905546079903
0,252575443062953
0,250475928144407
0,253236376069063
0,251910478000184
0,253541613810011
0,253144870950243
0,25314105708464
0,253561720623198
0,250030024559538
0,24885036055138
0,247751474973893
0,242830547931967
0,239519566832218
0,236320578302423
0,235511203302141
0,232294957508184
0,224458692719948
0,221680924181021
0,218276232887757
0,213728758495068
0,213489172484587
0,208114966670136
0,207086337378074
0,206593699218247
0,204394471240936
0,205882893996879
0,204740996110315
0,206130658839587
0,21060260799702
0,209398323259731
0,214629570894351
0,218762518152981
0,221206596899854
0,229484666891031
0,235632138531732
0,245431916085273
0,257118344899379
0,2617448860795
0,276539816124281
0,2852774868634
0,297173922804878
0,312981363128768
0,328619809235215
0,349627410790768
0,364424999609115
0,385577211669274
0,405022593337049
0,427745201615838
0,452693719664118
0,477098783314025
0,502080745586303
0,532043759624108
0,553026132941484
0,573011613848895
0,598952820543465
0,621844521814478
0,642098108756268
0,665855042579794
0,682294911534361
0,698969873054653
0,707675156797015
0,717677299556865
0,722257583158731
0,725705396884832
0,728019128566265
0,722378010597434
0,720507977730523
0,713420161236862
0,706415643467982
0,698910269607225
0,688069345054684
0,676079082692423
0,6651526712629
0,651713614937023
0,641702043800874
0,627567809185186
0,619983953770946
0,615200269415967
0,600999002142192
0,606101209736928
0,600061942274427
0,595162277322527
0,59892680904997
0,597096300158334
0,604555163703922
0,605462632330246
0,606154886811771
0,615224418891742
0,623659023570129
0,625875409802818
0,638607851703854
0,641848177761744
0,645702988298542
0,65771201924969
0,661063237964372
0,667306881553153
0,668050966111186
0,675429719369536
0,680487849535772
0,684737946996414
0,692613863180304
0,693072079670774
0,701642850763851
0,704796032253349
0,704854506292079
0,717909504406492
0,719972692685296
0,729934167847512
0,721973363777632
0,729662863166049
0,736074334186191
0,742357284251208
0,742963751715617
0,752408207826662
0,749595619760526
0,755639145847443
0,750636265826578
0,750581773686374
0,750165332541454
0,748085229553247
0,752353346463012
0,757030071968769
0,760767340799486
0,765007162682128
0,77223571118222
0,775157589766291
0,79457085727355
0,801806468535211
0,817698369672536
0,841957939584343
0,862803498771538
0,893870267417616
0,912488679748484
0,94404023035458
0,979320383753462
1,00031498610133
1,05065960873108
1,08398622426992
1,08402682578035
1,12313672226149
1,13522470264427
1,15250931645727
1,1364670177891
1,14538834947334
1,12362290676534
1,11909694636478
1,09295353661026
1,10637939082449
1,07063222368697
1,04908497308959
1,02356693459548
1,02033596231535
1,02085136291228
1,0040628514912
1,00713206093777
1,00977348871055
0,996843464470739
1,01384573537735
1,03124082724955
1,04062007498572
1,0445887268074
1,07553113228546
1,09487204926012
1,11099237431758
1,13816616309137
1,15769947360219
1,15892431754337
1,19365286826538
1,21347989982059
1,21580617608935
1,22052028382771
1,24727399938493
1,24949285249585
1,27709836680268
1,29357596344091
1,32947042261886
1,35741516377255
1,33888809700254
1,38175969780537
1,42000932186948
1,41537553226683
1,45439792870892
1,4930790100563
1,5310846340934
1,49929314009087
1,52989947284621
1,52955139134197
1,54855674857548
1,57994714044741
1,67244864726592
1,6812550717518
1,68392037630531
1,70782758487827
1,73221444592489
1,69302860000359
1,76195458100254
1,78856372521042
1,96375381074547
1,7917850069403
1,81370774167862
1,85335617895805
1,96470081732561
1,83062660562696
1,93625441691099
1,93516646118131
1,81893117888451
1,76395885466642
2,03776183551668
1,78880708390502
1,80347915240565
1,75431882440379
1,79910873767735
1,75504228725533
1,6845602429293
1,72263370378357
1,60950623832319
1,62528181825039
1,59940062858824
1,66099696635375
1,61264095728471
1,58681654452677
1,56673646751334
1,47805207904788
1,54443259216533
1,45548106228771
1,4963416852336
1,46773246997759
1,4630422868532
1,38660695314951
1,40326680643768
1,32680503864963
1,3560291558902
1,27198299431951
1,27520458017081
1,23906100975267
1,19381711140969
1,1548074878593
1,08309927368186
1,04689864569235
0,999515076054123
0,950020899212173
0,900716685163187
0,842885597383495
0,785732572848509
0,740508769971554
0,689869544151092
0,64452716486304
0,605860975491227
0,568218624026821
0,534876604521484
0,51597416248777
0,48136349526917
0,461928010599569
0,444054184784862
0,419240658696796
0,408687572925543
0,394597148026289
0,374700177273319
0,365336608410974
0,356906253298225
0,349788499405004
0,34473588155944
0,333592403396714
0,331906508295814
0,317306044324884
0,313432691286478
0,309614861218577
0,309134856216824
0,305489800820306
0,302101445271231
0,30083526132097
0,302146185812637
0,296792506146975
0,296514205132464
0,292641321322057
0,293344987641238
0,304088537686249
0,301393104404211
0,308788621032737
0,307533891141706
0,311580126060542
0,323778319717155
0,323768589906645
0,329660001354659
0,341983744286605
0,341744757298647
0,353736097378737
0,36321154382518
0,361442431354345
0,368558927106909
0,364820874706916
0,373142051850245
0,379076533343454
0,379461562954145
0,382742917532888
0,38129505350616
0,388686641400769
0,390987009849558
0,386588159251688
0,393326082546416
0,394891188681558
0,393484921121176
0,393851008732217
0,387352189014061
0,387519034223479
0,391917413122258
0,386354906525352
0,387191074471816
0,384294287768001
0,378375382280528
0,379340173340365
0,376339896769217
0,37559157603518
0,366962251643775
0,36685382439013
0,368762252066799
0,352009099422615
0,352104557031169
0,346534502602747
0,349396294052546
0,342331112443943
0,342142142788188
0,338302961559367
0,342069192680846
0,334363653971324
0,347767549603958
0,338109021742097
0,344198538894331
0,342844234451316
0,345430984624992
0,344176132344318
0,346288150828723
0,347604460932412
0,349780553837638
0,353254723184547
0,360803486694265
0,357830924386691
0,358165374117035
0,351765468458584
0,344112128975497
0,355427258885809
0,346156721446064
0,336954484178913
0,337178956184002
0,326861629297078
0,328950250903959
0,320236440238926
0,317409432871432
0,316939540038485
0,316928585054196
0,31411456860042
0,318086170134734
0,30836280988117
0,316515377887653
0,313977338963222
0,32420789738413
0,320167585831242
0,327996828887341
0,326505016902854
0,328972871465095
0,33384222103449
0,336852067473285
0,335938778059763
0,344289404288517
0,351108293125568
0,352489643093536
0,350870303870085
0,357908947550262
0,358219692326307
0,376173160083258
0,356841968184569
0,378105298734932
0,378871518180873
0,367451320934498
0,379666778071106
0,371719020167691
0,385529914996615
0,379106008575273
0,376350606443291
0,372242098982687
0,382030324186896
0,385746672505811
0,375969113920448
0,381628660851186
0,37637627701303
0,382628997014235
0,368788398720775
0,376359984839808
0,390402264212038
0,384079013504454
0,389328060498669
0,378951570482886
0,381918805303083
0,374328894456612
0,371551580463356
0,379547815024603
0,363580312984385
0,370037829710297
0,368406280274867
0,363830359224805
0,365845160143679
0,37218971497329
0,360480467978969
0,353464435505817
0,347241475500123
0,355485351098682
0,345034922151506
0,341765278410977
0,359823950248913
0,344363637463139
0,348341891499634
0,352104702674165
0,34070959581212
0,350711038198136
0,340578558192713
0,353967403619292
0,359956154963308
0,358601287699156
0,355490671373903
0,349758127529364
0,340346139053992
0,366053948740798
0,36646609877918
0,364800873948644
0,354002114767159
0,370574555444535
0,357143761075662
0,37441291612442
0,375398910820708
0,383587414409041
0,376643801207959
0,387850863465635
0,380169140930388
0,397126187441116
0,400536101633492
0,381965138649072
0,39827719602587
0,402285140585888
0,409028017795404
0,416792882633567
0,422850741151999
0,42116365123899
0,416992156995284
0,44167949036347
0,446106435531887
0,46132936662754
0,452418032688551
0,467490459355201
0,438918259489065
0,460001703961971
0,462458526041609
0,471514162327409
0,483408185749717
0,503806585364281
0,494991386898965
0,497040196481455
0,483534114741669
0,507401141608234
0,501261078468823
0,52395026953152
0,511166660465609
0,513960728749459
0,495641323616703
0,526375407449173
0,518983718711047
0,561395123576413
0,538382403988553
0,50946835567341
0,529877219785607
0,558885718156289
0,540812403593457
0,543978307667062
0,557775794141894
0,587110429768447
0,559312658479943
0,606131060793074
0,561931799885644
0,577037893089721
0,574799137318994
0,581463549422319
0,566076697443919
0,577306050575367
0,549775089389544
0,609941279028578
0,562991004070923
0,577282462765182
0,532061911079622
0,541019663118028
0,551621550268665
0,574220000354571
0,551102720963294
0,590452223060817
0,557320762996923
0,573885073704501
0,544061122924945
0,515876994923316
0,528168929257689
0,539241347582119
0,55065380780956
0,5750692764402
0,526898761012779
0,540942608216076
0,473337275194566
0,542866026382882
0,560306871736429
0,565079338805074
0,557708250131141
0,55527859517262
0,527501222036453
0,544293050725866
0,514523765667818
0,541349849523624
0,543976597928229
0,592962019627504
0,572745713394087
0,5896069997931
0,523810062144672
0,553380549600683
0,615625022772918
0,583507741336814
0,534744494581097
0,579651644419289
0,613204990648355
0,587891205773897
0,564921701819954
0,609490128790361
0,603543692411698
0,65518626540608
0,675094799151498
0,622370504033055
0,622243685682629
0,577371278503192
0,639301918161805
0,72022735098056
0,64282210834508
0,716802212641548
0,643832126014871
0,689057883246042
0,656632103688156
0,723795992600214
0,675817454540572
0,69996946129714
0,643813786055663
0,702248933559901
0,663421117481325
0,74105847703239
0,68383605536917
0,656593794187009
0,751696027637751
0,674611863171252
0,669490913013769
0,633861496473922
0,660685885065011
0,726235471364569
0,616477460418945
0,781336701451676
0,652910693716423
0,668126955843055
0,577190384651688
0,657803823025171
0,723140119696152
0,665062779976101
0,668441900125303
0,697774750833822
0,658100936875907
0,660309730850004
0,646855408354016
0,680150976823004
0,606196551012431
0,820287640525414
0,904787964253686
0,793584585281552
0,577465227791056
0,683259887075438
0,670939918427401
0,714575761614538
0,703605973469426
0,710946063606115
0,648208968090352
0,896796308502478
0,460591302321225
0,823611791108691
0,567227387672242
0,726460304640922
0,600795892738505
0,531138282871377
0,650628786695162
1,00174235203924
0,847652261404392
0,941955828439847
0,627275542974825
0,976060951854028
1,27950509826721
0,811853704349265
0,705706800024574
0,767188596831475
0,520519988149334
0,989749095743465
0,822322499911539
0,492465734780541
