3596
4000,36533379555
650,420452594757
1
2
2
0,0498060134409737
0,054136930250054
0,0504173613022607
0,0457091735705264
0,0498680438522024
0,0502575224077374
0,051975190372057
0,0551381028166344
0,0526107711079929
0,0519529436390704
0,0477778264677643
0,0493204521543765
0,0468819604395802
0,0561415258608537
0,0480054188775937
0,0493196162107002
0,0489634426729253
0,0495336306392958
0,0481132646517133
0,0542010458663526
0,0449823537948834
0,049313086636079
0,0528111919599661
0,0517116868688468
0,0459747432077841
0,0466033717498726
0,0458382141591725
0,0505042995344061
0,0523118836184192
0,054264545161794
0,0440967801713557
0,0545767005073638
0,0478255541884186
0,0516432065618647
0,0501750988837202
0,048485683903847
0,0441571446047324
0,0529849346854114
0,0500293948625874
0,0484132931085817
0,0436803330026559
0,0552479613658309
0,0488387405071407
0,0522274350250506
0,0515594569326229
0,0546881635791377
0,0553179674903675
0,0479355473791444
0,0450978714588167
0,0528751301033118
0,0488543329571362
0,0478321150414464
0,0503750472480243
0,0587097535373981
0,0521317550090626
0,0614129001421421
0,0583515464956363
0,05312738807944
0,0443705464732199
0,047643767375921
0,0580596603310664
0,0631094479275832
0,0532924036679105
0,0563684951963029
0,0501698051063632
0,0497467357550846
0,0478558388259362
0,0473307176190127
0,0426673114891426
0,0444874880909223
0,0324848405088206
0,0500609027478395
0,0544228628021497
0,057071857660952
0,0522240452261011
0,0588385805114247
0,0433546437992568
0,0493234511270402
0,0347237985850643
0,0540376460201095
0,0596983320285985
0,0588156805945809
0,0457516496804635
0,0413134879764865
0,0503710463809493
0,0757115820679687
0,0357609908341459
0,0465882416998316
0,0579353411555614
0,0567060454217301
0,0442022204474996
0,0446041918897546
0,0391178218989254
0,0531177075021469
0,0374221444649451
0,0483893656171145
0,0437920840650181
0,0479088043150319
0,0367317530232033
0,0606559688909302
0,0335263957564248
0,0590166365349474
0,0802263374903343
0,0437172546669139
0,0874996257365123
0,0582315380068035
0,0398125974397449
0,0733534937607495
0,0659961225097839
0,0609837307537421
0,0483559180416295
0,0546058539442386
0,0398928822761273
0,047493372091696
0,0265007826275622
0,0623727004248019
0,0756892844176717
0,0574417313686706
0,0437667357839679
0,0542867213569595
0,00889398337984657
0,056732509172017
0,0780657917051959
0,0569296603687356
0,0523331335423758
0,0506849756742386
0,0281697922188271
0,0786997787138148
0,0636900780918894
0,0510213217051335
0,0397462787956363
0,0536135916554863
0,0346649823471417
0,0385727986975933
0,0788721599651002
0,058922231244179
0,0431338419133468
0,029784401851686
0,0404824529155955
0,0963023322526245
0,0592257103026591
0,0501457528897741
0,0219758069481848
0,0437875608111277
0,0831537806809333
0,0621288209069544
0,0263594513602624
0,0630173855839137
0,0585714533633384
0,0481610370461069
0,0359646892648286
0,0460948367309472
0,0570240137667855
0,0559759125981746
-0,0122065315393609
0,0632466199894723
0,0829082762798857
0,0869607401064868
0,088117381087585
0,0620518173731044
0,054617651470418
0,0493511161409784
0,0453741245575726
0,0352648932543253
0,0452483536527946
0,0299992861636524
0,0437445358383556
0,0691033757972203
0,0440043801382421
0,0422882052295015
0,0721756303587947
0,0501547209819751
0,0159756538866723
0,10768587034987
0,0465555293190959
0,0406284288038099
0,0680442716426269
0,0728204059680952
0,0258215296229842
0,0468909114853513
0,0613416144623714
0,0473944522789181
0,0385709946364451
0,0417206211402224
0,0341492903947641
0,0574908494737149
0,0487156003415164
0,051583678457166
0,0425616248172143
0,0224791231232663
0,0283585646520156
0,0985164013500867
0,0725825078188732
0,0709550809994545
0,0430890155590086
0,00187088802240726
0,0712041519715488
0,0821420590357787
0,0513511173968155
0,0491102505126655
0,0428798038603706
0,0510282426022698
0,0354061057587606
0,0488354897550618
0,028295426875414
0,0175386357891015
0,0663324076922977
0,064756041917254
0,0487677022380926
0,0424504922589259
0,0445565585584501
0,0158779705669699
0,0779935756363706
0,0801067997820663
0,054930035742612
0,041639295590887
0,0207249011606465
0,0516802146624069
0,0530690199756014
0,0475401554885185
0,0457072796421218
0,0447333110380093
0,0520450188938033
0,0415110293778554
0,0393480692249316
0,048108064620499
0,0361517731120012
0,0457449118568338
0,0391515585367537
0,0383769481451672
0,0508801712998621
0,0576542316103207
0,0470705138794982
0,0557141745588435
0,022774690288649
0,0497235482348235
0,055657893481263
0,0501390853937456
0,042176634257755
0,0510879332989944
0,0442218784908292
0,0485241282926368
0,0360413576378711
0,0502757561504099
0,0343322914776698
0,0298491306143698
0,0620491720579226
0,0568945236407117
0,0524422581297327
0,023841768897471
0,0610401640134724
0,0605164555713578
0,0489810459793277
0,0397918614121398
0,04576973030716
0,0340284505871261
0,0322276096349592
0,0646546373561118
0,060878278949078
0,036766407185167
0,0644520760449051
0,0531682258224188
0,0554826750429489
0,0292170209300324
0,0170158006569514
0,121517500651824
0,0511757806538797
0,0247102416721911
0,106349205498077
0,0733221230841535
0,0659544269400877
0,0310825864066778
-0,00665442547258649
0,137384002215551
0,109655610808951
0,0544295310134723
0,0481466439380774
0,0678109412730145
0,0394086497879862
0,0538324021413771
0,0352584647175518
0,0601021440363685
0,0513622452451945
0,0877114284723515
0,0999068551415352
0,0329011371176523
0,0701317387430862
0,0731461784442215
0,0624462749045361
0,0487316704162094
0,0462688725361114
0,0313264618117781
0,0614605430564164
0,0648287305371317
0,07060113435642
0,0430022401419434
0,0509387539593999
0,0754657091945441
0,0556726841331684
0,0393292408567046
0,0600900496301357
0,0659131595139142
0,0530012335681947
0,0468766214623036
0,0514765741557247
0,0675465901664885
0,0374964295042202
0,0341780979464677
0,0990659195879161
0,0616144268933257
0,0492142129570257
0,0851731312805706
0,0642373318743271
0,0523815774642695
0,0564163968330405
0,0531130105912102
0,0478941625662876
0,0448089047183231
0,0321424010742209
0,0756579752946708
0,0621568913041727
0,0577697789940723
0,0484455546232656
0,0553345621686861
0,0440247985837708
0,0601566317500221
0,0485960418826891
0,0584798305170973
0,0585881188356096
0,0413519739048389
0,0641877820707807
0,0872544889308142
0,0308364955867721
0,102698081196509
0,0916193154012778
0,0733743656924509
0,0548510501761934
0,0572539121401884
0,0637032432512271
0,0657163392846291
0,0588237734760427
0,0577362500761599
0,0564051598923662
0,081216391937584
0,0698472597087706
0,0544657161632619
0,0483113179420251
0,108610031023533
0,119411797592296
0,102216902552091
0,0699104485574031
0,030678084745061
0,0969204107196773
0,0857522106104065
0,105606477934053
0,096816899667863
0,0748910940900436
0,0826235314427354
0,0785360528388079
0,0809700751482732
0,0731814435530378
0,0865065790798763
0,0756352171358994
0,0867046504201223
0,0777653533150303
0,0977321119158882
0,0723400926945642
0,0899475224964554
0,118648754933626
0,103252495200575
0,0939656384092736
0,100967791658387
0,0723621324238766
0,119715321421881
0,094323599012843
0,149616958254243
0,100500792840701
0,141678219547525
0,130557347438501
0,118787928885059
0,1085718504508
0,11274162544446
0,109754994162071
0,120009633307781
0,116975878852655
0,124933610787203
0,110854876635546
0,125639921525312
0,118466323128447
0,129394042511703
0,11689214174536
0,120484380519565
0,145685052320984
0,136312649364414
0,136129180610193
0,124058088502436
0,12333565744173
0,176237194863566
0,20438427054819
0,147639398318519
0,150862371972495
0,141758371160594
0,146056940917351
0,150522226260662
0,154569583644814
0,159277730469148
0,145109677800582
0,193462324093737
0,172217523509615
0,196556181493882
0,170391333736473
0,158917966949547
0,185469674600499
0,177002989842272
0,170069365446233
0,203518094370787
0,191072310142411
0,16301949623193
0,202678921797603
0,184988114795608
0,19357424133313
0,21469473385819
0,195960609278506
0,198192147523883
0,191304914081304
0,200655128083312
0,196222591735539
0,220586810218775
0,201245638683895
0,219629200287061
0,209156699729609
0,218625947663386
0,200643636648059
0,248584842012905
0,218527217271916
0,236088263977309
0,228695584747092
0,232368253926125
0,227110203351495
0,211611724144391
0,262344037973589
0,246367543959349
0,257034751957374
0,282586938440484
0,247436531657287
0,246273816083028
0,252064428828248
0,254872663581642
0,245560075696813
0,270768845190178
0,257619221869963
0,267167049814156
0,26247318045757
0,285177423207686
0,268740284781781
0,305241961462178
0,280589070509726
0,285671651213765
0,277864540584568
0,291272810935713
0,297732273008838
0,278405105488144
0,315347052222576
0,333905134877387
0,332603001223785
0,346613813225337
0,321818378988938
0,323847863703099
0,315501967668025
0,325570751642688
0,303095580561779
0,338146530623773
0,320219886878246
0,350080752336197
0,32820108210847
0,341093860829043
0,326172580749158
0,347207354472388
0,345002080417208
0,369703260873082
0,361508261103321
0,37817001985237
0,355831854958895
0,374097001744665
0,365935070204429
0,388669164670981
0,36404007396564
0,408862642535104
0,3740462450344
0,4039112661309
0,372136124222206
0,396615225152231
0,400953831625694
0,426547512219201
0,396152366895925
0,411880125848348
0,41616266485998
0,43239822751405
0,415913690151812
0,445507153207905
0,415880285195809
0,455658782668598
0,417898751664157
0,46309026961617
0,446387785816108
0,463456057221002
0,447681972763516
0,463534885279953
0,432005541702358
0,467944868187873
0,444999204699921
0,472983458303161
0,462636276024593
0,481327826929563
0,472876546911802
0,495103113670319
0,474641425971874
0,515323647990765
0,504506649388277
0,51325485264395
0,487015235238475
0,529975366514237
0,507908833511922
0,531901265764101
0,501715264817655
0,55386479055409
0,528864817661048
0,538648719872569
0,528876692089712
0,568019498841828
0,512145553637995
0,554926840339132
0,537599791335921
0,589416167215317
0,572445335475891
0,575312100866244
0,546948951312383
0,5897308109013
0,536779868055151
0,617158557469738
0,580201535415878
0,601953671687807
0,593212196076659
0,616553741070132
0,582311759430056
0,634127242782372
0,566762753391119
0,622325229762046
0,609120902923109
0,658608722504393
0,611986561668845
0,641816927357164
0,616279007023281
0,625850333195466
0,626430204526495
0,702645364995859
0,616850233982267
0,636818890222219
0,645075235862386
0,65146520707026
0,646157443600753
0,675455021366684
0,642196418241391
0,668878073287401
0,646140617397507
0,701775619560277
0,667416253499113
0,709216575281768
0,66942935259632
0,708762769593289
0,690070401179711
0,743098983682236
0,713852474277106
0,725502752696313
0,70510492725126
0,74569020381389
0,711150714118541
0,752675625469898
0,729738076112957
0,780102819921504
0,714614634398995
0,767111886923997
0,754119475612153
0,777246322778219
0,741764837291631
0,800734231129752
0,728757985652804
0,810973792328384
0,751925699896349
0,808339651298622
0,749177179181451
0,795142353517517
0,771473931231939
0,868629180776343
0,752994657602082
0,84373953499393
0,797959358169806
0,831060159019774
0,757357285122591
0,83140301507087
0,820308904626145
0,841629505717425
0,777049338152648
0,854496565501777
0,782553162841486
0,850317903513002
0,818722280709826
0,881535886945974
0,823951498041617
0,855191335707874
0,837516954846366
0,920751050188927
0,85079675790345
0,935940148180404
0,852802484686128
0,884998169302726
0,857796515870636
0,885602641439043
0,864610350198932
0,9745135834432
0,868705725201422
0,934731499642987
0,876784500395288
0,954897876049555
0,884719939492378
0,942152501079937
0,860743711442965
0,901061991630757
0,90104218141502
0,952863653606688
0,909077387798362
0,941122125448926
0,915543026995583
0,982679119000402
0,916515763644504
0,988017654317754
0,913253710700214
1,0024539545112
0,909967874186876
0,989778852329549
0,915772640515193
0,987781943623655
0,920391569727586
0,980920227512421
0,95132712116025
0,983165669857106
0,974096748318174
1,06214735736612
0,980634752453186
1,00484304533941
0,919267582789219
1,01846523609486
0,97415976444367
1,05522628354225
0,975447206072936
1,12992222859035
0,932318423725032
1,07718865216284
0,97456457560812
1,00626527736641
1,009835132724
1,02752611815558
0,983262296355504
1,05299425593293
0,945945478408426
1,10763183003048
0,99226881204155
1,05749962695093
1,01819357324606
1,09616660163695
1,03247347876231
1,04845248081144
0,999779255736189
1,09230388028812
0,986908185990624
1,06923622637762
0,971489438132271
1,12722975382312
1,02591362001414
1,14371184754854
1,02531635601678
1,14065313919262
1,09693012974847
1,07532230140191
1,0491457823617
1,10540181435171
1,03645195003375
1,14825686332567
1,04873087978988
1,12888096436297
1,0547323685103
1,11256289230803
1,06028345900412
1,07873939590195
1,02257618931443
1,11662169279284
1,02468216449013
1,18068290165456
1,04161649854087
1,14541149341397
1,06557382497647
1,14455865408179
1,05095877462958
1,20053440319376
1,04062923941704
1,12473459270935
1,06834229238568
1,18745041925493
1,02397798311532
1,12750755322099
1,10589596645754
1,18602818469811
1,10403884758138
1,16429244829516
1,09367476583334
1,14230609473686
1,07830724408566
1,11420032588082
1,05271805955871
1,17126207228327
1,05495961267197
1,1773324201959
1,11296180247829
1,15703225582847
1,08801274059943
1,13680153675908
1,10299095690732
1,13778721351581
1,05142345650368
1,16723838858289
1,10224192184707
1,14538370203756
1,06213824167403
1,10359373432951
1,07994048306785
1,18248615248586
1,09547425958715
1,1841744315102
1,10254129808104
1,15185589680563
1,05267784690377
1,19958275214405
1,12647974833859
1,14838861865518
1,03767159305272
1,13258357037841
1,1166939248304
1,14806252331786
1,07603836615848
1,15264497910819
1,05064888116619
1,15028043576489
1,1054731347708
1,17563948070914
1,10968620794827
1,12071109276095
1,10387170373055
1,18584387184898
1,11980236166982
1,18916885612885
1,07129228624297
1,18112583933134
1,07712807083046
1,20682998167685
1,16995362676556
1,11819364596082
1,05745607217203
1,19952925712644
1,07716054445072
1,12591220771196
1,15295263081794
1,16314531654358
1,0994226166821
1,16117712012558
1,07271288933762
1,16634307510847
1,06462223154544
1,15102523162194
1,07857559974581
1,2053080482225
1,09177691439359
1,19053953600398
1,07236590263615
1,14872622651057
1,04849168096977
1,1563933029286
1,09855112429271
1,14468214889827
1,07965921796873
1,12641134621928
1,11275600115097
1,17712111847889
1,05284846974812
1,12581451431384
1,05145495226984
1,13914545962296
1,05304405757265
1,15913351059493
1,0763896201518
1,16684139293623
1,03885251856618
1,12960831482769
1,05100511875518
1,05906504334198
1,05451097470659
1,15956370171777
1,02981991994226
1,10454563389158
1,05005754125364
1,08490303936159
1,06414485684389
1,11780287091969
1,05145088587186
1,14216977957257
1,02705160861011
1,14165501703653
1,03256912877735
1,16693807396858
1,04325859106031
1,08563423500504
1,06606141878023
1,08396027317204
1,02586185414986
1,11370749425002
1,03338214561275
1,08727829945266
1,03371944185899
1,09162685109164
1,01609879527638
1,10811873013947
1,01227815479193
1,06546478216741
1,00512218251141
1,0131374108722
1,03527615274641
1,1035162136513
1,01036180697948
1,05677572098038
1,03677360012138
1,04734377733331
1,01173728506397
1,04600966779412
1,0032461926374
1,05236799697174
0,987468178507815
1,02780722705655
1,03579740522465
1,0263627051659
0,988897911492049
1,00494463921033
0,957701693006018
1,00239486699229
0,957314955457915
1,00119502504357
0,971353684406893
0,991943240139202
0,924300812848862
0,999925138737595
0,921325429046069
0,990919531459203
0,947884513069013
1,01032332734148
0,951908673429403
1,00674176915244
0,930417494729488
0,967989795318518
0,938949910850071
0,980307033850585
0,934321305056535
0,945459695264698
0,919732056748576
0,982409387612544
0,912465573550271
0,916838773310642
0,913535353927493
0,948479340423863
0,892454498246171
0,907516655930827
0,873895489594379
0,931566908380528
0,882492054564576
0,931203587503368
0,882879633451284
0,902727015149162
0,860441597822248
0,910753522411583
0,869257757529081
0,888323878943427
0,873832026306133
0,892687800550045
0,848071159809632
0,866025768613326
0,860474400151489
0,884320846984642
0,829814692845684
0,861736072953042
0,852223051552171
0,864146883516943
0,79670707492438
0,859657557031574
0,810367278011482
0,840250596377881
0,800974968293561
0,835035792229167
0,82793720981746
0,832411247942708
0,778926187269337
0,804468308853357
0,778289660499586
0,831723854964989
0,782915802655009
0,807295667417603
0,772247583279442
0,789118379464996
0,76684979716641
0,789665477022423
0,757531449267155
0,786274543062712
0,761541237397346
0,761908158056482
0,751672666343029
0,770174309437238
0,735300192219785
0,771364064400341
0,736534030247307
0,758798659992941
0,727213972351702
0,757880017705721
0,725734037659705
0,754571236712083
0,721803821878156
0,731484923225994
0,699388384494728
0,720773206190782
0,708199021995567
0,719159423720659
0,698046067586337
0,709596642134689
0,701327748350726
0,70920405492951
0,689278336229453
0,709533877193682
0,682140090438092
0,698866066860146
0,671321080752891
0,681812220470534
0,66854601858922
0,674931446278134
0,659974859666951
0,677517703016737
0,637226756723402
0,671547044595775
0,644509278916443
0,657314564928535
0,632428007704061
0,667172152845994
0,630259235613761
0,656085224201807
0,640083146393548
0,654043271823651
0,63320340885865
0,630807210833703
0,622420541462463
0,641418746371034
0,593584672473652
0,637570210360227
0,60344918882793
0,620324107350204
0,595174322180667
0,63535236724158
0,599554284448039
0,607724770051412
0,572223073982799
0,598072452056504
0,587010654917973
0,609011924778598
0,58243874008753
0,595281642031625
0,566101813564221
0,581230903193218
0,569231828633405
0,583906188171507
0,555846668031995
0,571793904144928
0,558585144589019
0,571021304670402
0,554594091358311
0,55839545925917
0,549996874234994
0,555956709612618
0,541906309546945
0,565123840013827
0,542720444279241
0,55037939087593
0,532930931859323
0,543811492754013
0,525094877154649
0,535185649236697
0,522334582580458
0,539445566002349
0,521084510437793
0,525670653940377
0,506665953678557
0,531732378135449
0,505550463581055
0,521208619871253
0,49872760617271
0,508580839959268
0,496581690525081
0,511738788334032
0,489236141763685
0,506509838716622
0,49386433213991
0,497304134712837
0,480917695339463
0,497422232045107
0,485725639797765
0,485562082178834
0,467586149384225
0,491484449911641
0,466648928286898
0,475184085243957
0,467308049682692
0,484519553870866
0,457887622111828
0,467501683258391
0,456755834847624
0,477090900366806
0,457900127127294
0,462347119110627
0,449243571354242
0,455216239316561
0,442672685800888
0,449817589443684
0,442573569375946
0,441999926055168
0,443182347611369
0,44362158933391
0,427642142829188
0,440656852425806
0,427198351783094
0,432822372779736
0,416320489265067
0,436376828233109
0,419107802305938
0,423533080946829
0,406383707167815
0,422594985754878
0,406513896581478
0,415103751486673
0,412330170344295
0,413624326640805
0,40458366961154
0,415508508271062
0,390305923498477
0,409573463615792
0,398947888824829
0,40336837572504
0,388516902731066
0,405799470902658
0,390957998039631
0,398372378155351
0,387480527681882
0,400938996567676
0,381688034054262
0,394746186153285
0,386436586007172
0,390387450545549
0,388112746401022
0,393770013658393
0,385085049150473
0,39323748483716
0,377617836751775
0,383777585373311
0,374946620898009
0,382767814266503
0,367238664407723
0,385750668882442
0,372696107087168
0,379753014045565
0,376863376609941
0,39176828463648
0,373480233577348
0,386819431930406
0,369388740564338
0,387905010309387
0,380187396278903
0,379759428048077
0,367537090777939
0,383466094766357
0,379633385810242
0,385509168613879
0,376212556909791
0,383485400833228
0,378514441507674
0,384167603118698
0,386450756808963
0,391976901255386
0,379502127732012
0,392347132408281
0,379905780148959
0,38946936203447
0,38625949602453
0,398146405549901
0,386392535470403
0,396605325830943
0,39598617153005
0,399677337886714
0,387745662186044
0,395385699779228
0,394994345678912
0,41007978202277
0,395030527477988
0,407119434834274
0,399219402903903
0,40797323200529
0,401396593110543
0,421489568761277
0,407714782206919
0,416100494796144
0,40605139577751
0,422197037851501
0,409669295571683
0,431107967810118
0,417379863797644
0,444101078126647
0,419608462461736
0,435209828907105
0,43818710658308
0,449027454951631
0,440957820781182
0,451292615364911
0,44201793271525
0,460189442151233
0,450751585559064
0,453466424758975
0,454713620176807
0,472455510644753
0,46641379604961
0,47504581538708
0,465576716063649
0,476425577259341
0,472234403752631
0,491610505553312
0,472658818446094
0,495030074853244
0,477690477004382
0,488517007284321
0,47251510473389
0,503863540596956
0,47747622786396
0,501852646454013
0,481180147928664
0,495415240606025
0,477292012559419
0,495575224351622
0,484525955880584
0,492466644956823
0,479201291968917
0,501432493848912
0,479814798133845
0,490495469249866
0,48050305526853
0,500094509517242
0,478093965868529
0,495454174391626
0,481744740145589
0,491369262317806
0,477285769879265
0,495405722845605
0,484156467490822
0,50026222860126
0,473055219648726
0,488537086985161
0,478340217156491
0,484410174807205
0,477903610530453
0,489583520729034
0,477075508680373
0,497669887291278
0,480293734490217
0,49576659071928
0,483816572413628
0,492811727769508
0,482767085698516
0,494949157109001
0,480081466996038
0,501202466874286
0,487833239637377
0,493055426136281
0,480616206347678
0,491277189707578
0,49211908039648
0,510728883606201
0,482884753970619
0,484375700785271
0,486440248795394
0,499163019023787
0,475755189866816
0,495234218416596
0,485325645819161
0,493365011693735
0,48696073735925
0,488068858585326
0,478626686728891
0,492617244125764
0,485766947692345
0,487236893358619
0,472800679779699
0,48632141260575
0,466528434050018
0,479451798314731
0,46333546621246
0,466394965485556
0,455006248770819
0,469949134304494
0,455291617206508
0,457271738117831
0,451380417480231
0,452804507575169
0,443125893947275
0,453206716397433
0,434039357761063
0,440746387371363
0,432832717030465
0,433835413723495
0,425909842146598
0,433954722482379
0,420916790161433
0,432630882211834
0,411874888016958
0,41708132645232
0,406546056737945
0,41813937763777
0,408200220566112
0,413068761247066
0,40353563173313
0,402389757810213
0,394350054071203
0,406510538547664
0,386333731700501
0,39366398740322
0,383218808849263
0,392708044753474
0,375968747143839
0,38680257484254
0,373673976614694
0,383974420283699
0,371839542965354
0,380973143604789
0,369849037824355
0,369355025233275
0,361211068580366
0,366853934279515
0,360681346802236
0,366066390846576
0,35597653329464
0,362496145730158
0,356190879236299
0,362624180412036
0,351623050507271
0,35795369246704
0,343905452589926
0,353151152576432
0,340318007159353
0,348145153885514
0,335524442701787
0,349216825337257
0,331912005446733
0,344489949761096
0,329917250977715
0,338976464947325
0,327494650330666
0,335333805593526
0,322928890389728
0,340391539929623
0,326956001185465
0,332822307201372
0,320940038426399
0,331012555225969
0,322692316695259
0,326221329436161
0,316819901424676
0,32208129004959
0,31191887500818
0,316052559303119
0,312256101554382
0,315558043282257
0,316203803203763
0,317196065303839
0,305886265892265
0,316530504406871
0,304814433979691
0,30988923422271
0,299338256666405
0,310380774028688
0,302496637762272
0,308226324217256
0,298749158719826
0,302225172384322
0,297747656825841
0,306075363864847
0,295184912197409
0,300010431336476
0,293139809894028
0,302547193453423
0,287320376489869
0,299016271451296
0,291097990360781
0,301061594769867
0,290983276868942
0,292100944170889
0,284388729233117
0,290883346420739
0,283654930837271
0,289617727314602
0,285784994955727
0,289376571613293
0,280872015299469
0,286735147889847
0,278465508391136
0,286226483701617
0,280039509426395
0,283405026202865
0,278001508874827
0,28067673696027
0,27370961434722
0,285094444828781
0,273815978126749
0,276086626075833
0,269598067846458
0,281329556972185
0,270321884307743
0,278972465559329
0,269378951463467
0,275356791630461
0,270635651419042
0,274061267815279
0,261724172427503
0,277023034009866
0,270626557692699
0,274711244339112
0,266119519863239
0,269070600332101
0,262578853399175
0,272084619679298
0,25707401727999
0,265099171500381
0,257517519450676
0,265711029006224
0,259656397881332
0,263391733908072
0,259573486631111
0,268139463454847
0,259470724720108
0,266531981651124
0,256419097072753
0,265192141764641
0,25548274388213
0,264400778166396
0,258802855144408
0,26295092758055
0,250781372485461
0,257319261499914
0,251695062533642
0,264052514454077
0,253279236146169
0,252362758267851
0,254154476237238
0,25691855034674
0,2532858880268
0,25666400610255
0,251498653823833
0,258863903806065
0,25436248125747
0,254905108787482
0,249623042729147
0,257484730252599
0,248041434141828
0,249330206871422
0,247977055690821
0,254471695876513
0,246702884975233
0,250738617259768
0,242474490152329
0,248768552446637
0,245434325127287
0,252112394067042
0,242660377632599
0,245914356188284
0,237897587127528
0,245298636327429
0,239458031214286
0,249690483441907
0,238386404097215
0,241687925451393
0,240748134012925
0,241767442569422
0,232784677292233
0,242041227682867
0,233858123571662
0,238990397613697
0,231572196952908
0,233642839644058
0,234292943144593
0,237167898734826
0,229007496428433
0,233629543808824
0,231204025971135
0,232527405447619
0,225772044526876
0,229794883923609
0,22767250155606
0,230333008603576
0,225881615444978
0,229548513518257
0,226529159247974
0,229913066819798
0,219107014009554
0,223725022061977
0,217271321879559
0,223515883945814
0,21572407012625
0,225833560445139
0,220890333396504
0,224591966774601
0,217016939241819
0,221655640266958
0,215909925383124
0,218570027990075
0,213445268880807
0,221557702717628
0,210862495849697
0,218841011314556
0,210025965774348
0,217971114477024
0,214072102118214
0,212334570365038
0,20701343845621
0,211996659920395
0,20211895937055
0,210654957548916
0,203006326592288
0,208138426160068
0,205383773236596
0,207597061520419
0,201802420235721
0,202990716143528
0,201730178530943
0,20220319020836
0,194920306265593
0,202862067495274
0,191854830670308
0,199952927675636
0,201691377788742
0,195535658935857
0,192509408961174
0,194384320889206
0,189223815325971
0,196855369023748
0,186129787465276
0,192343085545181
0,186268115218929
0,190639410929041
0,185018361438724
0,191689317405409
0,183147438354989
0,188060725885246
0,182826050852107
0,187456558686255
0,180706380950912
0,185003521535141
0,176478155242254
0,180811596412105
0,176033226234156
0,184118399655287
0,17776343164715
0,179184552996123
0,170850263950852
0,17801058673802
0,171095028293664
0,177809509982107
0,173828058985593
0,173915858096439
0,171539319249419
0,17671518219954
0,168356728646307
0,176020731232233
0,166605731091466
0,172173460795473
0,168189444981007
0,172590304116658
0,167490379967885
0,16956698353759
0,16730399663676
0,169023460437201
0,162023539762665
0,166926810541529
0,166187418064354
0,167054363556386
0,160816491962661
0,165032390399982
0,159599401308168
0,167864827091037
0,161851924794537
0,161627329594986
0,154296028054219
0,162507266523913
0,156462007674926
0,159130438166904
0,15585413922909
0,160022767986736
0,156432271863588
0,157254711681752
0,154628709995952
0,162230126949782
0,155515335623678
0,156442584339015
0,153317945040473
0,154276829923274
0,150962847816372
0,156011447258656
0,147225757839056
0,154272958572381
0,150510670401722
0,154319648070957
0,149220497178715
0,152592800733127
0,149138758500489
0,151354955975968
0,143337587772281
0,149139595340627
0,145751942784844
0,149332049643793
0,145304997457013
0,149217226014189
0,143814828812181
0,150617136522855
0,141872809662096
0,149747782348975
0,144089600917252
0,146721187488307
0,141703824780143
0,146888896300326
0,142231129466392
0,147456841674266
0,146675198758694
0,147193882750865
0,139009677089196
0,145214081755026
0,140186719512036
0,143454941811886
0,138523151973202
0,145962163822612
0,141547018777306
0,144624191157183
0,137299415948308
0,144561914066185
0,139023789559196
0,142606824413803
0,135215298215014
0,139664180643186
0,134757514100981
0,143025492141898
0,136773679075631
0,141965028087063
0,13568507837071
0,140683883437204
0,135246103446265
0,141045560997649
0,134310034146501
0,140243631157869
0,135990770105383
0,138716391063084
0,131866767582796
0,139700017301338
0,131785301586294
0,133892092162651
0,130591039792754
0,134374440992397
0,130694287352785
0,134633433746617
0,13314412181683
0,137670709281161
0,129126589970408
0,132060027442324
0,127018374167027
0,134224504487207
0,126863889800789
0,131796190442728
0,128263244996139
0,132189649774989
0,126720927864932
0,132214423443135
0,128048926583199
0,128879746954746
0,125547341495884
0,126370775670793
0,124839519315956
0,127786936424482
0,12564301126944
0,130016733524058
0,124944183511241
0,124409225976083
0,125279689534758
0,128067386650674
0,120641545344909
0,12889126868304
0,124151786551758
0,123317940946065
0,120826102119781
0,128559298453575
0,120256342901358
0,125850833475322
0,123688271858158
0,124481940298432
0,122278811829551
0,126916557940265
0,121053910231428
0,122723933802875
0,120455822885716
0,125096296746293
0,119276449377349
0,124098221357631
0,117338420742988
0,123004157308987
0,116713667710029
0,122922636073032
0,115306318024639
0,119891396659313
0,115549384551012
0,117430062195591
0,114762416444215
0,117308538157019
0,114033096393394
0,119005043321895
0,112241094236202
0,11768502414099
0,111103819104975
0,113195600950661
0,112066430048481
0,114346076048321
0,108953222938602
0,115056560695255
0,108614590571023
0,11443574895877
0,10939742142009
0,114252974736335
0,105675052529077
0,108595901515934
0,106225035189946
0,110008323994064
0,106034258132084
0,107549853656304
0,103461763930802
0,109447827176801
0,103622142734105
0,107769950041178
0,104307383001267
0,10827005498136
0,104856388169539
0,10720545220316
0,10176223428943
0,10669968463381
0,0983604715313519
0,105977745778272
0,0988394872134421
0,102798978827018
0,103022029740437
0,102333387340425
0,0982195958300811
0,104685352104436
0,0982231619254735
0,103244340593632
0,0951007730446024
0,100392735190316
0,0938936815342458
0,101585935905509
0,0980668654128032
0,101729871176786
0,0976197315789146
0,103209435462507
0,0940051695293676
0,0985955784972143
0,0942544200466699
0,100305273991038
0,0952660592236819
0,0969411761722314
0,0954327521081887
0,0986993007645384
0,0912122643634095
0,0951483496000128
0,0898267663541949
0,0946251067010347
0,0932428294150631
0,0943960393637465
0,0898588878853547
0,0918031057328799
0,0892213169281053
0,092964354914683
0,0883123992859673
0,0924573460587689
0,0913551697545648
0,0915611092120196
0,0872727960140078
0,0935928391128954
0,0861850359128961
0,0902237838305939
0,0833634316209234
0,0894632832307334
0,0857217285457412
0,0872872709597567
0,0836650588617789
0,0894551980276288
0,0845588102581979
0,086875636686806
0,0837972425321717
0,0870469427203925
0,0843766216330157
0,0877529602011942
0,0833805551876686
0,0851764786122026
0,0804929417808105
0,0882468205983729
0,0807431542145855
0,0860890263447823
0,0813826486431926
0,0840170839394321
0,0799837162315987
0,0828335814300048
0,081689724200123
0,0853054114097565
0,0805792336866558
0,0853104026509523
0,080402438608611
0,0846214191487905
0,0805565134858299
0,0887113683274239
0,0825513746279425
0,0855485767719409
0,075632140883377
0,0834851574206876
0,0808558618049468
0,0886487986790546
0,0825893376716774
0,0882924805845247
0,0828857674696011
0,0885794018674549
0,0760967785822875
0,0773783634629145
0,0677202578988931
0,0770971891143052
0,0798247733784847
0,0869305319206296
0,0707269262023443
0,0758424510053803
0,075657260691773
0,0864455392486951
0,0666812531819177
0,0865097018356299
0,0750113556367577
0,0799077204377978
0,0774556341214545
0,0821640790320849
0,0667859181520372
0,0802346463862629
0,0714834438274234
0,0861935351093797
0,0756029529651334
0,0854187267937908
0,0788948734396953
0,083455582840917
0,069758284214081
0,0818881729044192
0,0683691417269119
0,0798940445222887
0,0669324209817555
0,0769493984033725
0,0655364799305307
0,0805835863623727
0,06627800058394
0,0852754877775737
0,0653314802390601
0,08284623048286
0,0693368734919474
0,0857614880707858
0,0652847345793253
0,0781969027486879
0,059487989851245
0,080163360877589
0,0667756337590271
0,090226787583527
0,0666221912075595
0,080752578196538
0,0573248657591378
0,08290057247291
0,0722182230416633
0,0843492895329078
0,0633871812274989
0,0792879714944278
0,0779500135960902
0,080490365248218
0,0753648826563473
0,0710662746851974
0,0836989063815288
0,0719374455770865
0,0809602540398425
0,0690693444210036
0,087197468079938
0,0629760206612212
0,0857336624980909
0,0687843890072291
0,0769936454729084
0,0724641890192331
0,075687897520148
0,0742036684274183
0,0737259455837185
0,0776228525523483
0,0713849234622833
0,0775823707971531
0,0719277649038952
0,0754286394481015
0,0721553013372181
0,0732297759753366
0,0756499988915275
0,0721814382656522
0,0728796674151603
0,0722058937838532
0,0732589955088633
0,0731691851017589
0,0715627318201601
0,0753016817816488
0,0705285041123665
0,0722457501847258
0,0723491526000258
0,071210793681514
0,0712905482831839
0,0721468682164896
0,0698452389288456
0,0730577476085536
0,0729405840912167
0,0729996283956195
0,0702874238816723
0,0731292765331062
0,0699339393759116
0,0701450685612947
0,0707242626869116
0,0714048464980752
0,0703625883558129
0,0749688741384726
0,0726737425075153
0,0732847255862729
0,0718533721137535
0,0734931452026616
0,0724800890077765
0,0733673065885898
0,0710222758165442
0,0717643252195685
0,0708562940018045
0,0730380747666138
0,0718094754278114
0,0745929862208366
0,0733984361851926
0,0729603087971305
0,0715334113800947
0,0734103523566288
0,0713587825130417
0,0722595358239559
0,0733989391523837
0,072906976878236
0,0723619379831442
0,0733385687732565
0,0726483430158687
0,0735378208845728
0,0724259230460042
0,0714413367579925
0,0710479250160061
0,0750672556077676
0,0729819230607677
0,073865082074347
0,0716239324727759
0,0748503806200373
0,0713825566552146
0,0758759057382049
0,0713846757138842
0,0725154327427957
0,0699652074930654
0,0738864653999976
0,0736752291298012
0,0744554670727577
0,0723720529744147
0,07524275121237
0,0716400731715991
0,0732297164026255
0,0728967662004467
0,0725816510128436
0,0717277628454129
0,0729336864123428
0,0711276504346542
0,0743301223152094
0,072877719519714
0,0764329286822588
0,0729452782831252
0,0741478945678732
0,0725714207087907
0,0759953268350897
0,0746617399412925
0,0736979397776829
0,0730797214196212
0,075636743800133
0,0714378276231534
0,0736443147959615
0,0736545226403607
0,0749439303508755
0,0748377056853399
0,0739986429705859
0,0742698605697914
0,0744772151492779
0,073018984262248
0,0750140543616485
0,0724952608327929
0,077400689453891
0,073624723006594
0,0753424724149971
0,0756244650675354
0,0764707385606326
0,0752030772419013
0,0792303761083673
0,0739568981638345
0,0759001192394076
0,0744123366956635
0,0745648247797663
0,0750842718808859
0,0757498204816522
0,0761013905973267
0,0788089865176699
0,0742623846212177
0,0783317124898837
0,0751876312645018
0,0771383558337933
0,0772237203032416
0,0763791955449891
0,0780955695606133
0,0772921564780807
0,0753469471576954
0,0766306599285617
0,0747563351772052
0,0789531935253119
0,0765482996057957
0,0771811626519709
0,0765823469118151
0,0771371417649382
0,076203177012648
0,0787403015467523
0,0739197188252606
0,0791737761834925
0,0773475587904158
0,0785849023497837
0,0772734117582627
0,0780580174986611
0,0784692280602403
0,0778738565263227
0,0778817382323315
0,0792717038998131
0,0742950971495382
0,078821557946128
0,0774160051740129
0,0795035227878523
0,0783843274577745
0,0804384885324095
0,0780251842923622
0,0815138906585561
0,079132252841697
0,0797239957365565
0,0789668501827721
0,0801897200396057
0,0791406983902392
0,0809297534181752
0,0809596507008598
0,0824462507715001
0,0797749596132619
0,0821160362892227
0,0783177526788773
0,0819864644280286
0,0788047932604439
0,0782125182437984
0,0794718861064063
0,0839165438158354
0,0798527945485566
0,0837774490810595
0,0795797783226977
0,0795949149463161
0,0798948312186596
0,0812126748262212
0,0771280009649255
0,081714840575653
0,0800345342290536
0,0811209864953518
0,0783119632642194
0,0816967920844952
0,0788825504668226
0,0794881953556115
0,0765699539812786
0,0786736909829967
0,074912990900378
0,0775016010631707
0,0772683611721677
0,0784721540906241
0,0769079008964229
0,0781203075687272
0,0761175683355073
0,0772888799132957
0,0745598145743598
0,0773241685190176
0,0747398854791075
0,0762483885500702
0,0751783394312696
0,0778973326379192
0,0761160069972818
0,0775154702428813
0,0761494903018865
0,0762809359028968
0,0740651524933655
0,0773788126538317
0,0754908480260581
0,0779456288114278
0,0748287124449546
0,0764263433984646
0,073087583020893
0,0764748936302504
0,076849916228436
0,0753743997043744
0,0748969205382374
0,0774801042564329
0,0735536150587007
0,0779954699499908
0,0740283302803761
0,0768787133016041
0,0752488532697384
0,0760845166640482
0,0732849783915321
0,0744165744735312
0,0735963607515511
0,0760820088091997
0,07377373856254
0,0740855257230433
0,0721488606218316
0,0742169398299101
0,0733576422272221
0,077118207868875
0,0755283572001659
0,0762725391312687
0,0717392777927672
0,0741877603206641
0,0724474012710346
0,0734594176042346
0,0733596064901778
0,0753336748049704
0,0731015786205289
0,0757937259020471
0,072751963999067
0,0769250603054021
0,0719356189274932
0,0728640758832195
0,071933368213674
0,0738261278064417
0,0722774573688214
0,0740230984401222
0,070058108446509
0,0755978021204494
0,0705405898223446
0,0722586837589305
0,0717358154323853
0,0716939228565724
0,0727417233206077
0,0732734257149956
0,0714103461841864
0,0763393442057968
0,0694238152942049
0,0745066628659414
0,0710119428044343
0,072406186532338
0,0715518239630237
0,0729149661399105
0,0709967339903536
0,0736922146514553
0,070302121882576
0,0731938533493021
0,0719989382771381
0,0722183358581787
0,070674502319454
0,0711861456802926
0,0693110180990491
0,0729059636338369
0,0680232215765284
0,0722333441126858
0,070635149159701
0,0730096939011939
0,069703624865083
0,070717254676279
0,0696887074238795
0,0723798574305229
0,0715833145587177
0,0727257996427587
0,0696546693053565
0,0720175509856816
0,0687572809826299
0,0717470152449446
0,0701940503020782
0,0722489388601483
0,0690111927018477
0,0701007370536509
0,0692913893843006
0,0688248100386058
0,0675107157602169
0,0677060429758417
0,0666088532873831
0,0686819289459895
0,0680364907860817
0,0684050440021133
0,0659203365120482
0,0686963023546746
0,0652400682238234
0,0671701128188579
0,0660966444283524
0,0652506886157162
0,0668026392746803
0,0676292452930346
0,0670914767004876
0,0694554480708317
0,0631528536625075
0,0668294432893007
0,0618787946922459
0,0670663148950589
0,0641364468059857
0,0670859741664292
0,0646016300815375
0,0635594238273815
0,0632713160902865
0,0657469919118817
0,0621609382569139
0,0642690165268183
0,0636453900098099
0,0625163665575404
0,0613637215569366
0,0634439276735289
0,0620124266874867
0,0664531614410451
0,0601611084034828
0,0620005968245779
0,0619976314991578
0,062669926407907
0,0598561957458247
0,0626155375655217
0,0615134709518446
0,0699357776964213
0,0628263923144721
0,0620216547970454
0,0621558587675816
0,064370641889868
0,0607514555139771
0,0613495857683144
0,0617667913731198
0,06149205925015
0,0599552408634088
0,062065079730223
0,0621345032602815
0,0615770332604474
0,0598572742225311
0,0601648173322971
0,0610361911071993
0,0622129275820931
0,0607598132627583
0,0633034474369832
0,0593338983666327
0,0621099828858488
0,0608705022326586
0,0598136409513131
0,0589008829779906
0,0592115105189891
0,0572403289856016
0,0634802347614026
0,0618632920230859
0,0609067562375721
0,0578471282938491
0,059675572888692
0,0596043863665767
0,0586443806662305
0,0597684382718292
0,0586322304104772
0,0572858816946153
0,0596057930405486
0,0585734599431142
0,0623843454553318
0,0573485563124123
0,0590316084406233
0,056303761775003
0,0587798412730866
0,0579059204344603
0,0577599859804846
0,0559317898307782
0,0607707874977868
0,0541720398807121
0,0581840543285685
0,0605238510648301
0,0587376030440144
0,0546763624998726
0,0597499145070059
0,068990142866313
0,0619291726931515
0,055615285318762
0,0582323248946389
0,0539309414346392
0,0566697933666893
0,0543163388115905
0,0573940291100149
0,0548557372922199
0,0592949278100354
0,0561090420739071
0,0598529817435509
0,0557807253007068
0,0560087746990314
0,056580063296108
0,0571685599998919
0,0554708194988057
0,0578879231804507
0,0548606464713825
0,0570045650730249
0,0530275410142315
0,0675071012561189
0,0650946297911166
0,0580527428932534
0,0561471784705942
0,0547790374931136
0,0618380152887294
0,0699134417426318
0,0520748420878098
0,0594791570946065
0,0545719573390195
0,0563497602306468
0,0551326788065212
0,056934956382722
0,0566029823593906
0,06068691011944
0,0562026921817804
0,059918757051387
0,0559554835787426
0,0566331355272778
0,0532560698507999
0,0564763105490267
0,053547576754758
0,0558807698178937
0,0553241003661669
0,056351571773489
0,0532912759427413
0,0572254830297173
0,0540191223636297
0,0556977792407771
0,0534706648444676
0,0592108461261905
0,0547973713341284
0,0553765544344815
0,0516102308988457
0,053756397192197
0,0569860750763002
0,0705809216726858
0,0569702511946148
0,0537530398706843
0,0575695906027452
0,0551380239930905
0,0540390271808769
0,0577923851773283
0,0549272185755763
0,0550718831794406
0,055268574082691
0,0559392562169417
0,0578327747728884
0,0543386132107749
0,0548738447401488
0,0576025678463141
0,0550263472536236
0,0564432052722263
0,0522219647574148
0,0556000790184235
0,0545861914209869
0,0536903988531559
0,0609668859759272
0,0743100315856189
0,0592946289262431
0,0666099790902148
0,0579684800829921
0,0579302514373498
0,0544960356097454
0,054591664861292
0,0543570336423513
0,0559174518690391
0,0555590532169121
0,0557385570077491
0,0540514054457429
0,058185998154733
0,0564823259618531
0,0555331896939076
0,0547207977693882
0,0536930476514715
0,055796432302665
0,0542062902137335
0,0546507827073239
0,0551375112658275
0,0553491294452296
0,0542077087113338
0,0623717109416559
0,0553143265625777
0,0531870707097513
0,0617653452796165
0,0799203813762971
0,0621024188544297
0,0609358334835089
0,0582258816586454
0,0534956327821173
0,0553447452323705
0,0543527347113974
0,0610245876154351
0,0567067248304122
0,0558980343779827
0,0551966242908377
0,0605333331584844
0,057573865814723
0,0528267320575383
0,0569077436045052
0,074299087464288
0,0683926034652944
0,0588097849476974
0,0545840360208832
0,0551356863439265
0,0730764541315922
0,0686058082805613
0,0563552288927872
0,0628620258125467
0,0567141928367563
0,0598051603518371
0,0557545927802825
0,0607354202008379
0,0589424020875026
0,0623762509045593
0,0563679594103547
0,0591447721042322
0,0572764288540508
0,0588510542936007
0,0568457728313382
0,0632553332059573
0,0662759159487721
0,0633168527121255
0,056492278824089
0,065137558700612
0,0598625196606494
0,0613711609565708
0,0600012785734832
0,0589285691249314
0,062838363048346
0,06815686930058
0,0607809743476297
0,0683992979259849
0,0704154203939485
0,0632409265389687
0,0623912200750737
0,0708597824817289
0,0647566572441451
0,0609698107245855
0,0555106962140029
0,0845494093851087
0,0805234590545134
0,0725231173852895
0,0700511525833368
0,0581457104704844
0,0681259384244275
0,0595771619115691
0,0627303254539076
0,0647022311469082
0,0752814231650455
0,0609702249464319
0,068517444577352
0,060656128168835
0,0761034708738869
0,0710142323988386
0,0680875697629292
0,0643105693073126
0,0638048436868341
0,0723542371443997
0,0724357353236759
0,0604577457062807
0,0809905884151765
0,0923536093529547
0,0837505465422965
0,0783966749567631
0,0688787822523874
0,0877872523453794
0,0808551883712429
0,0699781947204733
0,0732536800221537
0,0708606552007048
0,0719854615842673
0,0634080773278167
0,0914974367990864
0,0865710298568902
0,0685032265557981
0,07699031722237
0,0732013008797131
0,082057722762175
0,0930172733718044
0,0717786794550569
0,0789049673252086
0,0744836052899629
0,074270466523245
0,0836614494772289
0,10712663634604
0,0801863882504696
0,10374919041514
0,0977456059802898
0,0943416555822113
0,0945484084883603
0,0857060598675914
0,0939247140575259
0,102094175942596
0,0957196692814863
0,0805620485253934
0,0942295068379237
0,113452630704939
0,102518961697171
0,096449729606793
0,102335648219552
0,0821514908538823
0,11393906505887
0,147618380752317
0,134337042469371
0,111261164937244
0,111426847363247
0,123685736781924
0,125357747696775
0,111205039020716
0,121595570220199
0,112567364657396
0,115524762890393
0,121799665719743
0,129779114133206
0,126569808656745
0,122463587533206
0,125980381078653
0,124347480995851
0,138557010843176
0,177314414911051
0,158348470240628
0,150743242237552
0,144402341540862
0,163936161318057
0,143937069431744
0,146281059615291
0,138407760899172
0,146195783478413
0,1459639082816
0,145399354776825
0,145719666053509
0,152608852360913
0,158950845134307
0,164335953542137
0,166525054101466
0,163966263200289
0,138314990493421
0,160986988850436
0,205260555321042
0,211540684066646
0,158610943760654
0,174459163396599
0,158787214668562
0,237859527437486
0,196846511770475
0,182736588753267
0,183062403626108
0,18141739579067
0,182811104121911
0,195266106951695
0,193910621532738
0,209079658520588
0,203847189049768
0,203372037913218
0,184365185682846
0,268581672817385
0,26916281697879
0,241282511478116
0,226357269023294
0,243280442806632
0,249165027439077
0,245317474379635
0,240519331194043
0,244152314747805
0,247665800168297
0,29832003018521
0,283247523021484
0,256330895737754
0,284605050189128
0,281524271041058
0,293623114169432
0,284359142241064
0,336430673613927
0,304571879691706
0,309005870286058
0,30483702848979
0,311348539621418
0,313450254831558
0,336622745603347
0,352299008782052
0,328137616989478
0,334422196260924
0,337343481339063
0,338700378888415
0,347164165882061
0,344190116500941
0,352099285700398
0,351711435114328
0,386445064378719
0,476805561900819
0,416918775044673
0,357974571896905
0,358680672278611
0,354900615670731
0,378559048356043
0,397860651428981
0,37071296731202
0,400405665099163
0,36335266532082
0,360265179420721
0,367983456011094
0,359190537622915
0,366504472556329
0,357358187376028
0,372480692765379
0,359432979588352
0,371536579626641
0,367001349577977
0,434105516883942
0,376732599720751
0,356052894655945
0,363353250552483
0,362748746303628
0,36317630311558
0,347007202251726
0,363743333155528
0,366615530180808
0,364506393081459
0,343343440809122
0,339489713865161
0,340971364305212
0,377719898487168
0,342013306275444
0,325941532521897
0,322818257574817
0,325232307534104
0,315640236811196
0,310037531404591
0,356411919619998
0,339412006478011
0,303877164924224
0,317793358825802
0,302863083251746
0,315723348135554
0,302344316926227
0,315944185243023
0,313758375493318
0,307110042554262
0,307064475437681
0,315179372927449
0,302765232802065
0,317347109873055
0,307781993430528
0,319520809370485
0,314213386110609
0,321826427806158
0,314465192489029
0,317490826334639
0,315160191315331
0,324841608458839
0,322617274260094
0,333109464593176
0,329085640016223
0,328075824513867
0,329863862686452
0,336118571148244
0,332704942554763
0,342512446633141
0,339208748947465
0,345741973299353
0,338338112944439
0,346370874590993
0,347828790570358
0,345857831642535
0,348881405995497
0,355860087543118
0,353756793513865
0,354201596203656
0,356343142213821
0,351975323402261
0,35760612578215
0,385813072530348
0,410306202810241
0,369357846097847
0,365775637034405
0,373708233353465
0,360951875849199
0,371753304874198
0,378532999254341
0,411629170171142
0,37872366976099
0,380875871597414
0,371680602207737
0,38763171275873
0,383272741491151
0,381614943237446
0,363411227256872
0,379324666395183
0,359845920876222
0,45265867787849
0,400691154681244
0,457844662196335
0,389164824868347
0,355018194238809
0,363542916542
0,390228810854679
0,37427576129515
0,338494840625697
0,357184285900499
0,348815954028345
0,362214476530061
0,34573621865097
0,331310180680122
0,330065423479469
0,330885898898
0,348413459991434
0,333903062396047
0,326428137701971
0,34352918709622
0,323233223471881
0,298855003585126
0,391467145485094
0,326425547730642
0,298758940707011
0,288824062815034
0,282530627930719
0,295206499271627
0,305417355698746
0,302443884836427
0,281688419096283
0,27008273114497
0,258749042482323
0,261295719032592
0,281423290789461
0,263476698520568
0,263697859596243
0,259855554409269
0,270871384945571
0,227278200616776
0,273855249294708
0,257899320245672
0,303181477195502
0,252082427559141
0,238776492290092
0,247320249562121
0,270467089177667
0,253042779602543
0,242937336635488
0,232052094581283
0,231095429085187
0,240612767014518
0,237650170161267
0,22566637835412
0,239313029649775
0,238657998884576
0,251651956423787
0,273959132406413
0,273999426951511
0,235881088150689
0,223325650960906
0,216980908608299
0,229241966178515
0,213905801952782
0,224687295789219
0,210632332158294
0,239907487642981
0,223344743781553
0,247894284789082
0,245273374046596
0,221598857537849
0,231103768223877
0,22810232203381
0,232760038085122
0,267268234992201
0,264338641328792
0,25850108730388
0,239656591091462
0,255000728858246
0,259331697711859
0,245801222179217
0,256022952857654
0,255084506323739
0,261197512648673
0,264613868227893
0,275343998473266
0,275578212601313
0,27674174514598
0,277515266778072
0,302618906230688
0,306292238959314
0,308953385937632
0,282959932611063
0,346234782684991
0,335851307544504
0,352949985463523
0,3253106161384
0,330327775956298
0,336545259021266
0,338389316645721
0,34270185303623
0,35307944138876
0,373201409638649
0,369794533121364
0,351758116957951
0,375698566624639
0,356060273461491
0,382554496141327
0,373862947209699
0,406522971920924
0,391753311748694
0,436110022524587
0,409366541723011
0,388241082401633
0,390618114744791
0,38725614996606
0,396616773594694
0,398737118227291
0,399272700266274
0,39558721540207
0,409267991868633
0,412275904173149
0,396262259634653
0,405000480092488
0,404408552870349
0,411417421111454
0,411730481068066
0,412236617069365
0,417659861651663
0,420285886537905
0,412520374479193
0,424393966717103
0,458168028472002
0,471374440789858
0,428298994656537
0,443364536176827
0,447429357027587
0,451613390176259
0,450204193911817
0,462040196091243
0,469067501795267
0,462093220810331
0,466004103249007
0,477676220331354
0,467583831168018
0,493562482203292
0,489116923825452
0,496087689041733
0,47723657380073
0,494436601569812
0,480451382770599
0,540974901711017
0,514695166919101
0,502313089178236
0,515545112084986
0,501899159603049
0,514510164178313
0,502183394427513
0,510307071348797
0,50739370051689
0,517794807153937
0,513008745917455
0,516536562410323
0,506011101872031
0,503856361470995
0,50915017593324
0,520679204187127
0,524643028609362
0,505310014982222
0,515989568457897
0,503756566342231
0,501682288572135
0,51347840450964
0,526063838382323
0,507476310296767
0,504156020276396
0,503743946259536
0,517414744535444
0,516354202553471
0,499694158375232
0,496362044508412
0,500361963534699
0,500328368211111
0,493273853596074
0,497746147467144
0,508173734034662
0,515649426766013
0,50159880481161
0,510868820193174
0,507036846263813
0,516653445396273
0,508674903195966
0,520603800347714
0,525870388151581
0,530975107729417
0,526372737760555
0,529560940737889
0,526745671585731
0,542668429242089
0,529068555020311
0,540934676628273
0,536857950708001
0,526310632880654
0,529911214407348
0,522347324650808
0,52892443775311
0,526678698079185
0,51211106964626
0,518279212117136
0,499414439337662
0,519274739791893
0,523464290376141
0,520556014329257
0,501772896614171
0,501869585755337
0,487492736755763
0,495034488675986
0,481846207452816
0,488834585927235
0,481409411891121
0,478193898992365
0,475625223292805
0,472259300328476
0,472584224708286
0,472784327506971
0,465425893229782
0,469244830093674
0,464913477179784
0,465349011794487
0,466091259442024
0,467059283927716
0,461757731515562
0,463204518043414
0,456581874145203
0,467859732931312
0,467248798673429
0,475968294126803
0,468180942898951
0,470153800877847
0,469193946581433
0,466832627567688
0,464584000712696
0,462839555644882
0,462889833716805
0,457384659040421
0,460146793306622
0,458631739186552
0,460640285331362
0,45936868248742
0,461174480229531
0,460048183612842
0,460165982514043
0,456386766475099
0,458483716189419
0,459838260922685
0,460181828930307
0,457897379589566
0,463054143233482
0,458556856400423
0,462471620057342
0,461997234305522
0,458367182258933
0,457064376933298
0,454889740757412
0,457317501970358
0,453626956087879
0,454750217460507
0,452055563472942
0,454807541922302
0,453870709723615
0,454881954398401
0,454103679506006
0,449779121676613
0,451548549701073
0,447976796750698
0,444030491967278
0,443622853509305
0,440908539659013
0,437876674595999
0,4314151598734
0,430974391632783
0,429276565798565
0,424021754344492
0,418488017686377
0,415194214061157
0,412999729926744
0,411396432303734
0,404677786312197
0,401172260000246
0,395911376791491
0,395981260038219
0,395426110663292
0,393546679782888
0,389281224381761
0,389569596268544
0,385331080816043
0,386378554716263
0,383256494878512
0,382743159661247
0,379450821127527
0,377168251150989
0,377495854487909
0,379684125819869
0,380884328138304
0,382983855027621
0,379622780089815
0,3854882997758
0,382736782079702
0,388020193910354
0,388562165670865
0,389089947215149
0,390599491381105
0,393821712057774
0,392623693452422
0,398940992646326
0,393257032379594
0,397482279712409
0,40314952454798
0,402094151402603
0,401465507263189
0,40020352833065
0,401602794303405
0,405580388734871
0,401606423164377
0,404008981714605
0,404264359980383
0,404631885314937
0,407322508408485
0,402147702527446
0,400278723507819
0,400405165336717
0,396106087152273
0,399025490261541
0,396813594678291
0,395743285364498
0,396277842266923
0,393266447211713
0,394248626196293
0,392938404181533
0,389473560168265
0,389879358954842
0,385329697531404
0,385037216033711
0,382350956915842
0,380638251649431
0,382112112633862
0,379806118884756
0,380250994855104
0,380092805804986
0,373275038145148
0,374921087928146
0,372464680255297
0,372004058540144
0,371389917754169
0,366332821221124
0,364657053117263
0,365050882863297
0,363710075315098
0,366002106546137
0,363613291007183
0,361631765440084
0,360303673726954
0,357572384229303
0,355677975987225
0,353664591795179
0,353909533187562
0,351984342838675
0,34800568946752
0,344599682188043
0,340498041053585
0,341503511740853
0,336477856195329
0,332031244024474
0,332981136062118
0,330647824651772
0,325447849726855
0,324281347777643
0,319864466664496
0,318013449927992
0,316579959149075
0,317706077149202
0,317304443762506
0,316087354535152
0,312713325863283
0,312126088181353
0,310199801621351
0,309651581691738
0,308504585433203
0,306436556738778
0,304686718612336
0,304945096234022
0,300959149114699
0,298046792519543
0,291716969554042
0,289923921562075
0,286170689006276
0,28201960481995
0,278543021313952
0,27553372027614
0,273329339662509
0,273624243019166
0,271901036183816
0,273130963284105
0,273310897410266
0,279467909197225
0,285158263966123
0,287373131049465
0,296610317306821
0,306933534821076
0,312286213586641
0,325620484367907
0,336487067136693
0,349627433004904
0,366470819101207
0,378234710384153
0,391932254414342
0,403098657009986
0,419188693366114
0,434776476514284
0,445754342512937
0,459001731752431
0,472809739502356
0,487413594105879
0,500490829278896
0,514567767230219
0,532290686637111
0,54503886008608
0,55267073724755
0,568097441820685
0,5791372750107
0,592732295469964
0,600475265689084
0,609613817834343
0,617756573480982
0,626450852610748
0,638843407363265
0,64782236602614
0,650551495253529
0,654631010686107
0,659155651357793
0,661962654272332
0,662707899790713
0,666866211281301
0,667367093102668
0,666807089858618
0,66674624837285
0,664829693112194
0,663300960629573
0,665565174679333
0,666512501383278
0,668211100013333
0,667415712573362
0,674412153331276
0,67625447397634
0,67282581340035
0,675053276200944
0,693236876746843
0,696321507689062
0,696067187161483
0,702106107067513
0,708235867238684
0,717545345415679
0,730414614320424
0,727749759371637
0,743890406511567
0,749869475037115
0,759120525677719
0,771198661387996
0,782173652587785
0,795018778304922
0,808517773213665
0,813125453354904
0,829375946813144
0,833386363861584
0,839199412600184
0,850671087228921
0,849527076224893
0,848787706482158
0,845496978554897
0,848793004442221
0,860689080451384
0,849802527615059
0,846187529204894
0,839957717950186
0,833501961185221
0,833661646405947
0,832928097717007
0,835424163151008
0,847952536726269
0,838816736371118
0,845301501753484
0,862329761699573
0,872852943645266
0,884045637516901
0,892455597476276
0,897267522155795
0,913396674154381
0,935146897006574
0,949570953097208
0,944276168111684
0,970040047322667
0,993667345748044
0,995645121207592
1,01176198506877
1,02361675793637
1,02966473573867
1,06260597983878
1,06175877233775
1,08160442884479
1,09696751336728
1,10156010009558
1,13157672699613
1,15881831049657
1,17331045216525
1,20544098407666
1,20596229008996
1,24708911365739
1,27162537475737
1,28740474429973
1,28442334774636
1,29658547164923
1,32665243908139
1,35232103536258
1,34766225486157
1,37173690001451
1,37365968129149
1,36745110062734
1,37412655088331
1,40621973237544
1,40504871091858
1,39251442375892
1,37841365739899
1,39288857615309
1,39226559657425
1,39611154901582
1,36959389460092
1,37705017707134
1,39153260724862
1,39296707399148
1,39071903232395
1,3731491129551
1,3716639321947
1,400253359937
1,40630853926311
1,42560912430041
1,42524221826056
1,44282328952741
1,41523560966468
1,45546461672532
1,43592740730476
1,49330911496999
1,52979943255931
1,52875463559678
1,54490130466484
1,55224297304531
1,53545631514036
1,62030175752943
1,60217071198898
1,63136722330807
1,61615902217993
1,65512530544441
1,63741180417953
1,67810265821736
1,61788258233573
1,65592364132178
1,69203187142843
1,73564928531806
1,71773076270636
1,71446910005213
1,72060290055598
1,80886505043448
1,78128596582041
1,8052003072278
1,82232171773116
1,85382521924331
1,73940384573487
1,93576018601632
1,86011821235552
1,75041827271269
1,76106222831549
1,81916096081896
1,74348199859737
1,80100559329305
1,8748880663443
1,88189405828634
1,77310157962359
1,77555526782288
1,7276026808655
1,72044663993871
1,64226439793974
1,64290161291636
1,63028787551913
1,57896285161096
1,50323003874166
1,44211015139071
1,40582400447167
1,40081309567225
1,33590186815845
1,33483244966276
1,3136705345825
1,29898502517827
1,29627237796282
1,2943414941097
1,26925180554021
1,2414874566482
1,22425383793998
1,25609547207951
1,24182336598407
1,20604030426736
1,18162079772273
1,17606510875722
1,15851212955882
1,1536421154212
1,11283032436158
1,10884832421851
1,08704915493015
1,04803169639124
1,01770746832161
1,00839917133935
0,968694914315432
0,940374946146461
0,905321461408856
0,860966871156128
0,830622294981027
0,79109801977977
0,749947328502433
0,723744833392762
0,681117880273746
0,652611077224936
0,61555487160539
0,587691148876355
0,56130202704298
0,53564387274871
0,516267613535935
0,488932022724986
0,470226391684951
0,460617035551295
0,439755556022999
0,429658689179935
0,412312043852306
0,404511341192706
0,386701693587595
0,385180129901309
0,382066116533511
0,3699555928937
0,365447728108077
0,361016832770654
0,362917866189053
0,367071751286712
0,355255241291345
0,351372654801202
0,350606750337707
0,352277325973918
0,354146871915422
0,354343124614817
0,360504804114974
0,357752134903717
0,35858253847807
0,362395866958
0,355715296888767
0,356640191555128
0,354281129360856
0,354385344176586
0,355959222996716
0,35172419125822
0,35127786005872
0,347248067173494
0,33803212641016
0,336875357062679
0,337705991387002
0,341365357427192
0,339118573586099
0,336548948562261
0,337961410507652
0,339411237357165
0,33903957132336
0,342058570706131
0,340709274307502
0,348952498350392
0,346199583107089
0,347191811755511
0,359665115540543
0,357179789491464
0,360383233147406
0,35937085726756
0,354272487422048
0,36493070142353
0,366288455618447
0,363534478698429
0,366213146606916
0,366017096135816
0,369438002142825
0,367888114063185
0,371318930191494
0,373874164245626
0,369864725863564
0,373259395626662
0,374209779853728
0,374163824374162
0,377013144028997
0,386621164654639
0,388138322230069
0,403118764585701
0,390535957872174
0,404465242359454
0,413984755871384
0,430189620500957
0,442752407989507
0,451642122884169
0,454590945587402
0,479378872523516
0,484648302716737
0,503874873860341
0,512761054753858
0,516185575453088
0,521690687421056
0,518962353384076
0,512937361085394
0,517892396435609
0,509564742241609
0,505913774669612
0,493285333975142
0,485865784621484
0,483032229363442
0,470936664909095
0,463530852349298
0,470953455567382
0,45826327639986
0,475180549058914
0,463906771377974
0,475172672885068
0,46862069020178
0,46677155731636
0,472132400840314
0,479218326740563
0,471112171378621
0,468870475551652
0,45779430582348
0,466979688242902
0,462440757469809
0,453399111751933
0,449231817529335
0,44081975194049
0,429610616352232
0,43253184588771
0,431078331256553
0,441096321320032
0,428560381758113
0,423047630451257
0,422841300845846
0,411364161934866
0,414319579026601
0,418237839884578
0,416490129910902
0,414907238131426
0,40448833881746
0,408585485947136
0,401123752218017
0,397152219625784
0,394329900455021
0,389537770932713
0,395059567917002
0,39372739386057
0,373135029905046
0,386859107015236
0,377789406820937
0,385483691864833
0,368540821320384
0,375452417643714
0,38002174523198
0,369731811907291
0,365981461790813
0,374839074499719
0,364036919846196
0,369148746049626
0,355471451817921
0,356877665265949
0,362059071470931
0,356963415349581
0,345179810256285
0,364487510992597
0,356899610307095
0,35478411120033
0,346870150261711
0,361103001855766
0,365104218204883
0,358297692524615
0,35642019991442
0,357119012470395
0,349330681075141
0,363488312055669
0,348833305644132
0,36541259026295
0,371941736551456
0,368368387818878
0,372816426938188
0,368915468250664
0,367149582860293
0,389334713800971
0,379908328637145
0,390413213187905
0,372405103252734
0,383783131603945
0,377288028745214
0,389745301783317
0,392647929078837
0,386952913425239
0,398807918469113
0,408235458009042
0,409153982392561
0,413053437977875
0,420047329233726
0,433778880743111
0,452568742544375
0,45474662306435
0,442326419837954
0,465434488786517
0,468728181489482
0,487746370499549
0,482141485635491
0,486217995801748
0,510866964093194
0,515362822958801
0,535415522094792
0,562359939130782
0,547248684872403
0,579881140167167
0,583165202879722
0,612449300007591
0,629739894899489
0,638076623374251
0,654047450929286
0,620477836477964
0,614434796074576
0,677435002832525
0,630471417454704
0,6385980774587
0,634036501375207
0,61668935951646
0,635920652413979
0,660542063269121
0,627721765174984
0,628180676811211
0,601567284078806
0,645517553218662
0,631749464796346
0,65470443767494
0,61189238118793
0,602630050083162
0,583135114821708
0,61818838850553
0,595505783200447
0,602001564021082
0,59599797566047
0,625506575095557
0,594159744224885
0,574472007743626
0,577798650280531
0,582714237547863
0,573041954874097
0,576643827274196
0,566200658978081
0,583080880610951
0,529961232044946
0,582050350229287
0,583140196484132
0,567808243936144
0,571041634692659
0,596520764182912
0,531434331231396
0,591503956855651
0,605296833350184
0,600413733037437
0,528086059004938
0,563670296389138
0,573636390555717
0,587504394946285
0,570377032126479
0,594997841529034
0,555924500375342
0,645435154352869
0,580212314390407
0,566640137177599
0,573134433676012
0,609381757001682
0,557449277196898
0,57546931975328
0,548964050868055
0,609662695162232
0,538480147942199
0,590049996216359
0,602144513066251
0,60669045407388
0,533988080164419
0,599499269573176
0,626784721457383
0,617294362919451
0,593144186546504
0,616140819271491
0,645526784879975
0,625062482473629
0,648075805454017
0,651682843863942
0,628779715880601
0,761037324562142
0,680934294505265
0,690478562488491
0,656641408482106
0,698976408164078
0,747526695950914
0,740588196342132
0,715194041197363
0,72214912964246
0,702082134603399
0,872307203778906
0,683229150018849
0,803082970216301
0,738236319571478
0,853742897409567
0,841284547212165
0,812179744084769
0,757063166484552
0,889563567285854
0,804578003714681
0,863804958866354
0,783691586212431
0,835649428437812
0,697713890603396
0,785302479312161
0,637060898813349
0,717419208956576
0,692947065633314
0,82980839297834
0,646117434930552
0,712115443792278
0,650908729137451
0,682900341241288
0,743022889402069
0,758092232657509
0,738426965325995
0,695997946282747
0,798253917311671
0,773669510402983
0,810539939288265
0,774520958819703
0,788042314545573
0,826208977387555
0,687702298902922
0,777097369374839
0,676762313395097
0,804463447171317
0,683145351070201
0,712728869010326
0,566601475430593
0,780783110469511
0,855079119763221
0,920496139912669
0,950812772770049
1,22271777103463
0,588928354464115
1,07766973316853
0,784999198721609
0,695602060064334
1,03915556386146
0,991972874882587
0,755317262058403
1,06287380832658
0,589147053181986
0,815428069178412
0,724621300641294
5
0,785798721014996
5
0,896822758233937
1,19729638740739
2,03780521786592
1,1818710060211
