3596
4000,36533379555
650,420452594757
1
2
2
0,0504473341424434
0,041893590224118
0,0521418474715001
0,041390131627065
0,0528404035417739
0,0390529549302651
0,0453256032087446
0,0405737508322081
0,0551499606273992
0,0381849351823162
0,0506656432420029
0,0388036107171306
0,0454954200864506
0,0422500248792086
0,0488551033861191
0,0390197964597809
0,0448409612979193
0,0356578925458138
0,0475435533672624
0,0411631500304794
0,0511492721852459
0,0421183752004599
0,0549591801336208
0,0407701490163221
0,0463761836421003
0,0425405669005805
0,048908308892199
0,0411922118388742
0,0544737548402868
0,0462648483434508
0,0449938531776134
0,0399969295805151
0,0520393930126693
0,0449682799306107
0,0464287923229281
0,0347093230201899
0,0482714147117518
0,0373063475040639
0,046789023691646
0,04469749525033
0,0554592348260231
0,0393775680395974
0,0523073864446636
0,0434685226349456
0,0501931947755103
0,0424283516899774
0,0572615070391956
0,035306076307742
0,0416853079728332
0,0480766213271597
0,0493486922878148
0,0349673356370759
0,05366861828415
0,0543917091499995
0,0517323086376831
0,0551328993827679
0,062275654586011
0,0409555281240983
0,0492252103000657
0,0414250291069527
0,0667321350654646
0,0567804094187207
0,0419608609747534
0,0497547445701216
0,0418680757684009
0,0491395239795284
0,0472005484009161
0,0382720835877581
0,0398777910307618
0,0446272057559157
0,0352003454736894
0,0525324593750151
0,0595403840071068
0,0494086893053964
0,058978119950116
0,0467938018229245
0,0411584246719967
0,0412456482952259
0,0470080764917443
0,0573797991268311
0,0605063701245167
0,04831215212281
0,0509416223926768
0,0357448352853575
0,0481657982764628
0,0596326528852483
0,0387753799324485
0,0382276899364946
0,0664994193330634
0,0467010822746341
0,0420785401612043
0,0394194605577055
0,0436165131891722
0,0418631967984762
0,0449922795523845
0,0428179479760057
0,0441841221035154
0,0439738979719775
0,0386747008397258
0,0484173255441239
0,0608488816224909
0,0262066800882168
0,0940066196643769
0,0230679334926051
0,109326472929098
0,0641847735534819
0,0355525569047298
0,084332119123061
0,0573793889336669
0,0551155851506025
0,0459416976202564
0,0448493275364913
0,0403077152207138
0,055562229173272
0,0312770078731054
0,0608490332989441
0,0795569130053574
0,0489869800549582
0,0497901193230013
0,0452434945823659
0,0227472455964019
0,0492559920097643
0,103052528053622
0,0446832271527822
0,0641192299276171
0,0403758914274323
0,0359171059551411
0,0723208402844615
0,0782348873486434
0,0412887278477847
0,0536436958031742
0,0376406391992304
0,0421728618929833
0,0246671255546441
0,094773000104312
0,0491540257692517
0,048838322674535
0,0240437662068689
0,0577452922212366
0,0967271365242576
0,0634625270624699
0,041484625138113
0,0343859596293802
0,0309904924127653
0,0983443960502779
0,0574789232156431
0,039157320787323
0,0523924731561909
0,0593767368982729
0,0358407158735575
0,0479552810764452
0,0371552397625405
0,0724216295282155
0,0574810621286028
-0,00883698179001204
0,0570695913687366
0,134745141578254
0,0411624011527626
0,121408131820153
0,0371990936858873
0,0655807492409631
0,0412806009811254
0,0495534298343101
0,0329169527773188
0,0505376781087614
0,0267420889776391
0,0435591322606481
0,0748437538574574
0,0452978203917592
0,0360745374950485
0,078523467674308
0,0509778016064965
0,0242812760884062
0,111939502993788
0,066456973787222
0,0214747082886365
0,0798190474130434
0,0670019444385899
0,0464279583860491
0,0371177863758048
0,0826806414019032
0,028042507204475
0,0502089242279852
0,0339752086938866
0,0452533799806263
0,0590929822845535
0,0563118295075312
0,0396387963938719
0,0505655104760522
0,0174530668869238
0,0515967223318769
0,0825417781803015
0,0904611082799189
0,043740791083888
0,0522839057915204
-0,0116446386918377
0,0793584520612673
0,0837958058273752
0,0516170142507167
0,0421471512039045
0,0429481341072684
0,0381393857500974
0,0438533838442373
0,0349884005406819
0,0421711979046094
0,00502586039887857
0,0870243700062458
0,0578095664722931
0,0478398816271305
0,0322987571559309
0,047803819001251
0,0171737882366578
0,0983949863000449
0,0791837243960311
0,0417014526775813
0,0411065913595357
0,0263635939391778
0,0439145511843166
0,0607117886719213
0,0412568544047993
0,0451427015980077
0,0390725430811701
0,0489943656460084
0,0366698460561703
0,041001273737678
0,0426407061161316
0,0437623321541282
0,0350244879128019
0,0433776176893423
0,0317617385977149
0,0479795331824827
0,0472507351905764
0,0496658549740612
0,0421158738520311
0,0316153181814099
0,0407544013605243
0,0706916109027531
0,0385602600539146
0,047482140253207
0,0404136242860916
0,046809349438103
0,0374423931715979
0,0466239086771617
0,0384050570207864
0,0414835071487798
0,0104689723506267
0,0810538432331396
0,0426915974213187
0,0544661319914119
0,0273467108708998
0,0648768104409612
0,0563901202497508
0,046886037942997
0,0382868699428301
0,0471908502773553
0,0345535048231033
0,0323101592353426
0,0624795082432355
0,0489025949446273
0,0298402352637703
0,0665375747545591
0,0524261485561296
0,045513637941091
0,0383016856811865
0,0101321061823446
0,111272724500614
0,0637134868835742
0,0103302959076355
0,12522520420514
0,0679765727067044
0,0675936883099076
0,0337165393916971
-0,0120828226885365
0,146917445292953
0,116800744179002
0,0441082845012432
0,0449116326638773
0,0686529565421334
0,0433025117772875
0,0467015312450254
0,0437849951577833
0,044372342053071
0,0680498173657627
0,0658634646395072
0,128358767150326
0,0232010248630729
0,0766252534227842
0,0828239238052453
0,0572633194517057
0,0448778932731227
0,0397470568392006
0,0249420654635185
0,0630194301731583
0,0614273497925858
0,0590302473600028
0,0489370595023292
0,0354079037756448
0,077878740637637
0,056085565744794
0,0332925697033142
0,0487393457831373
0,0600210705229827
0,0463701953387941
0,0424394045240217
0,0432132452776919
0,0567757997826061
0,0396602278169773
0,0198811402895569
0,102187396247747
0,06127849590845
0,0454529717012729
0,0850600044554509
0,0556996919709361
0,038907168158992
0,0455466245315377
0,0446892536637006
0,0396401366860424
0,0368847684033706
0,0299858506457458
0,0683322739788951
0,060535033744853
0,0375255026148612
0,041086339495019
0,0334126114992294
0,0353451174887084
0,0387675878559425
0,0391482663599286
0,041479316983802
0,0465771293714855
0,020889284848881
0,0522298546077089
0,079928607278036
0,0176907922838809
0,0740498288319417
0,0985753873896297
0,0471100682482428
0,0469245865438626
0,0402126932886446
0,0509727946732037
0,0428719463052016
0,0474864266136768
0,033123493022673
0,0427459542481086
0,0556323612391568
0,0568518760890729
0,0281622228602192
0,0311203938279996
0,0784353789272849
0,124134117579091
0,0720911637569699
0,0555547875303414
0,00911663529289869
0,0711854616058588
0,0776029022574874
0,0691424246457723
0,0859634036104062
0,040909079657377
0,0463874354657557
0,0401066694355233
0,0467750093949557
0,037916908051572
0,0490733588293986
0,0447758637143334
0,0442246953975542
0,0449351963844273
0,0460575856727528
0,0388634640447577
0,044718745505363
0,0863873987252071
0,0572080038548551
0,0500188223344788
0,0573283222580263
0,03070273719245
0,0569724724900343
0,0675931800774479
0,0900902020211998
0,0892592981375576
0,0706581106108332
0,107226311684825
0,0632836889539473
0,0683682188652716
0,0403354102874898
0,055525262823872
0,0597913900498485
0,0600961819954079
0,0508437819457294
0,0527670583023617
0,0473697289042798
0,0619886059316205
0,0500706893857959
0,0584720581770318
0,0428883594884139
0,0742823306566206
0,0593670072332749
0,0637653263090767
0,0430371977500296
0,0547007991219962
0,0879731159396941
0,117155817099297
0,0766547417115306
0,071594615825261
0,0679466916371932
0,0584900688454124
0,0656510817627479
0,0605706329940087
0,0562118727726672
0,0587016659545182
0,0876243382972308
0,0885943253418242
0,0922071654128828
0,0859113256752809
0,0554643483770033
0,0864402545048511
0,0772611213404661
0,0793829982026757
0,102462332070347
0,0896027448691061
0,0462821044152809
0,0841977312747676
0,0911724122420341
0,0636335490110591
0,0966187315950464
0,0809899952372294
0,0777708615093665
0,0742001017231352
0,0731245648704191
0,0753126842510051
0,0805661236623161
0,0886187752912273
0,0747279798797224
0,0855738128440938
0,0890912678385746
0,0787799383574917
0,0879695603009763
0,0928399312022346
0,0790087821969019
0,0954072586223416
0,0783667421308664
0,0897647961422312
0,0721906825248772
0,0968461308206128
0,0949258361877832
0,10377257274579
0,128319834261962
0,0998540922553253
0,0785815792299394
0,0889796059429551
0,0909841737893538
0,0890219007535485
0,099034230072857
0,0968140246245369
0,0876461468323188
0,0989901147200959
0,100700769541615
0,0999187681074232
0,100127527630565
0,0967464356855734
0,0986346789031887
0,101852687491207
0,103065356756495
0,114012083191152
0,089348665596678
0,12205953390343
0,120974305474754
0,130837266454034
0,146118417752263
0,11503925534725
0,111082567122841
0,123051465880065
0,116972423165563
0,113619891444048
0,121339047258855
0,11829122785249
0,117097883705978
0,117315823493719
0,116301411838204
0,121635134290734
0,120584545946565
0,125274899008481
0,130519628782027
0,132357791246742
0,126219675226439
0,13005029356439
0,129881376178361
0,135499248318125
0,151791330114108
0,1484715898572
0,145590553159178
0,152892137907622
0,131424832327001
0,129393349298664
0,136655540795071
0,1491711445285
0,142388878033496
0,144314185724781
0,133971398447613
0,147709512285617
0,154220224486341
0,148194608921702
0,148071850857266
0,146978554535339
0,144908191015092
0,15880779971757
0,148320790937149
0,156436033559628
0,159723298472732
0,15316026906723
0,158682400627
0,163254055034072
0,157847829550531
0,16067345558706
0,166090624818668
0,172267143731891
0,164035982083341
0,173817549237984
0,169808587328594
0,156324775823259
0,167669198962266
0,171700125244323
0,166992610676768
0,183743100667753
0,170076992975862
0,180428627519714
0,184557309659317
0,174089372654318
0,182824216731399
0,192829285042919
0,183570511990412
0,182266577185206
0,178527695049115
0,191676819948959
0,182141105415803
0,196480863175242
0,196515328141995
0,192942966838633
0,195567185019503
0,207232107472468
0,194071240964645
0,190767461078585
0,193670754168178
0,200203823126905
0,200120946792735
0,206780727912073
0,205795803313327
0,208210898198125
0,204041322969029
0,205297644188773
0,203104807569794
0,211111949088493
0,212101536651492
0,21341938618737
0,209252490695914
0,211438303209713
0,212859184629693
0,218065950007588
0,219988551705571
0,218229467601021
0,213832895074222
0,221309039187007
0,222086691775475
0,218213312264005
0,210914708976676
0,227247333885831
0,22677028524018
0,224915924953372
0,22547344277828
0,232412693898635
0,218570925055438
0,2267457202643
0,226294521069425
0,229681502678257
0,237057711008018
0,224314117212647
0,22713191683499
0,237924786978551
0,229438329268207
0,239024100246775
0,235373790910864
0,234311107936561
0,238755834175134
0,236001789772998
0,245909148115903
0,246981927586407
0,243900214074907
0,253160331356683
0,246376663641988
0,252519457251255
0,245956965091424
0,246995121968564
0,254857304936255
0,257709959566283
0,252446154895133
0,266582293577882
0,260117507898392
0,259931225100147
0,264052411455143
0,254504597310715
0,254414417907498
0,259217499755029
0,259916974398153
0,257713851779419
0,253248864870789
0,255053950312906
0,26711285450768
0,266161721442949
0,266678167519709
0,26742923039333
0,269773914897276
0,277586761110568
0,263532426224742
0,27135206675563
0,272073987439396
0,269421405228106
0,263417301754704
0,274590565363345
0,278146328731425
0,26874987313577
0,271087545815862
0,277328588576124
0,286037728333068
0,291228657669691
0,275844724592886
0,271465443892309
0,28246739890215
0,28530340432135
0,272078680694595
0,274833768268986
0,275095866003764
0,280797388475152
0,279210742900647
0,284595896030619
0,282490327442216
0,277926554728835
0,288234700740935
0,287954129939142
0,28610451100591
0,287377948673497
0,282169712550525
0,282129189649667
0,285875233701
0,288212747739339
0,288827510822757
0,283718927949761
0,281118364374999
0,296599282452417
0,302859840017281
0,298664182138836
0,290495141889155
0,283712425004903
0,297048894716627
0,300198148119961
0,295789005901223
0,299292064909333
0,301378376676165
0,308304717577732
0,297943661625306
0,294660513390057
0,297448051327639
0,293641660177206
0,291222889771074
0,29732631516884
0,306718950697192
0,300252249704987
0,303419112202367
0,304869098833535
0,298653132411982
0,300922688103788
0,299716297731771
0,297668308433943
0,30153266217904
0,298493971614913
0,293653184783916
0,307912572765277
0,307172475282979
0,302092788732089
0,310512934687661
0,305569852569731
0,304517280305953
0,307260300709867
0,295141274878162
0,304707871321068
0,312748446687372
0,307541213304279
0,310515229331799
0,304208233890165
0,303794961095911
0,307310889945732
0,299910146177929
0,305081831987538
0,306306225705077
0,302834351946236
0,30735745046429
0,308724202952848
0,302646819607961
0,297238681176129
0,293477616613381
0,294115153768111
0,3119928539671
0,312041418763558
0,308302568923861
0,309942802105079
0,304364973754833
0,296374833395843
0,302183652622812
0,306544802264923
0,301258107804202
0,297455217859171
0,304691120243456
0,306792017087765
0,309879570766499
0,305026158318378
0,305462876573026
0,310808105604893
0,306817793973851
0,306295425044175
0,308496141355031
0,29721529770332
0,298829820670353
0,298724792800039
0,301323508376994
0,309822090611174
0,300877047040406
0,299724259776011
0,306161680556
0,29551169736049
0,299414362904873
0,304851545130163
0,297670508498131
0,290670966608207
0,312233040656084
0,309282385362966
0,308225672994334
0,307612340394627
0,300994721757251
0,296592543576162
0,299507284829617
0,304131984341598
0,295366180534251
0,288123253591733
0,305406879919199
0,29991509992648
0,302420059861965
0,299796250584597
0,294985478256281
0,298127098415015
0,291339854213094
0,286733969675033
0,290463560310462
0,294664059112159
0,300117065857695
0,295964481759312
0,293923910902307
0,293726720675446
0,290501199516347
0,290080561248914
0,29288454648549
0,292654070613708
0,301828171978868
0,295785581776493
0,290261545253218
0,284223623692461
0,278692921132258
0,282511253202981
0,290392313614479
0,286894725132193
0,292043073282368
0,283550967064978
0,287165498628828
0,297190211141987
0,293017936484739
0,28380670698849
0,292038200830622
0,285180510889895
0,284548005790479
0,28192696487137
0,284955717345787
0,283263187145112
0,281476902920202
0,286106614994976
0,289625300685005
0,279450193124894
0,275987045736274
0,272592218740982
0,280454409175614
0,275905572311422
0,279187828373248
0,283909389798119
0,277361182750422
0,28053265082703
0,2813122998517
0,269807565443416
0,274804282767816
0,272533965712674
0,273569482957206
0,27430291597894
0,267700546947331
0,270037000292039
0,271179143285871
0,265202420326201
0,272676811147255
0,264902540073421
0,265570127411686
0,264709819659426
0,256845628921809
0,262958037679241
0,262801179253346
0,263954104164255
0,267120009363998
0,251874499088859
0,263565619285739
0,262743271823723
0,262531870431668
0,260073589796832
0,259838656408432
0,263839168914056
0,253336412084695
0,246911911587232
0,261787769993586
0,249404623759138
0,25017203065256
0,263100700473789
0,255640054655954
0,249580845015061
0,2534147108382
0,242885943660726
0,251859077071239
0,244846175923737
0,245347299703686
0,248917454165007
0,246395039737357
0,244935199031192
0,245236482470025
0,236879445985449
0,241944954239819
0,241954409336223
0,247464777271071
0,244982147555911
0,239980794502154
0,24554122012724
0,244067895398266
0,239048789506637
0,234728797765902
0,232433992418235
0,236708075103262
0,228325699579146
0,232803954710243
0,232376513875987
0,232568036608636
0,227739840229725
0,228787606592264
0,223353722393725
0,228182125447542
0,222828363376028
0,226411390212592
0,222128731817613
0,220080951989683
0,225710786843895
0,224604061793735
0,217532189854589
0,220877603125717
0,220834073230019
0,223858590755103
0,214681969455833
0,210047845859269
0,213930965617129
0,21990198717314
0,211616559042721
0,211283192512582
0,209227005694962
0,211329753479013
0,205929321046443
0,207389520703687
0,208131271934338
0,21043102492518
0,210131127096817
0,205621689986804
0,201404295492077
0,20698079484401
0,20458310108214
0,203231067674798
0,200458898252376
0,20721100467684
0,206167214474291
0,200521920517055
0,19584800001721
0,199705067418576
0,197202667513071
0,197870212462964
0,188973316819202
0,196455996044734
0,189646871393084
0,187941104174397
0,187246322638069
0,189185207742434
0,184119080341703
0,184749094067416
0,184024297188179
0,191518613848099
0,18148130535519
0,180808153916677
0,187300286852536
0,188232656908767
0,185232924091243
0,187192615445999
0,176036067900881
0,17919128799926
0,173003228730059
0,174250936735605
0,174314584404461
0,173613475138561
0,173378830912076
0,175386038429739
0,172292474143315
0,177673202354234
0,170240780598707
0,166153545943397
0,168685585948642
0,167226143982421
0,163338612112185
0,166228630218056
0,159261776912165
0,164448187270482
0,165053166067706
0,164475914695707
0,156492740008118
0,158684121665493
0,158002213647281
0,166215203774961
0,154836546063632
0,153369513029454
0,151126399885904
0,156224824395271
0,152889442561453
0,15604437734809
0,152868462819438
0,15812499839397
0,153853334082589
0,149949904345757
0,149852949080032
0,146696600095536
0,145760753712686
0,154497628253252
0,148274681885145
0,148530357178185
0,14237413990653
0,145122150728773
0,141385022540198
0,143641863428481
0,142923684192896
0,147290364300137
0,140588319224907
0,140988655553027
0,134954225288423
0,139715529506908
0,143044339452427
0,141640148792164
0,134559340308403
0,137806202313843
0,136047157950795
0,139138774735873
0,134612568381432
0,130998724389708
0,128775274873707
0,130727067089672
0,126725728494281
0,134814167383232
0,131643764595752
0,132320415298205
0,126903153412978
0,128484195558591
0,126266098579725
0,125212031396184
0,121985309208176
0,123061959968307
0,120389071847566
0,124041068337036
0,118959805121896
0,127204060253539
0,124771460267721
0,127416600033557
0,116887013206788
0,112830473934836
0,116122637023053
0,119187224448064
0,118004518592128
0,118077678388216
0,114105935098621
0,117589557803867
0,113262293666558
0,115927386727263
0,115260282577135
0,112072100765823
0,108122813959606
0,113371748426888
0,110294262407483
0,113502031116478
0,104217287413482
0,114340059745991
0,111182826341485
0,108092537172854
0,107911552332618
0,108111882773851
0,107880412050405
0,107287683464551
0,104053487376438
0,108091453350228
0,107295543706314
0,10785731977735
0,0990441874130751
0,10442201365468
0,0974310079648338
0,103849136665376
0,100706789129887
0,0998417721899979
0,103183822318522
0,100154520742067
0,0964494388574161
0,101702572600317
0,0974563477620745
0,101045468419275
0,0913969851319941
0,0948293946810825
0,0922994862213683
0,0945602951143777
0,0989130977200499
0,0962831627211729
0,0940051173097992
0,0968902644480921
0,0939761692627657
0,09432550694611
0,0908012502174285
0,0953913520130378
0,0900163540553459
0,0927028125008564
0,0900577053683122
0,0933192292297639
0,0911431391039666
0,0907843881581167
0,0844960975829812
0,0904904272405562
0,0854677838145653
0,0884447760400945
0,0838052798204343
0,0820983635244819
0,0842064665195577
0,0927445891043902
0,0804659088843178
0,0830770992834241
0,0822515488044177
0,086033268582571
0,084335973176593
0,0865686828268791
0,0856182608528216
0,0814509912895504
0,0831299572621743
0,0893447453490743
0,0806446493772967
0,0852938890693287
0,0810889279491924
0,0788323101930716
0,0781710092723314
0,0865681106450004
0,0821158096763183
0,0794327831502465
0,077419636542496
0,0801099534046411
0,0755577047637109
0,0839595368166709
0,0820914028387308
0,0835827428474029
0,0781292376781522
0,0838456901655471
0,0812938932337301
0,0829830570010698
0,0768780258896916
0,0802534762902771
0,0775688148536022
0,0828022789230628
0,0808471969876916
0,0797970061439224
0,0811574363748087
0,0787750676108334
0,0798419454101582
0,0886705507124374
0,081551230232403
0,0809645156314714
0,0829194391383845
0,0832179246847924
0,079886292728002
0,0831810535249253
0,0806795964385505
0,0865844327289381
0,0850155656133639
0,0877761313913636
0,0812844510863912
0,0858887856604435
0,0864089610944224
0,089822833946584
0,0830159574371493
0,0845880016166987
0,0818046213455831
0,0867500134302614
0,0862451936682068
0,0862469387780047
0,0898972026797858
0,0917881657459545
0,0855646451002261
0,091369104244001
0,087880180959468
0,0854080288994536
0,0840077025494476
0,0915071346819768
0,0898657936786896
0,0911184437196539
0,0920021483712971
0,0923213092064788
0,0904918794800302
0,0944431800851067
0,0948023276305336
0,100056620559133
0,0921808112411907
0,0930672696832451
0,0964315748138972
0,102802731318039
0,0991823355499904
0,103652377240435
0,0964527305808833
0,102130226907895
0,103353916893874
0,101977058564895
0,103691344223027
0,112077782650392
0,105591803956051
0,111874543814666
0,112701696275063
0,108591025585726
0,110299147003913
0,113854100034981
0,111763983493154
0,121540101537589
0,115858278554171
0,11571105322162
0,117938874817499
0,117953480525507
0,110298214523108
0,121335284555767
0,11708913181465
0,115071272656917
0,11527230498114
0,121891317082629
0,116421921607455
0,120645750737957
0,120463006797422
0,118085991568362
0,111403980924558
0,116090460364864
0,116628833586014
0,11499758329391
0,115326435148635
0,121852141214811
0,113958510935931
0,120948920008402
0,121162230452213
0,119893049457769
0,111909107816503
0,11843469556311
0,110730037922449
0,113677530435991
0,10932949513795
0,113111094195523
0,108070035855128
0,116064068682541
0,110203879912214
0,115097242752651
0,111014331107599
0,112890594912366
0,110399057774079
0,116173466165871
0,111330607466679
0,109973936786779
0,107224171197343
0,114617512489998
0,109644441202751
0,110868014311296
0,110226718746259
0,11125593174117
0,107940915143686
0,11283139993812
0,111371970831581
0,115000441000679
0,105449130301322
0,108665957668468
0,110981132046134
0,113524783857708
0,110720541632582
0,113751771364762
0,107969031628672
0,112847066785267
0,104096709984669
0,107747749826447
0,109056053443769
0,109455134763841
0,104991818000828
0,106523475417082
0,10360692479162
0,10564390737826
0,101479077060307
0,108763113416158
0,101073000432773
0,10044827089685
0,0986519840803482
0,102259651764284
0,0954291534590288
0,100257664145736
0,097582714479188
0,0982061130263309
0,0936116075698723
0,095013862731892
0,0922448780711311
0,0931908613790386
0,0893426123458118
0,0937087104689734
0,0850848380913476
0,0937976338340781
0,0900384294331952
0,0901788002930514
0,0864285555608801
0,0877448765173056
0,0861288338959466
0,0923294315882137
0,0852388762043729
0,0874071374477912
0,0801966652524902
0,0883493428069138
0,0853922930779445
0,0843161380778065
0,0863277056787057
0,0859335952526957
0,0812159563284365
0,0803251828870011
0,0746700622924259
0,0799678213091179
0,0808094410160294
0,0806469189501841
0,0752141682623808
0,0827463815283354
0,0725796198312963
0,0798248353740372
0,0725884866655485
0,0801060309447867
0,0759564487848299
0,0779154348514109
0,0706679945606302
0,0763422202149037
0,0744614548205865
0,074131185388576
0,0688146232726566
0,0776623392808991
0,0738471789957015
0,0736546319893155
0,0684097017663494
0,0740739589159148
0,0688036919839165
0,0731197842681007
0,0682340440527575
0,0711511926675854
0,0671250403654044
0,0717103848588519
0,0686303193075514
0,070388331881525
0,0693541777224991
0,0699653936452835
0,0679024191680579
0,0685147756774767
0,0642398632242473
0,0711990015285475
0,0668369476015651
0,0688243038563186
0,0650533256690704
0,0679446338937789
0,0668943943760745
0,0671044082890732
0,060528799074405
0,0661065641375428
0,0591771662137066
0,0653331352789491
0,0592985208075517
0,0633889295170441
0,0642725516181904
0,0638743032936001
0,0624832611147036
0,0664515556484344
0,0616339475305826
0,0657240005339986
0,0605939408807477
0,0599230087660681
0,0604546329585292
0,0666230289469722
0,0590178051995276
0,0614642010486188
0,0585168269344916
0,0638297192637061
0,0591157636635088
0,0617672721095575
0,0575594643526806
0,0610049653180656
0,0598752206136517
0,0619725452482908
0,0624186059794927
0,0608931245589009
0,0570728594475137
0,0601514153984933
0,059652214958841
0,0602797043359683
0,0543178582281897
0,0616067698249842
0,0598263613709843
0,0615053834255706
0,0584479995168569
0,060962465465396
0,0559300138872135
0,0617833727106999
0,0584684220234017
0,0599842842157111
0,0580229874777915
0,0596701739524476
0,0560019844286528
0,0596368155089023
0,0543551492990869
0,0593106695250528
0,0562287095971565
0,0556623828488416
0,0535663746389817
0,0596247468216383
0,0552409144805319
0,0587227598411643
0,0551476810003481
0,0600192067239078
0,054870205947457
0,0571986828330346
0,055399908718904
0,0569391071556549
0,0526382291758984
0,0558028837329419
0,0537949279547663
0,0566218733663896
0,0504406826480191
0,0521153661507147
0,0492643226356743
0,0552572321351323
0,0500709693856992
0,0522269458459616
0,0529341346188012
0,0551744719231788
0,0532203229258003
0,0566817869825623
0,0506599291936505
0,0560886139527103
0,0508430943912504
0,0532479986646596
0,0540237861109135
0,056433531595739
0,0499042748934055
0,0517150845183942
0,0506403329288086
0,0549336663747784
0,0478145675472961
0,0533491169795623
0,0521267080066475
0,0523879435731104
0,0508723795114865
0,0575703164288262
0,0514156798183137
0,0542782796613331
0,0501524271613038
0,0522228725337364
0,0517986467352663
0,051694952850309
0,0513390905564997
0,0543165296683754
0,0518030015660383
0,0583383932624376
0,0493425191759286
0,0561875676014806
0,0530099811699234
0,0511639255699883
0,0528630023688728
0,0558888064028617
0,0499577428057042
0,0505037554766063
0,0473737603668527
0,0545587967173957
0,0494274822625908
0,0546914648842747
0,0464603900518212
0,0504367777309994
0,0467420461164343
0,0525173551288218
0,046931086737134
0,0520042362020391
0,0460851408565976
0,0517475723942982
0,0466117028043558
0,0487391826870065
0,0472037734171065
0,0507879425092004
0,0452536755063926
0,0500291454957199
0,0444163269022854
0,0475718896323059
0,0469763562997359
0,0490183607706365
0,0454427697961827
0,0499873823466996
0,0455906877110053
0,0493754268002485
0,0461141284004838
0,0471690725044502
0,0437106912764427
0,048341123181898
0,0436424558398199
0,0469864186036446
0,04429345901661
0,0471871125577145
0,0459602153838619
0,0475456544253149
0,0432550994534703
0,045175796645167
0,042227706769579
0,0446039860327149
0,0444112126144683
0,046388514737307
0,0454595614378355
0,0468316247989302
0,0438550292330128
0,0477117277256305
0,0449860699127976
0,0457631727107496
0,0445830219650157
0,0466556108334519
0,0453940443911516
0,0432259031103815
0,0415485352628142
0,0475006997195336
0,0463793981788407
0,0471804544647006
0,0420666183543823
0,0457466235358352
0,0448477407976629
0,0458966130797367
0,0392063222938975
0,0459263468425952
0,0373916061389626
0,0447667292431013
0,044077430475149
0,0439612156205814
0,0390322808846
0,0431552494229797
0,0388108402873212
0,0446959096246804
0,0380296174666716
0,043059208630216
0,0407760238531325
0,0444040771280778
0,0374391666934578
0,0424825223743699
0,0386303258992379
0,0428766180053255
0,040100046248308
0,0419793166716598
0,0358331645213176
0,0393082586283026
0,0362895526299698
0,0401704005959132
0,0362374252371641
0,0400974361817541
0,0356836548755086
0,0386514124782944
0,036158898798556
0,0412483253398852
0,0362557579856878
0,0385436743473811
0,0360645828935118
0,0378363235081988
0,0391531779656501
0,0392730870409186
0,0358162708579969
0,040215866433977
0,0345242300308859
0,0408608763844775
0,0348412452563945
0,0387443367944074
0,0383359970524359
0,0382761727820111
0,0379535301327535
0,040175401801295
0,0333793885770172
0,0392253385476654
0,0383597411734036
0,0382835787158609
0,0373065798870995
0,040370599521444
0,0345677412232396
0,0382778146634998
0,0388029904325106
0,0377143138649707
0,0348461990101437
0,0408983403578847
0,0359107144289664
0,0369244195958391
0,0325869223502579
0,038417398730914
0,0342890167620574
0,0376814516242092
0,0359795114542501
0,0376996865691115
0,0352076946795605
0,0385020158440692
0,0338242950869788
0,0374331499756852
0,0358364025839666
0,0383802632547566
0,0337391213561351
0,0368534704170339
0,0334163746537385
0,0347831749444317
0,0338905919105598
0,0357062844056544
0,0316814107733521
0,0322612494899595
0,0273748327703128
0,0344717033344971
0,0337548050436577
0,0358833333833911
0,0322733470478824
0,0318610263942844
0,0320213325099038
0,0333997555960742
0,0307300379690709
0,0338213210060044
0,0335947490397094
0,0348710887544118
0,0295643699878641
0,0357020421723358
0,0317305800165207
0,0344688853329904
0,0337544249825157
0,0378440018974487
0,0307248184011731
0,0350905013143695
0,0330601736074742
0,0345517716776562
0,0336447516014037
0,0354221161651372
0,0322089611182689
0,0341816936477569
0,0321468982880016
0,0353951013006474
0,0317792440011081
0,0338714562127598
0,0302249250187899
0,0349928970396574
0,0293966915024629
0,0358190157745697
0,0330022017813468
0,0355093220309797
0,0314819474394577
0,0341585110961487
0,0323529453766197
0,0347748680970567
0,0315657581561232
0,0339213814276656
0,0318529609588251
0,0360344614346675
0,0320077688039017
0,0344329800794951
0,030630880145214
0,0324585731135609
0,0262995344579437
0,0313486347501489
0,0297699093451117
0,0334628408771807
0,0344898493279362
0,0335959205277096
0,0302091162562157
0,0316082239566815
0,0274242039065923
0,0320456036985875
0,0296634447589624
0,0317995888231486
0,0294329338164046
0,0327314848982601
0,0291822990961591
0,0320074611718667
0,028253602629975
0,0311080348946229
0,026714594631824
0,0307748850008105
0,0268590921752143
0,0291018709765954
0,0299547573746682
0,0331586995752737
0,0280402805639953
0,0306110766691198
0,0294219355088605
0,0320371285947571
0,0289736612444155
0,0331886824423845
0,0302725687404854
0,0316668869642845
0,0276167928409089
0,0315325278214849
0,0271585687381117
0,0309685088035452
0,0308449120946455
0,0321243810655696
0,0280546895578367
0,0329814322889637
0,0289796525237947
0,0320763525013196
0,0307798228323411
0,0305295205585151
0,0270941013099878
0,0307583983066431
0,028201951039377
0,0297346625445046
0,0266947342218363
0,0305472354469386
0,028087645058324
0,0306270401680227
0,0283121101384561
0,0295597307727369
0,0284710181568379
0,0302154880951433
0,0283393325500194
0,0307443836828981
0,0272327208105924
0,0324821827300139
0,0269909758061238
0,0290722794710081
0,0258915289831906
0,0303940397846759
0,0235907729088505
0,0301777951741856
0,0247135922876048
0,0313663716346242
0,0258584342921294
0,0293733920723828
0,0241049087623205
0,0268533969144554
0,026203512993952
0,0305936500168058
0,0259461337722124
0,0295732443680201
0,0246459375316069
0,0281919013145114
0,0245879738418576
0,030344374487704
0,0246695500028499
0,0283585831574364
0,0269639731292455
0,0278593546440661
0,0250602628760264
0,0246957341088025
0,0226969506228074
0,0288330334120519
0,0267478974836442
0,0283215125025725
0,0265988114962698
0,0262673126492963
0,0243188695935102
0,0298727633041673
0,02572600498601
0,0277784862043256
0,0230579907516803
0,0260999004225621
0,0222956030772356
0,027944239004369
0,0267721343196055
0,0299755202101861
0,0242527834493289
0,0300766611989972
0,0248653221578152
0,0263440347646537
0,0248228433809533
0,0267364988115216
0,0242059217018928
0,0288170270023807
0,024780935020894
0,0269681908678365
0,0239599832555163
0,0257893363591679
0,02192453576767
0,0270318209404322
0,0234774992396301
0,0288233996647405
0,0222151579200027
0,0239564171309237
0,0229433660836458
0,025789294886339
0,0211503932131799
0,025732098902192
0,0246029238710321
0,0257992360120864
0,0234626177494526
0,0275318886580197
0,0215830162161035
0,0241844018171859
0,0202622840764861
0,024037612133516
0,0186540236465536
0,0233058095141811
0,020274208629568
0,023778210451125
0,0213639313557115
0,0277526964114476
0,0209190581215586
0,0262202407136993
0,0216503671918895
0,0229172744851235
0,0212657922971168
0,0230117005927143
0,0193383260179621
0,0236065358676336
0,0187540554107655
0,024995076112681
0,0213737942662957
0,0223938963598657
0,0202571919657908
0,0232446153040883
0,0226247194969988
0,0255352098002612
0,022264443858799
0,0244124615604034
0,0212146032456173
0,0260309536615324
0,0220628830673563
0,0272270501093614
0,0202154190378788
0,0240527374195045
0,0209667317096422
0,0270545646242523
0,0235082060449868
0,0275931694676962
0,0236823362602072
0,0288968943357655
0,0240302472232494
0,0276559850969868
0,0225912402385679
0,0199245822100193
0,0141590809520908
0,0207744345402447
0,0150457356183335
0,0235272442180508
0,0174197882977491
0,014371102957988
0,0201132450534566
0,024899433654972
0,0134328120975195
0,0221368941570976
0,0140918972982108
0,0223775440834674
0,0166353201729027
0,0258907396823981
0,0108159106210619
0,0222764749210676
0,0173937736359202
0,0298795690478498
0,0222097175271462
0,0264658881300972
0,0239589481563883
0,0249032592980064
0,0169300876599805
0,0227275213699184
0,0134363422884505
0,020421397890177
0,0102325063964409
0,02499808197802
0,00914905835749975
0,0235102096936204
0,0103699771189824
0,028799901577764
0,0113919480073332
0,0246577523727286
0,0126112550503991
0,0315284287071095
0,00665744934048176
0,0308198963505451
0,00205816194821585
0,0291190717830138
0,0052133879360269
0,0428586898973385
0,00367426390902911
0,0435144089011574
-0,00474042614251227
0,0477180098212506
-0,000387544138519286
0,0491023781518014
-0,00546423155915177
0,0494557751149534
0,00204605543493504
0,0515949793129506
0,000917017009657574
0,0459500730296138
0,00439575185790381
0,0400103022438418
0,0129661185960661
0,0308335255036911
0,0222233673637677
0,0199848863386176
0,0281587636883101
0,0186285228799863
0,0268230734416855
0,0174060295440045
0,0260444074083922
0,0198166289234299
0,0260322361223283
0,0237109068677693
0,0206430752023574
0,0254169940036618
0,0199276851750792
0,0266139493464144
0,0176046051219809
0,0226667565977451
0,0194406253425907
0,0208055524245191
0,0210980111420172
0,0198529621531772
0,0197253969425872
0,0220261561994856
0,0176316388582523
0,0203052174896457
0,0160197300160466
0,0216105568760033
0,0181992878459775
0,0223968339636869
0,0174260628202751
0,0202056591401064
0,0164186072554015
0,0210959615987999
0,0182094646290091
0,0222827137657863
0,0183734639477596
0,020385482992885
0,0171878130659434
0,0185045974542321
0,017322508838795
0,0193632288055928
0,0168153666270079
0,0224884490283207
0,0191158784439702
0,021070945686407
0,0178498218226053
0,0231838992757794
0,0201763671974314
0,0183628048598187
0,0189457754498224
0,0193489731189829
0,0173352819999918
0,022832394780143
0,0156745039288516
0,0195213399709453
0,0205558701460417
0,0212468801550165
0,0176450574302325
0,0214829833450736
0,0167577522159274
0,0222158671473705
0,0188665024903644
0,0199157260186996
0,0194556554469999
0,0212829108206004
0,0175728769214867
0,0220183906198119
0,0176504981578061
0,0184341862578101
0,0175832961100783
0,0204340804775699
0,0173174480476465
0,0203031389949046
0,0183481360119207
0,0208202622835502
0,0157744248607226
0,0214034214409992
0,0171246073307062
0,018224234696846
0,0187398073470045
0,0215912814581481
0,0179914708553612
0,0210053169446129
0,0172486018246105
0,0208986784846257
0,0170942849819146
0,0204315434913495
0,0165024310745819
0,0182965424600925
0,0177146834434448
0,0204006764475372
0,0165326298606016
0,0182961306788516
0,0158800286262241
0,0195112898561131
0,0164769644766151
0,0196864301701637
0,0175423561471207
0,0177482787235567
0,0171336039020836
0,0219075808244526
0,0170929920498661
0,0209965149781555
0,0163690069783543
0,020346541940216
0,0162458806095383
0,020483667250115
0,0197847950616175
0,0194613973120861
0,0194156507193114
0,020970507788289
0,0169986239913294
0,0187348317007315
0,0166657363665518
0,0207783257325781
0,0188956779056031
0,0207861628674025
0,0189565292422313
0,0194815101155589
0,017673560553939
0,0200664360525159
0,0159992208020468
0,0195694687575649
0,0171517529557292
0,0188093835388328
0,0170331959734639
0,0187590341013688
0,0192193406492403
0,0217017592079508
0,0177652812491296
0,0213831042313113
0,018285817739289
0,0212754893701536
0,0214159434260693
0,0196673240762547
0,0194051819983109
0,0195911892588694
0,0166909195038668
0,0205865980162687
0,0158171934658871
0,0201390272291942
0,019253865521639
0,0176813631427248
0,0196723823938437
0,0196035058687532
0,0152852222443165
0,0188268861825768
0,0140560747324685
0,0193630861060922
0,0166551447373487
0,0192256374330656
0,0170382400011063
0,0218828130714439
0,0165928139770437
0,017715268847698
0,0181018348309118
0,0207180174697985
0,0145457994972281
0,0194997930703464
0,0200264599045475
0,018744869238491
0,0176221771991754
0,0208525636051931
0,016440943811763
0,0203418280150374
0,0150416143009134
0,0218599270344695
0,0173357039603802
0,0198173594476156
0,0175892928191892
0,0219809400839809
0,0186673465961671
0,0184027482572705
0,0168728757897371
0,0220546898541851
0,0159305423867002
0,0215335832777742
0,0171543425825675
0,0191920629254044
0,0191042072854764
0,0211310789869467
0,0172163275591246
0,0210705448485888
0,0185560645867769
0,0197420171542896
0,019162066172634
0,0198685334369511
0,0166253375339272
0,0221982321495255
0,0186475944915244
0,01971630384771
0,0175335434155502
0,0231824452360572
0,0174573364431259
0,0180895286369356
0,0174396455061269
0,0186005830846516
0,0160629110850034
0,0180540751267019
0,0174236148260678
0,0210532542936099
0,017801125054366
0,0205224886153441
0,01682595644819
0,0191306003647638
0,0168041942543347
0,0191579552948788
0,0148199184232304
0,0183590724860464
0,015643271163546
0,0205896201077974
0,0173909134790163
0,0191522190644582
0,0185734173537171
0,0160971781885121
0,0168265365873877
0,0198497227204506
0,0152217828262724
0,0203930008642375
0,0166631361429677
0,0179693127773677
0,0150558469086639
0,0175234865924252
0,0163010062211784
0,0177483509604697
0,0163178769908177
0,0220152410000186
0,0167159409799969
0,020636667314176
0,016479299042173
0,0200582164053995
0,0168876692121767
0,0194990996739961
0,0151382156891383
0,0193692911350216
0,0176322072911465
0,020221944156115
0,0170292539121271
0,0178936790482489
0,0159337478119209
0,0180956080356002
0,0164868981830888
0,0186846666275139
0,0199561343606496
0,0212841275377995
0,0163335744908955
0,0188590976772322
0,0155301744968021
0,0186514547026139
0,015959264309337
0,0187680694171741
0,0168444621538745
0,0187276866208655
0,0160865575889755
0,0213193927381949
0,0155621674457301
0,0182961598903791
0,0157427721998311
0,0188975360935711
0,016323229243213
0,0188323179963414
0,0147337159922756
0,0204921543184102
0,0159349026207214
0,0170832047171486
0,0144261927793398
0,0156385544686693
0,0168739269197137
0,0170713049384253
0,0164798107133223
0,0201085923043732
0,0142076612754399
0,0201556869800578
0,0147674841807199
0,0194621490868219
0,0169805319584606
0,0168034230634915
0,0154850353207296
0,0175988920067117
0,0132201188191454
0,0186595023440916
0,0160993942092937
0,0187430774867232
0,0164513328838162
0,0179845337087024
0,0163904070985444
0,0172870276145709
0,013140008695659
0,0189719581336813
0,0147340548793808
0,0185604757262008
0,0162082145505622
0,0169558621804709
0,0159407945002302
0,0208566998729121
0,0196816436876426
0,0205777674964171
0,0145819206896727
0,0204569742560957
0,0169768945034393
0,0179246271302185
0,0159956574320848
0,0177831721766067
0,016597618253378
0,0193899795453858
0,0154181734364098
0,0195579870422888
0,0147974659020617
0,0170271787453904
0,0155895829969575
0,0181194632110082
0,0170768860426678
0,0168797818541489
0,0141810436554937
0,0180789945208392
0,0141560567989706
0,01864211220504
0,0145379398009889
0,0172813430302086
0,0179884489144614
0,017261878334949
0,0185692468833323
0,0195597445258738
0,0160718694160888
0,0170281160551216
0,0144016787905012
0,0191662851892674
0,012583648188943
0,0173242298043883
0,0151313982653849
0,0151449900365787
0,0141822388591291
0,0169110168974187
0,0124180771464711
0,0158045490461675
0,0174845048943709
0,0166991911641695
0,0134797388528577
0,0160217955349837
0,0151461611219986
0,0162199925300603
0,0137553107391659
0,0148647953060326
0,0159048078183043
0,0155274052004139
0,0147007066064317
0,0144535865305437
0,0168144484122018
0,0268459232711655
0,0169927402484043
0,016825920585005
0,0162328871215897
0,0185452387745227
0,0137739153990905
0,0175772925171808
0,0140289553364912
0,0169975725923473
0,0132415986992128
0,0172376470683029
0,0156389764036104
0,0180108030419094
0,0146886953062164
0,0157024180732271
0,0139600415818627
0,0167025565080793
0,0137035268027074
0,0174488495656463
0,0128409051315759
0,0170596800153967
0,0134208233666196
0,0156480351616917
0,0161449591046679
0,017062825941531
0,0121131061184132
0,0213835935855886
0,0177021201192207
0,0204155609940449
0,0118564473742374
0,0153227671463305
0,0128374402675127
0,0177974097393101
0,0153345722209032
0,0161826237254254
0,0136808274854252
0,0150478152866686
0,0115025002752611
0,0169859122777812
0,014589480671875
0,017263041785481
0,0115806585514272
0,0158099595274783
0,0140699759328742
0,0154646150909114
0,0103012206481536
0,0187713394155791
0,009205422283202
0,016371493061764
0,0141486673702934
0,0195007339849709
0,0112395780135808
0,0163055610832623
0,0308260213685095
0,0157706914249247
0,0135438776629356
0,0152090742020074
0,0151598629649125
0,0160279928118365
0,0127903740216034
0,0140207048106111
0,0140271860512721
0,0158711384579733
0,0143302728110738
0,0156768573431183
0,0150678149407336
0,0142738775561415
0,0158519201039852
0,0143358021426742
0,0152527211819169
0,0161091595971226
0,0115326845544029
0,014919797949063
0,0160831760991682
0,0273527902437868
0,0206545446259951
0,0172453432379802
0,0189445205811689
0,00635737627578887
0,0287098307354824
0,0245996775431204
0,0153244409076469
0,0162024955798914
0,0138489040843006
0,0131407470664164
0,0125333331246448
0,0138048825016988
0,0162281260669625
0,0222668172418584
0,0128719596196988
0,0208119229051908
0,0125961473174081
0,0167925581259385
0,0105916804720214
0,0153522364030488
0,0115896887213943
0,0151861894179207
0,0131058167147033
0,0153772692654754
0,012454859350412
0,0137796285585651
0,0139578150370633
0,0134440413438947
0,0121161197736647
0,0181258592271966
0,0143126399780248
0,0138861316345683
0,0118720264005444
0,0147912177962388
0,0162034697457114
0,0345670345021127
0,0133470482049077
0,0168413069418931
0,0105209474994126
0,0164159807776932
0,0137470639105693
0,0157255838104229
0,0114937464444161
0,017618965515469
0,0114517510379509
0,0165374707822641
0,0129001245828346
0,0158778582609217
0,0129928074788078
0,0160351000957481
0,0114541796006551
0,0149817159943579
0,0125981413785199
0,0164871029516892
0,0169059017575911
0,012402175653655
0,0232100856280263
0,0342623124140336
0,0202868576791898
0,028502225486786
0,0173963105675464
0,0188985792792679
0,0133596608700831
0,0143015632829736
0,0122662330329187
0,0185142432715803
0,0127207075096135
0,0152964580733475
0,0132157170074279
0,0177774011670472
0,0118473828770347
0,01664902018245
0,0101450483509883
0,014814400023061
0,0111261378828578
0,0149804023493605
0,0109528947662086
0,0185364050406416
0,00718252633828529
0,0189878917894907
0,0187231514082849
0,0205464298701773
0,00627379826379951
0,0350652059550662
0,0366227044930875
0,0180526754986605
0,0206767953879638
0,0142319324742532
0,0126888325330547
0,0119597498758701
0,0119844611955282
0,0202039746201015
0,0146743466235986
0,0131914126745868
0,0116643109595519
0,0194450747251276
0,0137596803562668
0,0075833558170899
0,0156945492480894
0,0394950182092525
0,0241530635178908
0,0187110684733481
0,00919288119539973
0,012309802554536
0,0364727966969282
0,0210415058604396
0,0183205551501918
0,0184971193407908
0,0139831957771185
0,0165506505992525
0,0133402127443431
0,0163663822977084
0,0144106344396236
0,0178427128967477
0,0106384772115063
0,0152982773065759
0,0101650346754449
0,0192883881804508
0,015042518801638
0,0248731598244492
0,0236108353331512
0,0157878942438314
0,0153231122699941
0,0190850918261888
0,0135287005982309
0,0159107971988902
0,013667724907921
0,012924974757257
0,0195862415900044
0,0317963000843844
0,0152599156241423
0,0299348534090373
0,022534075431191
0,013907944877294
0,0173846820992691
0,0238844504720916
0,0234302267921572
0,0112893335854997
0,0117216718924202
0,0459603167832958
0,0243628027731257
0,0358236240281809
0,0151740234750861
0,0166792461409917
0,012639028603849
0,0179986930056891
0,0052572990560463
0,0270078184189531
0,0172387081684749
0,0179235398671459
0,011197943423894
0,0204155821408837
0,0255179453553797
0,0216480927957406
0,0181615826453182
0,0151977125003017
0,0117828893598481
0,0269284930578121
0,0216025269880394
0,00794466443324271
0,0378554469363066
0,0369833548967104
0,0338176728747877
0,026608837214545
0,00930209319699367
0,0523120813546138
0,0214287314333116
0,0211737018905198
0,0163348515922934
0,0171351521251892
0,014196988195007
0,0121557332346281
0,0399302925654357
0,0278492823897591
0,0108969052894869
0,0232056354959486
0,0090158888469669
0,0344459243175635
0,032831596049221
0,0177927470638433
0,0152718854087439
0,0202814534108356
0,00727193285570328
0,0494060976826494
0,0392634438009258
0,0248654774138494
0,0471895618661017
0,0319579229396585
0,0321117944139799
0,0279562317914865
0,0211706712211001
0,0279324217961156
0,0384029190697587
0,0259075608891661
0,0111174388966044
0,026078400188462
0,0455496915856497
0,0211680194178126
0,0269369662032132
0,0227316672758135
0,0101393302679511
0,0423258196598857
0,0741493109745955
0,0520888945730789
0,0305792042368712
0,0230563144462203
0,0446026132747589
0,0315013525388146
0,020933407592932
0,0246937096254125
0,0193945746555141
0,0228246614472693
0,0221141838481488
0,0339320400269059
0,0236663955674501
0,026054513222699
0,027618399086457
0,0204493631046707
0,0389205615099101
0,0732977267249753
0,0584814223161804
0,036232863763157
0,0558237557074866
0,0524281444877576
0,0361671747834415
0,0311734649581942
0,0231079239393139
0,0381214495947194
0,0287642095150455
0,0289569247788462
0,0227988149400518
0,0454105519866851
0,0389909286971023
0,0377778811125991
0,0532630248017321
0,0329503010510044
0,0274573314514186
0,0219473530399641
0,145418812836398
0,0670723316323209
0,0424592385038885
0,0398705751567934
0,0260862921901069
0,10344561470072
0,0465060590750215
0,0358141006184723
0,0343962286660777
0,0286692353063382
0,0313570715592299
0,043271968894898
0,0407063780607655
0,0511761131823648
0,0371467496434918
0,0337280590623162
0,0304582400341426
0,0980834883500797
0,0894042697826691
0,0606642419080328
0,0385375628878665
0,0530520730801281
0,0522414486972802
0,0423594504579897
0,0387452540111383
0,0402299701372629
0,030460855746653
0,0883431920332291
0,0491568742855874
0,0379278409775418
0,0423394759034457
0,0641565137395333
0,0426665875704949
0,0741331812154294
0,0742378421007696
0,0476877543220852
0,0502174476458176
0,043933032425036
0,0480341175653665
0,0392652877553141
0,0730110246394481
0,0677615825188809
0,0496954911790611
0,0564010532300805
0,0484031122799018
0,0476069483906951
0,0488063999318716
0,0549261355503032
0,0515941863868266
0,0781619456175564
0,0658950303882189
0,149011422530178
0,0957929016218418
0,0570104700055209
0,0540256722174325
0,0451403657678016
0,0833675709862704
0,0849433465250429
0,07519635127018
0,0890263654685198
0,0516470801989955
0,0553712887906308
0,050606675866927
0,0508782657568124
0,0519158803879782
0,0555444953877165
0,0466585336273188
0,0621368702005476
0,0599293196961594
0,0637622399559396
0,122742943540544
0,0622537908513278
0,0487789258244117
0,0490217043328942
0,046284062604008
0,0503802676844815
0,0438254558431696
0,0489664491064013
0,0644867953183154
0,0507514337678194
0,0472528759191884
0,0429279646976505
0,0577099458553855
0,0776208445276265
0,0463813008669446
0,0466027738726356
0,0412889959424523
0,0478679048457753
0,038000760801138
0,0344193489662711
0,0872992253622662
0,0537349998357254
0,0376629884690029
0,0449983823894076
0,0328713997415315
0,045847584401471
0,0348617000559503
0,0445337574471943
0,0449088041087624
0,0385678428310684
0,0441366833611282
0,0397137585226102
0,0344073522929361
0,0422554500671346
0,0380698486574126
0,0435501049152532
0,0385089647976591
0,043800384301894
0,0353878158424356
0,036562276764879
0,0351241526079158
0,044652359156158
0,0392439729453876
0,046654254175537
0,0405707662506027
0,0392312599353466
0,041588961627683
0,0421516228499261
0,0390784560424893
0,0441991341106964
0,0375105208953789
0,043803933349519
0,0381064503377457
0,0418509390670734
0,0418179092282255
0,0420208304524902
0,0394304743428749
0,0428817747817717
0,03947575716235
0,0448717273110744
0,0365982835677124
0,0432377372545675
0,0354910901001277
0,0607317114261078
0,0786726786299526
0,0444022025943922
0,043974085813747
0,0426132694939973
0,0375177758336421
0,0380532886162733
0,0586863671973695
0,075561586257438
0,042479896948735
0,0440649193239658
0,036806831166512
0,0517423625537141
0,0501959368331327
0,0417266271540755
0,0382469313961899
0,0411288579007854
0,0400385242596063
0,126614011112085
0,0741972124921555
0,135120128285662
0,0658400178158354
0,0440311840386331
0,0416859531892424
0,0815958288424241
0,0483857393957358
0,0354471658096315
0,0479126695207199
0,0617858451046781
0,0593994228622167
0,041473873406943
0,0380279303395603
0,0376464620393563
0,0479186031536653
0,0660393001481229
0,0487343692465631
0,0502230645406295
0,0777997889175645
0,0575872667646586
0,0598726518677412
0,116109957916637
0,0717461536045541
0,0435559048003271
0,0403772043538861
0,041936379067936
0,0464256170091534
0,076322453614516
0,0549349220069199
0,0475202793814526
0,0385515752426116
0,031738103979924
0,0375010695258071
0,0574003717759507
0,0544675616896859
0,0420126194396791
0,062083857448361
0,0490472165079579
0,0303798279540561
0,0658924704514736
0,0532903128701184
0,0949177587518836
0,0487771257069675
0,0378631814994138
0,0532037249928251
0,0771785302170377
0,0512225910004074
0,0526162619677981
0,0361141227975476
0,0367092978501405
0,0525472531219549
0,0425441017527061
0,0459486102680732
0,0568024586610018
0,0544676310048146
0,0809931498554926
0,0853660899051366
0,0871277114937882
0,0527035434575091
0,0375433145242744
0,03416307088214
0,0434430828005202
0,0335886479589863
0,0371438560663186
0,0328516383870796
0,0573367032779583
0,0309962102958755
0,0729951074632534
0,047633965141982
0,0301745145129944
0,0379820728677265
0,0329917554296945
0,0402655177855934
0,0722960967404559
0,0712762222947452
0,0655215666388446
0,0378323618172538
0,0587481034047924
0,0455644561523101
0,0408495962633339
0,040761183632844
0,0415563004416092
0,0409619509469352
0,0503872042277558
0,0461729556157464
0,045957804786898
0,04426205012486
0,04753037174514
0,0630832611825008
0,0738715871608113
0,0530305299822454
0,0576405149436111
0,0915097875499297
0,0848733049656041
0,0774381327101188
0,056332644981067
0,0558580960265743
0,0573274617319298
0,0597698798730065
0,0608234225730303
0,0617032726268128
0,0890435882034214
0,0714943222866258
0,0650478694420997
0,0694634344335967
0,0586934223835026
0,071412555235416
0,0742808521443914
0,0979512991569224
0,0895023882990353
0,122571284990022
0,0890954718736948
0,0766709196331983
0,0685219664279153
0,0753268487560114
0,0795071101789644
0,0667264650695296
0,0727677739207885
0,0713504288742524
0,0882023365887695
0,0764928624755697
0,0682839030947437
0,0730490817574482
0,0693066572326319
0,070319635103718
0,0694127871499508
0,0701159066153093
0,0757667711590908
0,0688552072240813
0,0723429275205782
0,0732646485553377
0,110887534631073
0,109063914212507
0,0697495485679309
0,0809002533510328
0,0783830631409224
0,0820000340248447
0,0767843333183081
0,0844066115892418
0,0882903851190911
0,0784801124052426
0,079303359497445
0,0815427020194858
0,0811604694331861
0,0971227069819161
0,0962265334488022
0,0919432872484784
0,0761132032819108
0,0913477292061164
0,0780640226557379
0,130244917207724
0,102373548153115
0,0975094443400142
0,0950993349466424
0,0835839103163842
0,085613544374847
0,0813986938617956
0,0862116029800886
0,0859117331117038
0,0858650565240867
0,0834080874040693
0,0861278790947506
0,0795727111965161
0,0825752883571159
0,0823785625875927
0,0983036385228752
0,0930035877474906
0,0786248395107376
0,0848911607983992
0,0782773826429198
0,0847433479826619
0,0908543968153025
0,100689579358047
0,0857730373855388
0,0862521011676115
0,089739989381971
0,0980960090348371
0,0938758763019804
0,0799116300473486
0,0773313786456089
0,0832400803626498
0,080617757904016
0,0802773698107541
0,0776517405589733
0,094074137711503
0,0922626413895847
0,0819920911612932
0,0829028375855109
0,0805907843298231
0,0859134238834814
0,0800248819387963
0,0860355695835117
0,0867755616743251
0,0866980484893965
0,0893181379329519
0,0883687947170867
0,0872106627117493
0,100126917951127
0,0907236047096221
0,0966990630270315
0,090989209579814
0,0844250623060353
0,0885034729599124
0,0864595373386752
0,0971160068558455
0,0908767115449239
0,0870535964075663
0,0888284538121844
0,0820933443508828
0,0919921165438663
0,103507079026236
0,0992313188489121
0,0882910271703662
0,0944219304544648
0,0763303107307517
0,0881395169979756
0,0791751225159781
0,0840615661393503
0,079800250411878
0,084291199740295
0,0796090594422576
0,07953419296561
0,0804702433122626
0,0805321130753365
0,0781443326740999
0,0812049065201068
0,0751458484703544
0,0774916138170557
0,0782779785030629
0,0779329693569073
0,0770368204585586
0,078894291298337
0,0746049413602241
0,0824636889217695
0,0831475280648987
0,0987921160460285
0,0883446489311843
0,0864860791112924
0,0815301128081051
0,0822532448214962
0,0763374324133334
0,0782402142755805
0,0746801004175254
0,0760360824116768
0,0767076864193033
0,075515698944968
0,0755527469216914
0,0742799953480358
0,0747949506502119
0,0746805403617784
0,0751646345137025
0,0756482568278457
0,0735864578192504
0,07346780749948
0,0746821525552945
0,073748664686693
0,078539693662443
0,0748274024872315
0,0760349881811206
0,0760973306977745
0,0746225666770507
0,0720200986742436
0,0729601728492342
0,0753640043304613
0,073693789927425
0,07255702019612
0,0697045168921378
0,0715960893810157
0,0705237244725477
0,0711408619996303
0,0706106053634673
0,0704481616110399
0,0685757889581564
0,0679368251062817
0,0687609040301639
0,0683073777532074
0,0660712665033538
0,0695058160317401
0,0666733078771863
0,0636609638266364
0,0652658527469818
0,0650091734003633
0,0643502016292413
0,063194059184201
0,0647250594259351
0,0632737769582607
0,0606540074076619
0,0638201058663361
0,060133428161987
0,060807409806072
0,0631485821204364
0,063273971054666
0,0611381826933202
0,0597860196498741
0,0595194307089202
0,0605428299353871
0,0575190204401778
0,0580376940575129
0,0584020030831315
0,0582141108958798
0,0565961808528082
0,0591241103962269
0,0601168054562857
0,0598598128461116
0,0581815120074794
0,0618270555079655
0,059712963663229
0,0591120194787605
0,0617126349148203
0,0623137021970792
0,0601146394219642
0,0636890196527672
0,0611070413084789
0,0655819228818932
0,0611335937187344
0,0620127180632928
0,0632404936441878
0,0617679311521802
0,0615810676134824
0,0617936144899983
0,0630157474452375
0,0650635102216348
0,0622281298762503
0,064532451052986
0,0628663692796045
0,0636012271742874
0,0637389622687211
0,0615180416452647
0,0618323030692143
0,0634648848971898
0,0627850847490473
0,0631930934498037
0,0611497333624015
0,0638063285759283
0,0637010934553474
0,0628177048689711
0,0620991921356233
0,0619777143557993
0,0611951396175499
0,0623858066498607
0,0608161809411901
0,0621854292365704
0,0607958575782116
0,0613846349738662
0,0614443582517786
0,0606194498736685
0,0597778064492246
0,0607340689496178
0,0595760720606767
0,0601995413917611
0,0595321727159309
0,05919554504379
0,0580726729943048
0,0578596628843005
0,0572813962347272
0,0574690711920183
0,0553121167308398
0,0583959814113567
0,0562873819093656
0,0576153884502292
0,0573001791789917
0,0561945243390256
0,0555075439806058
0,0531756944364335
0,053546900492174
0,0563763136764261
0,0544719998006953
0,0530422359830485
0,052439143263274
0,0537226128852505
0,0543851204915487
0,0535879024447696
0,0527380928373465
0,0519836137585946
0,0517247762684233
0,0533615346281256
0,0513320665826748
0,0516150731732636
0,0536451872195061
0,0534711834070772
0,0523446539678819
0,0522199614837724
0,0514733682612759
0,0533376896213571
0,0527390546864426
0,0529995580337676
0,051458731178169
0,0509362485914464
0,0515047774586982
0,0499904663832082
0,050291978627796
0,0502494946427572
0,0466517070587847
0,047647073158565
0,04595781054398
0,0469903470914757
0,0482631778199648
0,044668710844995
0,0447310869872303
0,0474312236960637
0,0456887777326137
0,0461476983751301
0,04498990681497
0,0469134500613459
0,0482015024249227
0,0483622957867384
0,0491298402249694
0,0513507766446838
0,0521532705027982
0,0555500714126389
0,0563656863030996
0,0593249471812387
0,0630312720021971
0,0653120016627786
0,0686029472435559
0,0693345170674226
0,0745589244447814
0,07719093677102
0,0796008107567445
0,085804538893239
0,0867061591879797
0,0916639915873148
0,0979410724020941
0,100264126206483
0,105032471953268
0,108205001766586
0,11245953334043
0,117794712837264
0,121837196856455
0,127113820703846
0,129528926637762
0,132515147103477
0,136861132895717
0,138098866587226
0,14088672961621
0,14571029350741
0,14409538410728
0,148029046518585
0,146380080318282
0,146267370603593
0,146349340143477
0,144006179316214
0,14569231460972
0,144053769080943
0,143764927352646
0,143903882769046
0,139256483911718
0,139954957514303
0,138834363926913
0,138199948380199
0,136814075559163
0,134034365664161
0,132890996179556
0,132643168246198
0,130661611286465
0,133235601025458
0,133996599116955
0,132811560857901
0,133320939460428
0,13462969182531
0,135272833909213
0,13829915354184
0,137032858811047
0,141363097097658
0,14182630472553
0,141475490364695
0,145841345961635
0,146371301726623
0,147556890889056
0,150252403421224
0,149946680240058
0,15537607384038
0,154884744391303
0,154842641541783
0,156588353491767
0,157404646480908
0,160234489255247
0,156796111688251
0,157178304783412
0,159817330567904
0,16037709192919
0,160550955717724
0,163587859261428
0,162639645641023
0,161150934972572
0,161576836943756
0,164290892562179
0,164441786907959
0,163410826515884
0,165331214870517
0,167920389427032
0,171294334481267
0,17124742017856
0,173270377556531
0,173981963462254
0,17484983819587
0,176329428127731
0,179307158270018
0,178594751802527
0,182188596376479
0,183489703144666
0,187478513676048
0,191719409759853
0,191139906874758
0,195162162418447
0,198774268337731
0,202091751545197
0,210635136902715
0,213849144750295
0,221442684635519
0,225106096222429
0,229301978916313
0,234317364264326
0,237593787056141
0,24276815161819
0,244929189434613
0,246185127590794
0,246661863763965
0,245579401248025
0,244635257593642
0,245055785003021
0,244437145295557
0,243441491504216
0,242834030999217
0,238991394346752
0,237692966945913
0,233441893620605
0,23403871328346
0,232396891512655
0,230031370844278
0,230184960085712
0,228208975097236
0,22866547298667
0,231268198291152
0,227842358876058
0,235764836569552
0,235507060404309
0,235055872078509
0,242082315770152
0,240385297956171
0,244074487117744
0,250548422665478
0,249003279542265
0,254154597699676
0,253228026311075
0,257589836601998
0,26009879162189
0,262579355688021
0,267986126192574
0,26877006248897
0,270354548338007
0,274346961494892
0,27612980001864
0,280405596117425
0,281577734982018
0,281417136942065
0,286729954638429
0,283852342811927
0,288052616680941
0,294033570533981
0,29016378645934
0,293963026006161
0,29493838779388
0,29630610914228
0,29642909712693
0,295322701325718
0,296651294551134
0,302096915163599
0,299266832136122
0,302923151026477
0,300877008948077
0,30286205686344
0,303860510810286
0,299031684821574
0,302463264181066
0,298188935677215
0,294133054875553
0,29719794951906
0,28895326693583
0,287299487510516
0,28034076064961
0,276621733065579
0,271436562734484
0,262665938358079
0,25884547760603
0,252508761919029
0,243618262607354
0,236297506882984
0,227500355210301
0,221038470386931
0,217678055511703
0,210613113861302
0,208201707969947
0,205557620382716
0,197031296078231
0,195223157495802
0,18928528005981
0,188286369929569
0,186241879573306
0,181674220202745
0,17756437384477
0,173396738147063
0,17088679876404
0,171022971796483
0,163666510805697
0,162153066677136
0,159764570428621
0,156130991675735
0,150113991424901
0,14446046680657
0,142364008809349
0,138011235777195
0,129464484594749
0,125871708334536
0,118286783858525
0,116963544555006
0,110984623664851
0,101991638811203
0,0992345749148175
0,0924531768884037
0,0862565338466012
0,0838363467344596
0,0768793618754575
0,0731226692682777
0,0694680078361891
0,0637748692783722
0,0631681329372318
0,0599776501943109
0,0553237745544969
0,0520675252527637
0,0515237166065441
0,050187668629336
0,044178617112247
0,0424417053832855
0,0445018511011794
0,0425963733031467
0,0423879022532142
0,0428660122982342
0,0377175366145702
0,0358940232072596
0,0357424839020622
0,0378918466288737
0,03764072326289
0,0329007805372738
0,0362365835408742
0,0338302987099674
0,0344345144268588
0,0369840382532644
0,031972362433211
0,0358336674807077
0,0350212782813342
0,0309265454575934
0,0342895535790263
0,0351204879737373
0,0377583658006529
0,0358782548035873
0,0366856275926863
0,0415235114443849
0,0381135771426847
0,0388017851416903
0,0396048179145025
0,0387044142416552
0,0449742754015089
0,0442618461567895
0,0424489258034422
0,0442657482892812
0,0384324946960946
0,0401064150926901
0,0440420489735461
0,0428135131293437
0,047559004725579
0,043816004712804
0,0438014243439617
0,0431162198976354
0,0431336623259882
0,0470601809195015
0,0416598501933833
0,047870558384904
0,0465594840407853
0,0412748812219942
0,0472306953103325
0,0440337924428326
0,0445944734164972
0,0452629932757453
0,039592657596417
0,0445014245317161
0,0487276324019355
0,0431903694139592
0,0433581173906031
0,0425390695671413
0,0476923322382092
0,0435028746051991
0,0424604966624348
0,0476654705807067
0,044787575870428
0,0429798035927839
0,0474512932749352
0,0419107979664902
0,0436986320406106
0,0450134323209015
0,0425110235648495
0,0464091381748523
0,0422929142651203
0,0449333055256002
0,0470730788306645
0,0457747080377501
0,051801605412547
0,0485543762023155
0,050940292653497
0,0497337895333958
0,047794525199708
0,0534670146246969
0,0511013889633385
0,0495186304449739
0,0516040533186045
0,0473101182817451
0,0510630000960929
0,0495541630922143
0,0468441149532179
0,0477035287946549
0,0430088065292866
0,0443013306889358
0,0460375367113103
0,0430953931828247
0,0456469285573621
0,0437957605305726
0,0422961911708637
0,0468011694443719
0,0417453579127537
0,0440687574670477
0,0436665092966083
0,0395313564685075
0,0446667303401768
0,041700456536524
0,0425315702895604
0,0459215216932038
0,0432326651288593
0,0476336600149713
0,0458591058163188
0,0446663404286663
0,04509828092945
0,0394860899575518
0,0405054578205176
0,0437780898093241
0,04675202653379
0,0465038300103343
0,0444893957019363
0,0475066702352196
0,0513944313691376
0,0404458923776407
0,0487914022578011
0,0452174836533672
0,0467463939866513
0,048137197039058
0,0425428460978758
0,0475741529937777
0,0436412342840373
0,0404242044598705
0,0476155648127136
0,0429990050255773
0,0482464789669524
0,0484197123330601
0,0388962863502309
0,043280354242538
0,0419746740472189
0,0433469022263721
0,0449155155863771
0,0409821392103834
0,0454571041928321
0,0407599159780674
0,0363020067593174
0,0483239568275393
0,0341182990218949
0,036031688296721
0,0389196424846321
0,0362777577753485
0,0374440596321043
0,0330906220519798
0,0317176889424473
0,0394432448861864
0,0355851980509412
0,0327712000936371
0,0341051569341429
0,0332225608019434
0,0409911611794908
0,0275419036494854
0,0345561005195488
0,0355645178175551
0,0324278617203583
0,0377106843179705
0,0334009259962867
0,0317465273220643
0,0435239876129042
0,0386888204711941
0,0402320808218021
0,0271007045058938
0,0360974695390582
0,0465908118424995
0,0344079015389825
0,0437202898247177
0,034093453927283
0,0342123366043956
0,041366144383125
0,0327992588087978
0,0439539681737229
0,0395150701422744
0,0392810794060144
0,0444122509934554
0,0459438738063224
0,0379827913557028
0,0483761371974684
0,0466168897204233
0,050047892583007
0,0482698434291818
0,0482344371018477
0,0485072720111853
0,0357355668650153
0,0518400883326993
0,0542077388949542
0,0510246555762807
0,0557794978562078
0,0525329490128542
0,0587178000378671
0,0619535309286277
0,0566758784588322
0,0669631289036401
0,0602778878005867
0,0552865657158808
0,0722982231393548
0,0589158431050316
0,0672067450684475
0,0595598835107738
0,0585717435400415
0,0615008254798691
0,0592179149994697
0,0661493468930728
0,0698481784904268
0,0587325649490885
0,0640000293164805
0,054953362682672
0,0625138947843163
0,0766360222824334
0,0659182771635481
0,0684248830575285
0,0667570791331809
0,0584169701030469
0,0673291195497539
0,0588375384541998
0,0688032456305221
0,0693285919933576
0,0514549622604005
0,062122884470529
0,0552318742832589
0,0708248317075322
0,0741470387767565
0,0596648676419282
0,0665051652574931
0,0559259874681541
0,0719712873632751
0,0764973473206433
0,0551628699118215
0,0706603567494769
0,0600890670666568
0,0552097382969528
0,0801383970700598
0,0548188387088896
0,0577160593126526
0,0690523629772501
0,0549806541041698
0,0727198963029414
0,0603437942120248
0,0567274334280701
0,0563993347581553
0,0662213611906419
0,0736864906544568
0,0541583195371201
0,0626969677988596
0,0618049130288293
0,0531042231189906
0,0696139775451913
0,0643597763890745
0,0697201056289555
0,0715714107178978
0,0467128162352036
0,070037396792103
0,0663609807565883
0,0433588422313785
0,0743307796251561
0,0504839573799457
0,0680517188342275
0,0721427477976843
0,0716792395280678
0,068112701733272
0,0660759139577068
0,0630735312978122
0,0791763009644371
0,0421232809060331
0,0532859747851064
0,070685584543109
0,0376134742319219
0,0803187177080126
0,0715234173068101
0,0732058948359471
0,0934634895528062
0,0345271402754379
0,0770382236555077
0,0833182418442383
0,0729589947797699
0,0953009039132889
0,05888614971646
0,0981578255497632
0,0750514940442344
0,0752634047210467
0,110821483434255
0,0591359967546117
0,0885524176715549
0,102623872576461
0,094769159280724
0,0538314975174964
0,0911046500844306
0,0583135725762084
0,0810205555776212
0,0624906354224891
0,0918499905770182
0,0667454157916878
0,0950033508191938
0,131275724516285
0,0920954004958966
0,09210104082465
0,0754666320542805
0,0755742065041073
0,0895867727623655
0,0469082681846848
0,0845240483889616
0,113379370176396
0,0785381687198544
0,107361458701114
0,117952099759255
0,0981960585197774
0,0954471851650627
0,0604425587253979
0,0998328714442153
0,125207786117522
0,0278553272893155
0,144013236825595
0,0805553338392454
0,0427020370735874
0,102325869975992
-0,0167191329271503
0,150725246594831
0,111832471769194
0,0767835788129877
0,077420646677011
-0,0382525660660796
0,0892309873207571
0,134710158836291
0,263164035552802
0,153696198664735
0,0532321428904585
0,0685132253244466
0,090374068653225
0,0199097031525801
0,0932681602499206
0,0219143410105801
0,0840542005607516
0,155307433322505
0,0662854648039964
0,106016801749951
0,1120926369993
0,192472569556294
0,152017841262295
-0,0567908738849495
0,0384817468337044
0,230242851518386
0,0779010501831318
0,146089532466992
