3596
4000,36533379555
650,420452594757
1
2
2
0,0677067866643073
0,0587553490940778
0,0652416763503024
0,0633984512846708
0,0686523683675377
0,0673522881684389
0,0575661942918977
0,0581785052176556
0,06477934784702
0,0628810839627562
0,0633100745549623
0,0590297084146233
0,0600892527772652
0,0567612853921851
0,061339216508726
0,0532348041276112
0,0587474205975796
0,0561888140163537
0,063888201954417
0,0621613849239621
0,0625917131905595
0,0621651934711811
0,0647140992968603
0,0574646667312275
0,0606513750805939
0,0583155911864175
0,061692476232626
0,0594049117859206
0,0623116056749567
0,0615782471365981
0,0658679789790312
0,0587506944060568
0,064265260348244
0,0610586596518155
0,0620900092304484
0,0610129041010161
0,0631182924248473
0,0534191448629208
0,0608649458024513
0,0646704340308226
0,0701143124563584
0,0618898487614733
0,0671921904888695
0,063304159554559
0,0628597618775362
0,062387471695074
0,0700057268295948
0,0531463704391942
0,0563537055467008
0,0695434821387963
0,0635703136011986
0,0484383670666177
0,0644671629118179
0,0706684485934183
0,0697136712438723
0,073887768241473
0,0781706357423834
0,0593499275873473
0,0600905701660341
0,0677302513596402
0,0889701996214106
0,0722656309755162
0,0657340790971665
0,0659840173293393
0,0645908283581303
0,0666236538944775
0,0672290844035465
0,0553713940801803
0,062061843391899
0,0614878210063271
0,056615774268388
0,0755969824414326
0,0827210768603702
0,0640541276613533
0,0673691742073007
0,0665807125806393
0,0633213234897777
0,0553092416603494
0,0589972474037831
0,0737722193790731
0,0828647996391441
0,0627610237032673
0,0639076408539206
0,0484569439175582
0,0674056920948022
0,0790470634273677
0,0547413667151566
0,0682862054864255
0,0891931372469027
0,0666798623188625
0,0587727103651923
0,0531347742760982
0,0543817100173292
0,053590622414076
0,0574834456149561
0,0610774562821229
0,0581194594724214
0,0548049931007839
0,0583992281986381
0,0713418129035409
0,0672150161056018
0,0752193104077905
0,104709899852242
0,062347565581424
0,108952319183439
0,0708186054567972
0,0658839592050553
0,0996203043021632
0,078381142994413
0,0667587182072684
0,066165139505813
0,0590846704837391
0,0696541348451718
0,0679850743731128
0,0539562243094616
0,0832433017088227
0,0923945697136073
0,0625281937343595
0,0596887331528415
0,0528269114671397
0,0437480066221286
0,0792015515165324
0,103816472794132
0,0709445184168835
0,0792648752978356
0,0593277912661932
0,0562073797181295
0,10305862245133
0,0911555611333386
0,0579459711782298
0,0595170715075099
0,0633280691068776
0,0561320905997946
0,0632793018581901
0,096270135090489
0,0671557321808466
0,0591901043583822
0,0495808182781764
0,0897115167764991
0,115088228483318
0,0785321492512688
0,059068626315422
0,0471066056569115
0,0591670189014141
0,114015124194754
0,076246875566476
0,0583519447948778
0,0864805608330598
0,0785741460158697
0,0562625268048766
0,055950708338704
0,058506049061665
0,0791809822387513
0,0672653286393119
0,0317058146394014
0,10406857128971
0,107885913402359
0,0990177383242882
0,115033302951943
0,0695907009672861
0,075477298066056
0,0654673515802259
0,0586382285210982
0,0528935340340507
0,0604386940255244
0,0467520629009609
0,0681794018241188
0,0818934153428046
0,0604948117223621
0,0633939518489897
0,103395582335889
0,0699616171892067
0,0711177859690444
0,129107031994291
0,0792667375723131
0,058158931335043
0,0894196935311433
0,0722963974816705
0,0527767290504341
0,0708186154304318
0,0835077954750327
0,0537020324857652
0,0585291244455434
0,0550033349857428
0,0591582153727619
0,0744803380097168
0,0640616502007297
0,0622558907275383
0,0626849210977898
0,0396352842051327
0,0714952073581688
0,125270378379404
0,0991732916472129
0,0736763199678745
0,0604622408704143
0,0323690336759094
0,102323143812127
0,0924552893982537
0,0658046452595369
0,0532470248861086
0,0544366933813864
0,0539725934996105
0,0512359426675544
0,0539819676803542
0,0434097398299087
0,041053434220001
0,0939285463475102
0,0717813686740497
0,0567064313323174
0,0525840532404965
0,0673639744118241
0,0539888189103896
0,120414808750264
0,0934883828284828
0,067438454171814
0,0537315809172577
0,0528638761580525
0,0714521639351299
0,073385581592543
0,0548346722555964
0,0589408430790142
0,0528181599402781
0,0613820196004618
0,0485798262519298
0,0574903791166042
0,058205573821426
0,0583886937654401
0,0561397261511331
0,0557109482387704
0,0478991808107202
0,0679515028561354
0,0618935964794174
0,0599739166617362
0,0585821981039419
0,0473911466437437
0,0685338796995353
0,0819409203690983
0,057937594034928
0,0574951461239348
0,0575844778336372
0,0560082607042995
0,052461660418729
0,0484365701611535
0,0546999178972241
0,0526557090613724
0,0573933727237168
0,0844674456833391
0,0652706602644835
0,0633597148060014
0,0425166670573139
0,0794841298704103
0,0665731968464865
0,068138255540865
0,0528950972131367
0,0644631010683617
0,0427943434362422
0,0594460182401278
0,0793923719288874
0,0745938902756431
0,048427076420839
0,0865346937621526
0,0629480032618626
0,0627045335924453
0,0461782974022443
0,0535252274927541
0,120948421071949
0,0801025520899931
0,0538877766058805
0,141260654585182
0,0849474776410545
0,0900280398954606
0,0535255376131553
0,0423986410778729
0,163919090436701
0,137235351515651
0,0632001853558502
0,068969214704959
0,074309735859801
0,062630880846685
0,0704899223004109
0,0657938427344099
0,0836985362521342
0,0963965537965912
0,13687749380988
0,126914874524353
0,0530191483219254
0,0999779851887538
0,0847566316146521
0,0717767278584991
0,0581671137363178
0,0635537117192324
0,0497145163419862
0,0880932168696597
0,0692122340237187
0,0871560372567929
0,0487820580486734
0,0730073284687403
0,0898427841514
0,0765534426355113
0,0529145999261356
0,0784696060982919
0,0666902978625615
0,0691728624706245
0,0494370285727403
0,0645461262849909
0,0724463178492952
0,0539482419543691
0,0617433270844312
0,122698093569499
0,0678624165468761
0,0837647241505144
0,0874379099747925
0,0752171546772846
0,0568403638066743
0,0668473819061992
0,0543473867051386
0,0616452889262828
0,0464318617954752
0,0595355271101333
0,0897096492989417
0,0747948381270243
0,0578637029694685
0,0607814623363895
0,0503319542489413
0,0543010823373239
0,0604812153610311
0,0596594314336982
0,0571794780176451
0,0654126144593305
0,048520174693812
0,0902582058047246
0,088295922501019
0,0540626880768589
0,106230801491938
0,107168962829885
0,0680784682158573
0,0592511160421688
0,0578213163255823
0,0660910751039786
0,0606977426481478
0,0640218874010179
0,0520229281298087
0,0702352214089118
0,0747818519073034
0,0701652112272901
0,0637092287476663
0,0683183807331357
0,130632187280862
0,124566859990734
0,0946603524711117
0,0730792357704955
0,0410826658860916
0,11925286517065
0,0843000959897891
0,125741816654367
0,0904983908167921
0,0758998404520348
0,0616987377291857
0,0688590386872358
0,0667827961561653
0,069294182974638
0,0721280759058554
0,0758041537466333
0,070071182696269
0,069407390158662
0,0747951752500174
0,0640961418722259
0,0815659084103559
0,116305051023959
0,0810491725607526
0,0822692597560944
0,0775652571258279
0,068989831585468
0,108543227909317
0,105689161766726
0,139057603022876
0,113793966842592
0,145656736936675
0,134372673769565
0,100597206889832
0,0905368239900374
0,080435140768427
0,0930136201775886
0,0944823713663711
0,0891414311089101
0,0902188304954193
0,092308015580286
0,092736533206223
0,095218273538938
0,0937671610344091
0,0892416242349355
0,0948414787611938
0,115369306815753
0,0975824382019299
0,103623283479933
0,0943054110392078
0,12382703292543
0,154746202521765
0,170286783798283
0,106245539325025
0,130590546680161
0,0979470134512939
0,11064502947561
0,104823535981541
0,121393299347827
0,100712866729204
0,11687982144941
0,145931494791759
0,136922390287114
0,150229521450209
0,134047159001575
0,111494214289923
0,151631214357283
0,125029712357373
0,158207179644303
0,15058856530684
0,140340288326368
0,109440744763142
0,169459032599124
0,133877994979088
0,155590270813603
0,142629995784911
0,147048594973848
0,124978118087062
0,141836028472852
0,138820775558164
0,139347951850704
0,145500076193211
0,15576167103836
0,146036513544053
0,158124072811443
0,146917791895578
0,146899887632799
0,167469556725565
0,154194166541519
0,159639252458843
0,165459764161746
0,158086220732888
0,159789694056636
0,138123502294858
0,199302968156742
0,163505408171173
0,223192584381442
0,188164198913594
0,175924425929914
0,146391955332578
0,169478229702372
0,168247503839386
0,171371426542868
0,179957516680586
0,182017059699737
0,163344815360171
0,184418408164164
0,1823854485188
0,180207483843676
0,181186785676268
0,192375536191526
0,184712950314643
0,192759992387178
0,185651587150717
0,205295955557574
0,177975818247403
0,241829911814423
0,216424472486547
0,248674644949168
0,224146459719436
0,208203928604343
0,193039754275631
0,224184234110251
0,199581994171365
0,216017542633272
0,218514473062488
0,234007571121917
0,22002869851954
0,226481984066529
0,225668621928909
0,222970476181937
0,233896484918339
0,236883777630353
0,241587888752344
0,257731209427797
0,229021415236744
0,240715698931122
0,227331641668694
0,25280488790831
0,257307349234907
0,25816627822933
0,277523046563777
0,279155248543167
0,250235421388895
0,269823559951246
0,26176215115862
0,27362404033278
0,262263212340461
0,270542048048877
0,249164141757351
0,29003719010648
0,281679432229389
0,282436933013611
0,278467098727508
0,278933650668722
0,277941621468192
0,29039661568378
0,281571881041784
0,292968674881795
0,288400776977855
0,315590791990515
0,293531626416717
0,308501892901402
0,291735259513666
0,31052970042388
0,324469116697606
0,335147240811292
0,30848842723561
0,345440105628061
0,325294736358702
0,31144137499426
0,332672637357362
0,329569525290037
0,311669127571529
0,327712899925975
0,321844193778417
0,354291795070588
0,356045089014882
0,356343093071855
0,345448924533768
0,375936983192141
0,350045030710426
0,365550911204619
0,34280663857105
0,367633403036037
0,354688014420789
0,394091699415282
0,368451686848031
0,412790034247392
0,372207272144879
0,398410465314958
0,366801727410194
0,376559159297191
0,372271665493098
0,409689949501438
0,386598777803855
0,411950497657341
0,384925097712865
0,418243344572156
0,403553155021291
0,429742402140667
0,408640687548109
0,430268128562787
0,402124418840692
0,40362374410077
0,405084784573825
0,429602450603041
0,417517296472907
0,458676675849908
0,449544507322459
0,456827299860728
0,433162043134094
0,456825813051022
0,449149410694971
0,472285126843517
0,439678500710339
0,454716643883275
0,450874286254445
0,469654852601282
0,442216988715459
0,475068582743126
0,444445638977923
0,457823406095096
0,466127194690203
0,481846312367514
0,475683288397648
0,49364099521001
0,479269469350294
0,499196884008446
0,484851456094396
0,499813752781086
0,486390270198071
0,500901346610554
0,490530967624768
0,511808257680034
0,501477513201486
0,527147045039877
0,503776048061742
0,51080250993727
0,518044214924071
0,518895128567168
0,514461443385879
0,537310356240274
0,52610562592061
0,554470262136805
0,530158789068841
0,538103283886887
0,518433971417283
0,545399798406803
0,531347829475068
0,562765042130418
0,543743035332976
0,548980182102002
0,557355611637686
0,579648786510963
0,53343267126839
0,556890355708301
0,538292505954242
0,572921694909317
0,562034988521799
0,595547504633557
0,559894104790285
0,605968682441307
0,570908273980648
0,591187273494484
0,588167435430054
0,596343272334529
0,576226565077907
0,630279524699702
0,601449422660184
0,626927489198939
0,608842264128055
0,617909564519492
0,594651969855953
0,627996038663565
0,60309484368367
0,646404928739649
0,602168639934616
0,647611506569836
0,609749352508756
0,638537072207587
0,614635296138575
0,628025403939889
0,619000193706531
0,630218027946964
0,612203587370763
0,629844083814121
0,611942713627586
0,644136217824583
0,62381897767308
0,656954660569424
0,611211962772621
0,658191997213541
0,63902391420704
0,655639508202993
0,627367892212989
0,647760499538409
0,622463842992063
0,667189735672602
0,657838592741484
0,707697505933876
0,653925282087952
0,69989402594054
0,659619102186543
0,706852986873354
0,666684403169443
0,698343897465162
0,670894915665741
0,697128437610007
0,656824341894757
0,696914878566762
0,673891739718137
0,694554617875758
0,650745928329009
0,728540336915555
0,683407470655282
0,709911519398387
0,673762357761735
0,718082403421334
0,686560024370322
0,694908996345218
0,693616790303603
0,704023806736231
0,713266123851521
0,735851489120679
0,714421456192042
0,722664503673484
0,674583350598173
0,704038317733658
0,697316547037716
0,703190134145431
0,681069946635227
0,754656531971492
0,7123601438752
0,748498728024002
0,712563045531332
0,746836505266497
0,696452011268416
0,738439364509488
0,683082434462206
0,766252983419905
0,69736831372853
0,728654349987995
0,723877988508304
0,728138346267573
0,700521578127352
0,748749546726487
0,709247813074875
0,742661906978438
0,71738355973346
0,745712667809755
0,72896444474765
0,793985387525078
0,727784584536823
0,776845325457475
0,735493191842757
0,731784348645406
0,723183260082089
0,749766467848898
0,718873008784563
0,733660012294686
0,713735349613077
0,734851635634257
0,721656266968667
0,728619858917725
0,759740499813589
0,751113108540727
0,749412447138393
0,737970645687207
0,718676101326955
0,741419678083128
0,721880576205764
0,75158436144805
0,737563622209923
0,747163555848281
0,704954479193398
0,744619951658868
0,739594531445986
0,761932797105438
0,735292427544346
0,766843615700935
0,729030127134288
0,732514226302644
0,720799646262121
0,75140110579408
0,75762896967514
0,780572488990691
0,725924280211984
0,770446779241041
0,725823227873662
0,779145248754353
0,721885779183084
0,747770876904943
0,727174676461034
0,746965161651226
0,719710061426834
0,760356413406583
0,715718312175286
0,763320631284608
0,714520924863372
0,743930101084143
0,7494462029824
0,778761806434886
0,750183164038673
0,755568658547661
0,702172429269507
0,737574528821298
0,742322581433062
0,738097879876637
0,718587431839158
0,764495370495925
0,739899479186263
0,752434105877641
0,716672264348358
0,76245284042154
0,726612997838441
0,755703755425476
0,719966399931907
0,72546176207574
0,714512933414603
0,732913634921233
0,73255094916484
0,755308922342119
0,709036460793041
0,729812969621592
0,700495939037346
0,737823800478978
0,724529110111255
0,733862954007727
0,714491343526464
0,729610051198018
0,711674684736347
0,721072651967548
0,705582159148093
0,712610106375062
0,699413739587847
0,734333263699015
0,710541397828523
0,72972978918379
0,694068324449275
0,7214179447417
0,714367929915747
0,726554094187935
0,707269028328366
0,726083386408888
0,703520044956025
0,714913042573906
0,697028760873184
0,719733017374627
0,700916153280966
0,733877326088257
0,698299587682043
0,69665640510297
0,674974946315957
0,722924253393676
0,688444532682006
0,704251577498049
0,655583773906756
0,686504462296086
0,664411594761714
0,717315674712397
0,670308753462625
0,723290973966235
0,682338003497428
0,695782873273669
0,665900120699328
0,684476516770248
0,664783041134275
0,678600617468893
0,658744714598444
0,680360073987208
0,663795032151782
0,673000128597081
0,637009146359779
0,682615830889831
0,645987642007447
0,678725037058512
0,650266053295379
0,671794128837551
0,655253490339298
0,664286343950867
0,64256089903509
0,681033556129975
0,644707576404183
0,670930291491955
0,641208377768086
0,655616149899726
0,631788314598546
0,664905179615984
0,6337054756819
0,652997873634846
0,62187830347114
0,637892821449016
0,618811230110722
0,638837650979614
0,604749868211738
0,640761030351378
0,615553119325175
0,6309172874258
0,616948589631569
0,614344419842479
0,61331052399146
0,622103479783545
0,611252852367585
0,614037348282613
0,594518195613836
0,621945460643165
0,598987660914481
0,622608045907137
0,602347728814336
0,610016668329853
0,592687913752436
0,618920629001407
0,587494901418069
0,596074595860741
0,575711528100544
0,58799150462236
0,584659148292597
0,590316222351742
0,55614942887532
0,566846814637775
0,569256518990324
0,575124564554041
0,567748028996533
0,586087990510772
0,571442692177895
0,562885915761704
0,560941149227169
0,578186934874584
0,550457415860346
0,570631957342501
0,544567970918905
0,556577875891907
0,559153698053306
0,565150097085175
0,545557898857259
0,549138382827395
0,533337914333328
0,546755906722733
0,525761324769129
0,540813005229753
0,524060697476609
0,531567943158667
0,518504525257707
0,535713960507871
0,517384086432068
0,533702819742344
0,522804590422197
0,522328402269954
0,524475185144555
0,521208037701009
0,505828073141397
0,512050317642333
0,498106317353972
0,508997185141957
0,494568370446414
0,503974896120183
0,493803964678863
0,498930348709785
0,492898234520613
0,489857810281404
0,475902100626851
0,489516551332521
0,490103686686473
0,490874261558215
0,47629436807667
0,494269176939401
0,478038375675938
0,47346958416616
0,468288852452418
0,478357720239062
0,465478412535161
0,466275397126789
0,464527203369439
0,463500624868067
0,456673744868911
0,457466824166604
0,461147375601466
0,452214309812695
0,447525452300607
0,463161941235901
0,449878710056475
0,460680152014124
0,441985257646755
0,446643882914548
0,435782580933145
0,449318740186873
0,430719113506958
0,43614776675776
0,426833756051821
0,438345157417063
0,41175390307904
0,430895931548202
0,423000245021862
0,430739989761532
0,427934624167762
0,422887514332396
0,414561286011395
0,416260884597526
0,41499064679647
0,41387573749738
0,399504836582643
0,414222025157584
0,40991246498369
0,403081218541303
0,400388081352044
0,408575088821942
0,399439458079941
0,408346881970162
0,390499363452759
0,397562719264292
0,397317593057914
0,396427746497578
0,386787998115643
0,400163281544392
0,380039297562838
0,393842789618902
0,371429076658142
0,383074605020783
0,376305155821818
0,378176773603521
0,371537843719979
0,378444686011283
0,365383714700021
0,375508143265926
0,372856960041704
0,36732734401695
0,362124303840045
0,365788221247663
0,354822218120978
0,357860418894416
0,354176756264937
0,354980767385043
0,350194186227778
0,357128391944823
0,345300431050491
0,34824094261852
0,342926192409262
0,350281015110954
0,335567354493863
0,342960018638551
0,335284397928215
0,345513319461287
0,335117630192329
0,340433355056894
0,334626351406308
0,334515229138461
0,326796356687805
0,330980934766312
0,328264047452789
0,326861394160433
0,322931597439006
0,329373688651857
0,314291689860669
0,318516777868777
0,316220499333342
0,32432909778119
0,317412359029788
0,312555509018694
0,311573583433093
0,317885633161195
0,31138841399668
0,307348936839607
0,302964356243414
0,304003439939134
0,302183773452573
0,306714580255277
0,293243073775568
0,309912819460956
0,298044595499534
0,294946985769759
0,286950661815812
0,287405870028858
0,294499959216667
0,291237306051283
0,282443491832617
0,289073215616269
0,283618632986261
0,286201094899249
0,278614246277756
0,284056468715712
0,281866311754091
0,281348855530233
0,278334016954784
0,278248974521869
0,270314977837754
0,278749044029944
0,265055377266401
0,268380700072552
0,26257582969558
0,270722965234146
0,263203679926092
0,270021403550483
0,26074956840655
0,266134523518001
0,257217998788538
0,264844333486087
0,253475190059227
0,261027072429369
0,25373278098873
0,252153024527984
0,245720834570779
0,257667754948664
0,248172921902223
0,252591641353152
0,239283100969726
0,254077817093045
0,23993661898889
0,245582368317885
0,245662434630639
0,247416491741356
0,24090792488091
0,240221998348324
0,231038152806732
0,244725446257397
0,237207526638214
0,242383765231141
0,233224172929414
0,236496679229094
0,236091748594103
0,234645126981407
0,236333305994807
0,234186987996787
0,229901615154723
0,23405013993297
0,237765211459636
0,239823243392873
0,230401883540728
0,234853308558578
0,227521512540523
0,231084736703239
0,232418760484302
0,23295455185442
0,224528558789094
0,228895069822548
0,225373697784558
0,234198529624405
0,22641663416684
0,23128690336668
0,229923468897229
0,232724052829033
0,231629740037499
0,236462858503676
0,230722213486733
0,231997194585839
0,231181976170518
0,232203447293299
0,233892680097501
0,232008608301941
0,232673742580596
0,243481453133944
0,239441306211843
0,237327294553638
0,236792884631043
0,241310330900989
0,23777327848864
0,24098317003152
0,239725518666639
0,244472952329783
0,239603277331313
0,247181696600288
0,243836088390348
0,246966762648422
0,241701009891878
0,247510645057923
0,24980190889285
0,250607772568018
0,247572236450046
0,257959571617529
0,255104622181116
0,257414152921497
0,255971153041091
0,262158905595759
0,263442280914014
0,264928418166345
0,257024453222063
0,265117969530833
0,263800545818735
0,268795648711245
0,274473950836315
0,270339312369702
0,271437505090043
0,280306530600767
0,272700795216802
0,28497783666422
0,285964904723719
0,290162205389911
0,295663502598447
0,294996956469452
0,290060396047069
0,304202089539714
0,297346720696937
0,306304875335325
0,305973134869963
0,303955153840354
0,301884879458081
0,318334808422378
0,307478013353867
0,314067346130305
0,31299943205954
0,315395522783237
0,316489059316622
0,320247545342695
0,311639458636153
0,317558045276874
0,320351993388648
0,32005835774478
0,313898318339338
0,320026268708392
0,313511276442289
0,318639526965149
0,31437502194887
0,324601713002587
0,318185719128484
0,318011519515238
0,31308865381728
0,319098821647196
0,308050046426831
0,318723304006065
0,311554124419392
0,31246051277493
0,308666630141316
0,315961674967868
0,310710581582224
0,309904679414115
0,317563687072249
0,315560793595269
0,311380337635389
0,317044606978187
0,311918490868304
0,319852169785701
0,315295200904172
0,31221290292203
0,311918675692697
0,314714462333783
0,310622988420872
0,316916544965663
0,315110064025847
0,319235900072995
0,310546798586804
0,310680388472811
0,317281984460125
0,321394686814304
0,314343197981436
0,315674553414812
0,308656096220254
0,32281764952332
0,317031968113277
0,321282884350691
0,311621078942321
0,321350038638789
0,314675483473262
0,319278037548096
0,312847966883297
0,314335802382054
0,312795915449588
0,313286302667587
0,306255198620579
0,312153004675826
0,301991773012807
0,309048541790039
0,30852881306036
0,308344579874767
0,299488177939023
0,305100813222386
0,298255286292863
0,297015859370198
0,290245265676035
0,297163564617862
0,291791865970712
0,288457730877013
0,288920560452695
0,289690323290381
0,282447327680483
0,279519457845574
0,272600043014443
0,275161638175077
0,276549715896468
0,276622596624002
0,268297947192766
0,268615357778998
0,264891359851573
0,264476423150189
0,258959995767785
0,26233978650026
0,255802060067249
0,258176047633672
0,254295517353886
0,252999129590865
0,246979936290306
0,255346907225133
0,240081834991549
0,244915277527574
0,242521802426459
0,240990254287561
0,237899942079552
0,244021204170692
0,240115038408809
0,232179677529708
0,236843709697495
0,237143616250523
0,230642259814212
0,230518400364425
0,230741735597624
0,230599394393725
0,225319477322117
0,225607235583533
0,223148903264302
0,22891051062201
0,222762680977875
0,218902696828156
0,222380762798019
0,219395476043311
0,214661004513625
0,221548633526911
0,216655769433038
0,214190718113828
0,209734909242199
0,212168549192843
0,205114691808849
0,208733099334529
0,204192626989003
0,207718159283434
0,203927594262732
0,209665362012456
0,201705241360511
0,202690758341014
0,199496960814779
0,201222215042686
0,201397745486378
0,196956146844598
0,197087272706889
0,196620546676563
0,195404765488324
0,200373780176973
0,195373866900734
0,192934680839938
0,192078147627397
0,189833651931437
0,187944157042607
0,18933468782915
0,188097367427711
0,186291871588296
0,187050501450881
0,186328994998626
0,188274626088043
0,18257652650804
0,182259731298799
0,186422411784924
0,179876269828791
0,183958978160911
0,181523398940101
0,181979486291647
0,181612190844984
0,183360200819342
0,182766251092297
0,180916620723674
0,175580425695163
0,177818435878121
0,174356780486469
0,17581126223352
0,174031031123858
0,172526969936915
0,176792051903835
0,176530862690372
0,170017613326398
0,173724164009387
0,172769697525802
0,171353890041248
0,172232227497725
0,175515449618313
0,171315079643623
0,166239164146288
0,17001291068153
0,170889964177671
0,166293674494761
0,167376371638319
0,166179211828532
0,167386713827645
0,16688977949813
0,167392663280347
0,166003051111088
0,167283760623813
0,161275219944297
0,167875930610002
0,163379074853518
0,16127969907344
0,165015168491296
0,165091215547883
0,162672248657942
0,165219321382026
0,162341448964744
0,158080431027317
0,157599171482802
0,160571712831474
0,160233805621731
0,158304014929343
0,157779583899496
0,157793219076594
0,157949723421322
0,156083937715871
0,153262956191239
0,152202876264737
0,15092747169439
0,157416800953752
0,15534407603686
0,154395566837516
0,155578757501938
0,158180017363659
0,156897886825633
0,154291179486509
0,155795251192856
0,155528767249229
0,152281679358288
0,152748900288104
0,151138099758652
0,153051723649754
0,150995874416638
0,151333239803429
0,15342670206593
0,151488152590154
0,149273780603177
0,152319437460934
0,150192956397411
0,152710389246027
0,152043393706372
0,153283390869631
0,151323827758624
0,148669204075774
0,14877438210029
0,151444403680255
0,148984219992806
0,150400294060297
0,148042660872886
0,14772820042035
0,149839855051284
0,148001381428248
0,146536435378257
0,148167302338901
0,144968661776719
0,150597365963064
0,14908090005423
0,144991126343754
0,146697245517552
0,147170476590212
0,14461358107772
0,143489724704789
0,145476629623425
0,140481877578755
0,140122787654652
0,147564330386778
0,139942548558032
0,139513380588573
0,137844536352293
0,139865520035536
0,138141639959657
0,137847159925699
0,137439516274501
0,140838538234505
0,140509662181954
0,134191981929395
0,135072215810793
0,137525641750267
0,135090854978684
0,135623983573912
0,13645529386445
0,136344401270065
0,134879030920157
0,138071876989915
0,136052307889669
0,133172003369495
0,132911326380052
0,137019220446632
0,132298583226566
0,131457621133626
0,131302200160576
0,133730559150385
0,131724947027889
0,131454702623018
0,130760576676539
0,128115570605835
0,124685549259723
0,129711900080055
0,128472843450707
0,128070752112306
0,129128346472215
0,133001158103463
0,128242439278856
0,126619446866362
0,128048604778278
0,128647402042943
0,125210977714306
0,123527290272601
0,122123388845174
0,125300083598453
0,122508944219124
0,123735173710211
0,122519005022361
0,127648557292259
0,125704778718873
0,120199575797207
0,117529091027339
0,122958465868365
0,122666035358682
0,119147702994173
0,118987305016278
0,116500161950857
0,117854984258342
0,118728166781386
0,116157042485249
0,113627219575783
0,112903945058483
0,116636961106499
0,114999800088114
0,11215335232619
0,111688371274667
0,114678367406825
0,114947083658428
0,1098961343132
0,109169253717716
0,111874151663502
0,109688274095476
0,109731640764095
0,108716921762249
0,108151607178594
0,110596490352871
0,10890977046964
0,106973801032383
0,107087113501546
0,10858734908296
0,106258509295159
0,104975279983362
0,102962292341835
0,104757898589939
0,104931475999426
0,104532607281255
0,103642240963122
0,101926762491574
0,104666330543067
0,102101687752672
0,101727109654591
0,103661865818391
0,100717486904607
0,102138834498068
0,104542116769272
0,104494959028668
0,10237204332874
0,0994888451753265
0,100844695000916
0,10146181545452
0,100158196970763
0,0996333671048546
0,0982643820979065
0,0983685590270373
0,101972149281872
0,100989513550233
0,0986399069215761
0,0994302887544947
0,0986696619050504
0,0967968397255514
0,0978137190671611
0,0972443616975866
0,0968833921083001
0,0941999396059536
0,0936932204153194
0,0946688285760899
0,0971182279627544
0,093986671642368
0,0938260046023705
0,0957266246282382
0,0943805132292606
0,0963700737003723
0,0970372698839867
0,0930430934532355
0,0920203683682431
0,0937561069789438
0,0910141544688047
0,0913986455664048
0,0887679307607511
0,0888502843084174
0,0922539471230734
0,0896913346840624
0,0910405202626841
0,0884912596967238
0,0893754468140159
0,0890305129525312
0,0869343090118832
0,0889928764939577
0,0870008973426134
0,0873431913200378
0,0852989791630205
0,0885522210767253
0,0890676398944904
0,0875241655777931
0,0878775189319623
0,086317810723907
0,0873560992854011
0,0883851388580444
0,0887113183116927
0,0878944141315652
0,0878350666038148
0,0860448175448771
0,084034274125818
0,0863676182002194
0,087123748283531
0,0864162610141571
0,0882725158232852
0,0850490814497494
0,0867185003974208
0,0880111821402198
0,0863858962944179
0,086268106127109
0,0848546982254289
0,0846272992964505
0,0846480180778682
0,0854780191269862
0,0855475803284445
0,0851052341677913
0,085185808053988
0,085019356295677
0,0847187873019285
0,0833452019490915
0,0840170401767271
0,0823179279848932
0,0823387597293659
0,0817463421433762
0,0837618679822788
0,0831476764085992
0,0833991573738568
0,085132973213226
0,0809640633698192
0,0798586985390722
0,0807684156210628
0,078965986009878
0,0804593136712179
0,0817504993075854
0,0838694286313291
0,0807866129640601
0,0786086637476121
0,0790433097742743
0,0783723444899319
0,0783947706961799
0,0782973742145184
0,0786851147740138
0,0811889201604165
0,0778030245806857
0,0764527509995507
0,0808181896813156
0,0766778671522832
0,0771910124778567
0,0758579803348188
0,0751209714666553
0,0763959470891204
0,075767541487854
0,0798541558879051
0,0779885126922401
0,0769751081552556
0,0755632389595647
0,0753519332634888
0,0774947630561071
0,0777756614062798
0,0793667265533822
0,0777624784997057
0,0740791225579795
0,0766573589768496
0,0792369836386259
0,0754676733743315
0,0745965211694221
0,0755938762035144
0,0752366297665417
0,0750682722360512
0,0728476763627769
0,0747710314205316
0,0746876114888837
0,0749834773564647
0,0751543498735394
0,0741563805577465
0,0744345270628164
0,0739407075104654
0,0724618943424295
0,0731698299553244
0,0741453447292151
0,071728754337956
0,0728818125143269
0,0715052287561879
0,0701017940901766
0,0722315878403915
0,0720529132994172
0,0722938330169933
0,0718229215184928
0,0705217010349204
0,0713684816508001
0,0680553755853492
0,0689102175169515
0,0701137508750452
0,0682134034019564
0,0682586197398022
0,0690037712272875
0,0684958832113617
0,0707631384035036
0,0684176216335228
0,0672878929884029
0,0690886472863299
0,0646876115648077
0,0656264897679704
0,0677304495982909
0,0673598776583001
0,0663495186001703
0,0658730168438545
0,0670087283625778
0,0650627186600063
0,0652655774018725
0,0670252468049962
0,0644445771565607
0,0657319570995613
0,0665134655027865
0,065614637708749
0,0636837439347582
0,0629463338480806
0,0635608158443432
0,0634629464277922
0,0637189991946067
0,0645606853263887
0,0628803791599859
0,0637249502285163
0,0635689742502118
0,0634760214079462
0,0661604614322878
0,0599767059838067
0,0604949788682198
0,0626278806098127
0,0610396502405998
0,0622094797243568
0,0619606900429685
0,0619430801549181
0,0632312258891603
0,0610135664582493
0,0597618394995883
0,0619515056105701
0,0617977383817543
0,0609303185598373
0,0601360907096006
0,0610102346537767
0,0611845225942413
0,0586033100848536
0,0574230513930576
0,0606096694431422
0,0598443128713805
0,0582767114356256
0,0600570922147383
0,0576934371317617
0,0548191829138372
0,0559371154298342
0,0572675068939486
0,0580752450387591
0,0565259281636885
0,0598256442958763
0,0552544503017934
0,0549112560565248
0,0572914618563729
0,055084437770141
0,054582302326342
0,053504771452319
0,054372413135019
0,0546536113067534
0,0518214140578058
0,0538718466412459
0,0546669145306459
0,0556584414678108
0,0533793923567774
0,0535544516595443
0,0526864454239869
0,05275035585777
0,0528642011666386
0,0543061390995218
0,0524416654188408
0,0522889964720067
0,052747735507549
0,0495305217022222
0,052502878913618
0,0540952104464191
0,0497898965162374
0,0506083490710807
0,0508056271854645
0,0541446992596925
0,053168100655766
0,0536851633254902
0,0529392957657525
0,05399050345263
0,0516663946642151
0,0534849986180528
0,0541858600179772
0,0547942492813232
0,0541388370131215
0,0526457503049771
0,0522719896648406
0,0546174493657806
0,0529672230439069
0,0570866536318605
0,0553174043462075
0,0524813964569923
0,0509640570976521
0,0507002017133163
0,0449596324841319
0,0472897998228312
0,0524083206921478
0,0555518700418055
0,0484322083890835
0,0463476394031359
0,0409821795142147
0,0548666689372325
0,048931376321825
0,0452855500740216
0,0446862691715762
0,0488004673470739
0,0465515002549717
0,0454899814153207
0,0441031605818352
0,0475451654715449
0,0421265343738228
0,0477406018711859
0,0451143278673232
0,0531419761730125
0,0509469786954874
0,0553693292851541
0,0477412863317327
0,0519058101585844
0,0428118065584421
0,0535829348462513
0,0462013360720554
0,0477164964745143
0,0421875897764086
0,0514595636034837
0,0431620735851867
0,0514463465731447
0,0394317559194154
0,0508215875130329
0,0364747880922895
0,0481038167579834
0,0370761428778648
0,0492267410105333
0,0347943144980664
0,0496425169227058
0,0410810363269489
0,054670443284009
0,0425278049797786
0,0500013111458339
0,0366342369772707
0,049416081355143
0,0490393573983879
0,0501799130709702
0,0436565416282733
0,0475052433499763
0,0570393744814289
0,0522932826512652
0,0542280129777281
0,0411402493662276
0,0642589956578206
0,0379530503194659
0,0610775635821675
0,0369494191562234
0,0655048985020032
0,0348341396647112
0,0603117211425585
0,0390102034736679
0,0587854657578045
0,0374461537602111
0,0565078822170446
0,0418882217827868
0,0538132443527935
0,0480724597341902
0,0526140191533728
0,0466618584372448
0,0503864858112609
0,0447641848086137
0,0512985956838212
0,0431940435737437
0,0499096518523736
0,0443017061668909
0,0485709624495813
0,041667162059482
0,0477895425880786
0,040518425344055
0,0475920643537127
0,0425343632156069
0,0472702416288632
0,0418101184767939
0,0471580911350031
0,0414537129073049
0,0445067052926175
0,0428095939958255
0,0465814186354632
0,0393049290961806
0,0468892169014937
0,0425362548200327
0,0462242270493344
0,0414532975798847
0,0452658296468463
0,0402170483078148
0,0459303082389711
0,0412151291521177
0,044954006317632
0,0412206245754515
0,0469407120429238
0,0430983754664641
0,0454071092501757
0,0420515925699817
0,0471099147858945
0,0433611865380544
0,0438598420141349
0,0415837385563138
0,0448270161250043
0,0426646207676599
0,0465289606419392
0,040451402387198
0,0453062482185877
0,0429118757607639
0,0458491296285804
0,041867547015404
0,0472277442589749
0,0416309875135707
0,0453421089799782
0,0425594745770708
0,0436794657268262
0,044504595059475
0,0458054641097381
0,040869015557734
0,0474724046876876
0,0413107082417558
0,0447234013726465
0,0406391524854611
0,0452134638041492
0,0433232082116744
0,0450669987723121
0,0419960878314579
0,044756490627954
0,0400956738954096
0,0462100843809971
0,0401725000529001
0,0431021985663641
0,0418503396897562
0,0450365465161615
0,0453136347071098
0,0443524977220026
0,0407701707588567
0,0447189393525434
0,0417548718721372
0,0437130475394206
0,0420933690845744
0,0418304827348163
0,0411004788489956
0,0447395038569472
0,040963566796203
0,0435402611985004
0,0399023723912192
0,0452115869781314
0,041286487293857
0,0423049422469955
0,0405354230630172
0,0444160678179673
0,0440070775488594
0,0442094757017976
0,0423518633367605
0,044332059570556
0,0397997509619464
0,0416552241238757
0,0404547954317169
0,0455446518942074
0,0442052115625434
0,0425719020652026
0,0411888620234805
0,045055171938337
0,0421020895081897
0,0443193497051139
0,0402848491663343
0,0449214239722351
0,0406672877255979
0,042851497286631
0,0426003848641582
0,0431187249789933
0,0421704807761143
0,0457483111913582
0,0409362500626475
0,0440685711358867
0,0425133029305078
0,0436044002122627
0,044272760922427
0,0440106722327636
0,040880106768351
0,045322712967431
0,0420496193425891
0,0460188823170913
0,0414254017588037
0,0452019191935092
0,0451172891402089
0,0445911611266977
0,0425736113535777
0,0449383294613769
0,040647933150829
0,0436585079916616
0,0419739646298894
0,0446601150603252
0,0418114409780284
0,044689539884231
0,0429952431669523
0,0449921457870465
0,0398499423411848
0,0445357449584085
0,0411384804501763
0,0441694051688358
0,0408048688749683
0,0439832743180603
0,0434215146339677
0,04338916257093
0,0426386837588538
0,0444169540036844
0,0426588765059248
0,0460833488383434
0,0403183596675163
0,0440746610022497
0,0433291704899102
0,0435324631560662
0,043431618790962
0,0449310505724609
0,0420751780414965
0,044869759911718
0,0420898014296169
0,0466114845988142
0,0432383558779641
0,0435005267036865
0,0425629189117375
0,0461028160730891
0,044054307515607
0,04592332077836
0,043024240766241
0,0465108631652104
0,0424186670424408
0,0457713251422668
0,0428167834325748
0,0436793166314514
0,0433896269287123
0,0458378814172284
0,0425443741939811
0,0474935955346098
0,043604889853511
0,0449443591926114
0,0433775671968358
0,0461000089276127
0,042216439985041
0,0457009502296065
0,044002633131206
0,0436258828697149
0,0417276743500429
0,0472403238832019
0,0437621003871534
0,0442903021304054
0,0420186258882038
0,0440526271711741
0,0398799145151164
0,0422129193374432
0,0400749079949238
0,0432534843624727
0,0420094638281869
0,0419516694762568
0,0407919348371195
0,0429382047154618
0,0411131716869448
0,0432167446550535
0,0392508381116249
0,0414932110346088
0,0398121936957574
0,0441755092976429
0,0407296521517302
0,0425953580740761
0,0412046687154806
0,0417401224946777
0,0422201358522977
0,0441630579542315
0,0403650383287241
0,0430570647919519
0,0392943867460533
0,0401070116645427
0,039862426949678
0,0424660461946137
0,0388399928098098
0,0400176690397274
0,040964837333493
0,0442362848292427
0,0383953138229273
0,0434484031437854
0,0406909830699572
0,0424217956903146
0,0414975646109302
0,0422899333997052
0,0387895236986896
0,0412518816969287
0,0403999509570647
0,0432462296983257
0,0395115046484245
0,0413790600939392
0,0398676950230412
0,0408788484059286
0,0397273730159983
0,0427915901313106
0,039529466291942
0,0439292797277643
0,0366582687811166
0,0418715213311334
0,0400722347910955
0,0418265883075932
0,0380157402563401
0,0409929575523445
0,0370313541237449
0,0416305791741302
0,039088618672008
0,0428071670264546
0,0383800425747258
0,0402501402966751
0,0393062767812007
0,0393155137759678
0,0405713486704642
0,0423877165550802
0,0370731104408669
0,0437507990664277
0,0379174448036824
0,0408630680004323
0,0392408028049836
0,0393038336928958
0,0396961956867286
0,0413006690781324
0,0391644931690235
0,0419842362862958
0,0369321260740526
0,0406372288699234
0,0371544763927752
0,039104756052739
0,0393724760168244
0,0396627414346933
0,0371642686866513
0,0407250785334346
0,0365328285351887
0,0410040517871414
0,0371548606220358
0,041775630929263
0,0377094075674169
0,0394638003061046
0,0397952733592849
0,0404064902667402
0,0364175111692878
0,0412344479277547
0,0368452923167105
0,0417188593168116
0,038267222860415
0,0403394787296301
0,037010947023164
0,0443946238184057
0,0399084671358319
0,0407941830493516
0,036035905150099
0,039800987849086
0,0382914169666194
0,0408707823982256
0,0369194913718274
0,0392777956064322
0,0397463186254735
0,0402628265123801
0,0356789009348029
0,0399639100493668
0,0349284775623235
0,0386536163150696
0,0372939036515469
0,0398345354737324
0,0353453220341735
0,0382614012083463
0,0351144603312339
0,0400487266501839
0,0334462521832994
0,0383823622155854
0,0336198926472216
0,0383933400234905
0,0361462635166905
0,0404194821525025
0,0408321165432006
0,038582451421627
0,0350136277644877
0,0363480142079761
0,0372587069867029
0,0393548950137136
0,0349692401159018
0,0363282248894635
0,0347967866287446
0,0360416072272959
0,034223944850022
0,0361839380983104
0,0328222937930224
0,0354822715822008
0,0352089661412548
0,0328411757556411
0,0337129264411777
0,0360028454770288
0,0335440154440621
0,0361207206623732
0,0320110967209462
0,036375744547109
0,034500107475334
0,0354408309846645
0,034177118336698
0,0322899147653544
0,043764557866381
0,0436687048885274
0,0387585272316744
0,0340399580687556
0,0355439310801274
0,0370600473812817
0,0343218270835475
0,0366320048036587
0,0352969335130705
0,0347953816542332
0,0331967089025721
0,0360537964089302
0,0340367479742852
0,0358771885339177
0,0324715188778565
0,0326132694103012
0,0332809703325252
0,0364366766698246
0,0340910251187245
0,0359917628286896
0,0338037092147799
0,0351369091548114
0,0326265786612425
0,0333902779245191
0,0352411431296081
0,0331609083662426
0,0328232118764434
0,0428681315362006
0,0366568306329302
0,039723610801834
0,0318079701224137
0,0361372921100433
0,0291441074648113
0,0348609471334758
0,0335871194622025
0,035809343697512
0,0311344920119722
0,0342254149893983
0,0307341165613906
0,0361528851956235
0,0314950241841834
0,036181507884437
0,0301243508693554
0,0321699784182999
0,030857199940755
0,0339234451878422
0,0288193401519427
0,0350668449048756
0,0266684168147582
0,0360470662097623
0,0313267633771151
0,0387448325261751
0,0249075991426493
0,044979086691257
0,0437802448770123
0,0399335830071083
0,0331319447968841
0,0350094813878291
0,0304972444828688
0,031311634043649
0,0296162490093524
0,0335726574722191
0,0294788807092486
0,0322938073083414
0,0313344239222812
0,0339961426686486
0,0324174277229724
0,0316592497199134
0,0332086479087257
0,0331168550906203
0,0297272096915204
0,0342346459925732
0,0292918430698722
0,0322413307395151
0,0357515644653913
0,0491322749415329
0,036590675918614
0,0390105198421382
0,0301696075698404
0,0340219177220045
0,0507890108613429
0,0400413839977612
0,0376652550791174
0,0300435524312434
0,0346390967149226
0,0278838581544525
0,0350793068122062
0,0254588424699166
0,0398676528545362
0,0361605361092904
0,0343312850482851
0,0369866878764031
0,0306617685618813
0,0322598002247106
0,0279088557256603
0,0321811525646805
0,0294531128448933
0,0320092140180542
0,0307649718861623
0,0317101202636621
0,0311479950019021
0,0305837816968483
0,0314472533597413
0,0278918024595546
0,0347035969509478
0,0354110719400507
0,0332562957862731
0,0299586011814446
0,032512315371822
0,0253925401082737
0,0409826022766478
0,0435744157459375
0,0350804097336061
0,0318273354202218
0,0291458594345794
0,0342260293446836
0,0278752413037877
0,0317776587492469
0,0278889447960141
0,0345690742594926
0,0298363971904405
0,0345067562811488
0,0316621090483035
0,0336061980400988
0,0305039801261011
0,0344525536069698
0,0279208537512003
0,0320424546985835
0,0283354987823647
0,0326239127966949
0,0330137887369433
0,0321664436932373
0,0504934216601297
0,0520349152340693
0,0496611036692661
0,0428939967104638
0,0390550252839954
0,0325554312119922
0,0342211411853251
0,0275344613449291
0,0314348057304173
0,0314315266774879
0,0316344818002166
0,029933865471641
0,0327964166882843
0,0311939867848186
0,0329045803401702
0,0302290454657497
0,0302621232470508
0,0288737544002327
0,0311948579513051
0,0289390676922791
0,0308234461372337
0,0326486858260481
0,02771090009197
0,0407537965750024
0,0356914281751903
0,0377579993092585
0,0255191905142858
0,0760746106163089
0,0415619312158873
0,048165547662096
0,0309335398721069
0,0362660410724175
0,0286146424175109
0,0310838655266717
0,0321683800097261
0,0402512258484527
0,0301816107607099
0,0339251226983273
0,0289127187743836
0,0379271426310004
0,0280791704670018
0,0253950564710401
0,0447419921206821
0,0652793363957928
0,0412510307628948
0,043086272874244
0,020521073645179
0,0504639852243123
0,0488607030350873
0,040273048320013
0,0366537602598381
0,0332831053557805
0,0347069584216968
0,0319165230984828
0,0326515912054206
0,0327342264143
0,0352841330108604
0,0316032256837279
0,0319068575719123
0,0321518922778084
0,0308575962969602
0,0373356735613024
0,0342036805079935
0,0493661082280971
0,0408026411605333
0,0323317024842626
0,0390289064168574
0,0360728971053053
0,0340137416994593
0,0321073312121045
0,0333632573456087
0,0286568484035483
0,0497663694993984
0,046237147397419
0,0375775845259864
0,0566723897696925
0,0431409068928363
0,0339367930886169
0,0387356482631403
0,0445302559585393
0,0476401788273984
0,0235065915242916
0,0631131296735152
0,0502181339828257
0,0665568185302482
0,0509956035291452
0,0390586600950232
0,0327271960915122
0,0357215906647085
0,0335106956173797
0,0321159977344842
0,0583755303260211
0,0303326386083019
0,0451763907492986
0,023308145543437
0,0564037713160122
0,040044130553582
0,0500459869176246
0,0348609948444889
0,0365204289610148
0,0306648556244452
0,0626208450227098
0,0319469674948643
0,0467477696206861
0,0628635347233945
0,0722965460463518
0,0705056528510732
0,0402462073768924
0,0432550447010646
0,0770815076100478
0,0419067734191496
0,0485311664203785
0,0319913933425648
0,0486260841406298
0,0290914833316737
0,050874905497246
0,0667157436563321
0,0470570919130165
0,0433819769521511
0,0434999685611112
0,0358336533679392
0,0694746140390891
0,0498180937224357
0,045097024530121
0,0400643778054034
0,047056157816315
0,0332150007377861
0,119610051542538
0,045782937372018
0,0831491250705858
0,0592908419345749
0,0792683657583331
0,0576766346215428
0,0660016252680065
0,0451191022655507
0,0744583012784921
0,0667091725370174
0,0634102147868025
0,0356269300263802
0,0857946922136407
0,0684600610816754
0,0629620225214205
0,0622022500310271
0,0571437102446217
0,0522832735331419
0,10005902279421
0,115759565186851
0,09791621505153
0,0625385082331167
0,072957824214228
0,0936384632751734
0,0719256744232781
0,0670573551407236
0,0663668224168123
0,0665223191144978
0,0648576880066157
0,0669257556495873
0,0853329281834244
0,0662755777111581
0,0819732220861854
0,0667622500967798
0,0833787581106155
0,0927125670517997
0,154121990238211
0,107980893863463
0,096752972406114
0,127218282232744
0,104082540111254
0,0962479434124604
0,0807975873516559
0,0821533723302746
0,0940079899738271
0,0873287491161134
0,0840329918435431
0,0805944442696596
0,119955180871057
0,090066176632146
0,119100036899361
0,0972441709803087
0,0977145357704878
0,0819659749672809
0,100726177895156
0,260304768078571
0,11195882669472
0,1197038065737
0,08561937058887
0,143950973183936
0,1547603516288
0,110085850646494
0,0968443908192143
0,09748097393037
0,0883174011304129
0,10222037509412
0,104014489050864
0,109825924610285
0,118611996326375
0,101866687593589
0,101517748352588
0,131742621563407
0,177437300421948
0,193344766088896
0,129053021532547
0,116297824476705
0,135695054674757
0,135995536411066
0,114696173680225
0,125055800973023
0,104353415382814
0,148620953452455
0,158246515824966
0,140490087032136
0,120869601090096
0,141564834666847
0,164197327846807
0,122259321294939
0,202085104737153
0,154287848963369
0,161403682062104
0,133297779574676
0,154996843237628
0,135307214119111
0,150265548078041
0,180515791539617
0,170060623100018
0,153605150495503
0,151554305022107
0,150666653880799
0,157078680281225
0,162302160519292
0,167153636825642
0,162911067221737
0,210441612209927
0,168794455679901
0,370654781191352
0,188474988913563
0,187140720611506
0,156239747607651
0,174304317517646
0,202088575246086
0,197038908998272
0,221643348823774
0,191814045013388
0,169825080396586
0,164200525253786
0,164539336412164
0,165224165914058
0,164371300548471
0,170310931218088
0,155507925370198
0,207936010792943
0,155518133498802
0,247748892501102
0,215750873324516
0,184079507979938
0,157109682017683
0,167595098905534
0,154519317016299
0,171221597633711
0,145164506972979
0,180853665789749
0,173620975082088
0,16889256052439
0,160542363390012
0,14694767268418
0,18479699828409
0,183787125145602
0,1559630168544
0,159177653082033
0,142276515820243
0,159998849056223
0,134071676774796
0,184835057777106
0,18169258742441
0,160456216414956
0,143813218552134
0,148632475134883
0,139185484362104
0,147095247175598
0,132769031837954
0,153810877027537
0,147590708917019
0,143978522843777
0,150759983242221
0,14496077082544
0,143039787846316
0,150680396975165
0,152939385198156
0,152614681585028
0,155288744010119
0,153981033442532
0,150632194637626
0,151391459334551
0,154418421263587
0,161208333919027
0,155210513772941
0,165240134639325
0,1598571212981
0,160563668464126
0,164619518130213
0,161869825368153
0,163736851814378
0,165028699587129
0,161806187532865
0,167672825397695
0,16498459558089
0,16620445553054
0,17298773808722
0,168150736876511
0,1663388859742
0,171106727679907
0,171115456325872
0,170772242242031
0,170559442539154
0,177521393592408
0,168913365945508
0,262276152976114
0,200288709445682
0,190925483240776
0,1706122560039
0,183131541382646
0,17245262288596
0,179802059324466
0,224736134693682
0,208707249605439
0,187973607377212
0,183769959412088
0,172733269814345
0,205760744602695
0,183828048959295
0,181414512232809
0,179049857486423
0,169435559809063
0,236318188866353
0,248630141066833
0,304747626179931
0,265759876587412
0,205896794217981
0,171679316617115
0,204593456813968
0,20644929440672
0,17329118372192
0,170338400643188
0,159219360760326
0,219853274815956
0,173063478481181
0,162277767745353
0,153648831172041
0,151867305443495
0,188243243413454
0,191915857212344
0,162817006897115
0,192278023792652
0,189587357091044
0,167477781041005
0,196728187342757
0,235230695749437
0,174077670675841
0,140425715558019
0,143962707085936
0,134204917043542
0,151785779554651
0,198283717185816
0,142845204983072
0,156392690273572
0,120490901617599
0,128940416799842
0,121393166153519
0,161394103731486
0,13283763950593
0,142138409369789
0,163026252894746
0,123179378089462
0,141866498772311
0,14049840706512
0,173028759518055
0,189790664724829
0,135365769825116
0,108956517257758
0,162166058429814
0,157535792147583
0,137278913974078
0,139611929818006
0,104755420054505
0,122846352741714
0,138135071380766
0,110345959407395
0,140615754498796
0,132497817270982
0,15207592492604
0,180044292820792
0,197377059643159
0,174218283949307
0,12311998714774
0,110135643808034
0,107003664061852
0,114826830972972
0,114314461223431
0,102880376270747
0,152181844656876
0,116454070643669
0,118072364904609
0,167041144910742
0,12092940929862
0,110787484472005
0,114422571414482
0,109867740192503
0,126830666309644
0,150581507526558
0,172703213928722
0,142534967971603
0,141745698869223
0,149086765726679
0,131717647004573
0,129241222887624
0,126048673709974
0,129408371958175
0,130968542891982
0,152708027128152
0,13741115302964
0,139907461623304
0,142783766998795
0,138312761669299
0,181648320533937
0,178417257538315
0,153293601038418
0,191735110590769
0,184031753042146
0,235189795706888
0,180184492189306
0,177244027810936
0,171417503939037
0,177387941812326
0,179187866432512
0,177761190622756
0,193925349756579
0,222755062238435
0,188212126075853
0,196694851815014
0,188621871586274
0,196068930252987
0,198122562671556
0,244572882543158
0,218090022418064
0,297032581953135
0,252007689923956
0,242243537141496
0,209813743379458
0,204740000576582
0,221183337639016
0,219600575595828
0,212299738726192
0,212590933515564
0,216224448986599
0,243003097510121
0,215487690379092
0,223178679559559
0,21475074398667
0,21876267651079
0,216191180258039
0,219728293084348
0,22193158159006
0,223850460539794
0,223488090517401
0,231468669986773
0,232623702058933
0,304382020022849
0,254558647402789
0,242041534444058
0,235780484648189
0,248525501244944
0,241929023696077
0,252182707115523
0,267249104987482
0,260422810456579
0,251614488879072
0,253544691565473
0,251499580727309
0,256009102654714
0,271728301936759
0,288354981964933
0,257630205929181
0,272825929479808
0,256626081629614
0,306997603668493
0,307849863320145
0,302100240978289
0,291392100770678
0,282049785561401
0,275752701368437
0,276587537661333
0,272460946776924
0,277783409846898
0,278244407332109
0,277138072205456
0,278600126813074
0,272967729425952
0,274530424555029
0,274596455650246
0,275400248450658
0,301595329492299
0,2787052518809
0,27518594109601
0,266114581292725
0,2723057856068
0,267918336916179
0,295646251827123
0,286210754096575
0,277421585250644
0,276584942312051
0,284931966929795
0,29332321381653
0,279111774944655
0,258211664318292
0,265798754976253
0,25857699749058
0,270647218221473
0,255239996231637
0,276137439514559
0,294538046910219
0,277091954646436
0,26502675964516
0,269477684051131
0,26664074757799
0,27485056103517
0,271151169499418
0,273390061777418
0,278543837283903
0,279479024022622
0,284505986590083
0,278649502373462
0,279551422651839
0,298882500153383
0,295566815355994
0,294668595996861
0,280637971957979
0,276882140673056
0,274978754179145
0,277088498816278
0,285778741436535
0,280156526932291
0,269466687061725
0,274449413793106
0,265402862380593
0,273286841971323
0,302692661398995
0,277486314357832
0,274598701402673
0,267860509538424
0,258503296961605
0,263354989873915
0,25597148978954
0,25531871936077
0,251632141899682
0,258396110123987
0,249708478005122
0,246869780673124
0,245209177870306
0,247842405682315
0,245133219683043
0,248632393833634
0,241010208870136
0,241337868851644
0,241983496705165
0,242792838202632
0,241239332165093
0,241061933975995
0,239956024763112
0,242809744342251
0,25765021096468
0,26790314742205
0,261807409323549
0,250353901509354
0,248056196563994
0,247981073428762
0,235991528880611
0,242531192587294
0,236906870703291
0,241739873864728
0,23663761179553
0,2385949132135
0,235629977731013
0,237383441503334
0,234615526280344
0,238358360978073
0,234770220941032
0,23844765748392
0,230752085611882
0,235863769831795
0,231629268778517
0,237464893754234
0,237267271593235
0,238550254909461
0,236800006011629
0,238620119123628
0,23545678841467
0,232668388217128
0,237349383531792
0,234108891026129
0,235931133240428
0,233959713494297
0,23083406498188
0,230896722615074
0,230873477568005
0,230595389554434
0,226450419332177
0,228521103112676
0,227873431339124
0,225813850459448
0,224823745097242
0,225455944708902
0,218664464453825
0,221885817029228
0,217828953019239
0,219171162116476
0,214039027470201
0,21235052711978
0,211267891028008
0,209604169297854
0,204498724213113
0,203481477847779
0,200662114395366
0,203194641516557
0,197587560636689
0,199734220233856
0,199739547395155
0,201027289308286
0,196830593485709
0,195992736670201
0,192969666602619
0,193901413587254
0,189389525837598
0,191832552454744
0,191886194884365
0,191541316930139
0,189075177554471
0,192366908951039
0,189296239294563
0,194442137947651
0,188153616425709
0,192912299532803
0,192385878952731
0,194570357646253
0,196303302456628
0,196361526518744
0,199092095114382
0,199706674126077
0,199164207430027
0,204714977266757
0,199767695798142
0,203497341452837
0,20395654108449
0,201265272852831
0,202162990868651
0,206286413448758
0,2038078694744
0,206268915734014
0,203798984028792
0,204446618785265
0,203881749106949
0,204452056486626
0,206723696050049
0,205183210928382
0,202225931194561
0,203703926041469
0,201198393766778
0,200731402535175
0,199250745430374
0,200732068967853
0,201415321579539
0,200709050069661
0,198680779778345
0,200072485105791
0,196461368713525
0,19848285537318
0,195903094826439
0,194685189273633
0,193258683362401
0,194628130485242
0,194943750093254
0,194167990430546
0,193437166517721
0,192889321938029
0,192537537073288
0,191958611072579
0,188666486867229
0,18771633647207
0,188380557991973
0,186103006515243
0,184420142551389
0,185477174873504
0,182994884642241
0,185534238126561
0,18563887323718
0,184584665064133
0,18097133192606
0,180632839338467
0,178953616947323
0,178377621595277
0,175348938641485
0,177127382715046
0,174344180114054
0,173657120091496
0,170274479110643
0,172254159748809
0,171904808202732
0,167721724958427
0,167323633875322
0,167485086280691
0,162447600511487
0,163572099470506
0,162974941882311
0,163266589206371
0,163284149355137
0,162351061618688
0,16044894699827
0,162188530356349
0,159859320006165
0,162800344509947
0,1602360760372
0,15984999615799
0,158409691447984
0,157006247132394
0,157658901803731
0,154998784561064
0,15623439167591
0,153083374375005
0,148454981869799
0,148410306681684
0,145570277753408
0,14610107440743
0,145128494755768
0,141294017641447
0,140249733010408
0,143072137371304
0,14088389474455
0,143090899656378
0,142547625563572
0,145214426413712
0,148494549696532
0,150352325716464
0,153941529694216
0,159863880750896
0,163426829006091
0,173018171251714
0,17749310728564
0,18600411209931
0,193878462236758
0,20139261961685
0,208802419200692
0,216609530378185
0,225303460805822
0,232438095299777
0,241167306742566
0,251970766703927
0,258815357869734
0,268174768447686
0,278058674923627
0,286415499701708
0,296615363102639
0,304573831068099
0,312377489039698
0,320283767008717
0,327191272150242
0,337467407397475
0,343824015870781
0,349725068222851
0,361341866008549
0,363138510391777
0,372947862050523
0,379273669968798
0,378476575577393
0,385064464060707
0,384759131634837
0,386233328843133
0,387372681645279
0,387963576469228
0,387685185228281
0,387678976281132
0,38998340130484
0,389082134312309
0,384266311901094
0,385480957902189
0,385521263035878
0,384909832269578
0,384197165299128
0,382636914260278
0,384845249493867
0,385962522842742
0,387194852796116
0,392559185136449
0,391736798561944
0,39371951476944
0,398475801996667
0,40285659548511
0,403761111726608
0,408255879515811
0,40948625729627
0,4206519577568
0,422422463316552
0,427048741399405
0,436023384617105
0,441538233864725
0,447609821796709
0,45890058314915
0,45753808045973
0,464195541791326
0,469413217068038
0,469962072735864
0,474354043697738
0,476338309286912
0,480407586375107
0,480229150354553
0,478495680477416
0,480259195600579
0,477590026936797
0,481021960884325
0,476188080556338
0,477326254838596
0,478857280124894
0,476054500545226
0,478209421082403
0,48059592851025
0,485556894670803
0,488803164609857
0,495717878561071
0,507657102298285
0,512387305791736
0,515374287513443
0,522632755126448
0,528851896776933
0,53529357997187
0,544781369954442
0,55270709412438
0,562141061441143
0,567267006511649
0,576388374088558
0,58746324898227
0,59307179359453
0,601536214094695
0,60939523076333
0,622808308572523
0,641287341961968
0,648041464395076
0,659780096112963
0,680869889613305
0,690566747593581
0,712256923584259
0,724145124408356
0,736338377446532
0,743707566378564
0,750248318704091
0,761816978802537
0,773461825286887
0,787130220931979
0,784498484112934
0,793079222415355
0,795728992124296
0,802891112669995
0,798926049719025
0,800159482499314
0,801933737220803
0,798611738822471
0,797115323809332
0,792350055819507
0,791817187022577
0,788700279089642
0,7817590992688
0,781582142175643
0,775513848843479
0,780974266750224
0,776042572379943
0,780851067797852
0,789641231464057
0,794962210873139
0,799661823093128
0,802704544295071
0,807822229798807
0,819738809986872
0,819892413584512
0,839126621680435
0,846299974392589
0,85613247386765
0,855326957468672
0,869624946021051
0,889560897785432
0,885042845556384
0,887762030264615
0,910906140410162
0,920646386808735
0,92637710708534
0,929457485301487
0,934793924655453
0,943645945726878
0,947193233216528
0,962060745518757
0,959475728128811
0,955752757533486
0,98078359460262
0,977717635034391
0,972075578437573
0,981892622195183
0,983659322474131
1,00069446131394
1,01890316724026
0,998840739657988
1,01101682815208
1,0127241562463
0,99417846749334
0,995190562911945
1,00026710111751
0,996343271538523
0,989106047308949
0,99619132486094
0,984070783394403
0,97661008286655
0,95127742618947
0,946957437827964
0,912178415509979
0,88237019645696
0,883413794926186
0,861786153827496
0,835114034496509
0,797027131277723
0,759044436454733
0,742143288756111
0,713640416051008
0,689383116279068
0,667444203109312
0,648194538443343
0,63054213471234
0,615588998975892
0,608664394087321
0,602289284786927
0,586951351279583
0,580592188156836
0,575759966844247
0,564557864872479
0,559255191637048
0,548906342290808
0,538602553912813
0,53215473506371
0,522191658692738
0,509557013306367
0,501007165721449
0,491619878859649
0,474419508013899
0,457353677122151
0,448301998098842
0,433446605902489
0,42051722681383
0,406754799247218
0,387147053403149
0,374241741877813
0,356294574073043
0,338991445134745
0,32537637926231
0,305264931031541
0,293687745559918
0,279306998385868
0,26119326999404
0,252021129294138
0,237587056021275
0,222628274403969
0,21489046776074
0,208322887871135
0,198205154162515
0,186549269143698
0,180135752622242
0,172569410985071
0,165614347408913
0,164973401127344
0,159472605757129
0,151193991349638
0,148886208202553
0,145596764568872
0,142870567757996
0,139769394405169
0,13514944910494
0,137011740400871
0,134356310310582
0,134346553358814
0,137330424082708
0,135552875316573
0,13310561074501
0,132096843862245
0,130830631726371
0,136219444304646
0,132357299718073
0,135147916243459
0,136396723063529
0,136083603653028
0,139226218779978
0,138932956949756
0,141712079046086
0,143822659115337
0,142384487136085
0,144463080467838
0,142568315720916
0,141072811870553
0,140879428653754
0,137155927640903
0,14113048181394
0,143419783853517
0,139225305349381
0,138787666845969
0,138316503513236
0,13945387633087
0,137946471908472
0,141482119276947
0,142551352199414
0,142057136022832
0,145176600653991
0,146845299550409
0,142441971153302
0,146528492240752
0,14862649506003
0,14880871699429
0,149109628442065
0,144173300282022
0,147362104711372
0,152703716499255
0,148199272051491
0,150659136433277
0,144690335514226
0,151592126207652
0,152849827786127
0,148290685162994
0,148710131809726
0,153750656705222
0,152550428200658
0,154187545676059
0,15364551379923
0,155582862025472
0,155403513642413
0,151941727522388
0,160763748469887
0,161558386080137
0,161095528655958
0,166263999431213
0,169833668497411
0,176248241635715
0,181151470009394
0,187896945121168
0,189351767676828
0,190156262798674
0,198955103244255
0,204845467097237
0,199451774166142
0,204495726013146
0,206615841984507
0,20587522604001
0,197048000384729
0,19724366174258
0,194681857571448
0,188538592523622
0,184818897448937
0,182197588789699
0,176858725901106
0,181462110823995
0,179462250038363
0,175140266608691
0,175964144873603
0,171074765785869
0,177220551026504
0,179279323426972
0,174877183483587
0,178969465480761
0,173414869480289
0,175370081571534
0,180189302797745
0,178477531525169
0,177563641580029
0,171804514150553
0,170706889439774
0,175200527963767
0,168233990523487
0,171036741163131
0,162409244498573
0,16461705878819
0,167855293356337
0,158932080873685
0,162255729961164
0,166788036662769
0,149726157700572
0,158282655430131
0,156080608720385
0,158460821439954
0,157441093601411
0,153956981104736
0,155829105648588
0,157501373429867
0,151435647993591
0,15451682935338
0,146744476465892
0,153916597992802
0,149077517453419
0,138260189730596
0,146035426381518
0,140819564595224
0,139766567030054
0,145136714896965
0,136481479375189
0,141548147625532
0,134309947351331
0,133030291546766
0,14073995077595
0,131222725389423
0,134826270936541
0,136683750167162
0,12908236155801
0,135101726214911
0,128141813097162
0,120848281147808
0,13257983593889
0,124093439662444
0,120366276138793
0,123634361642739
0,123364677804297
0,125990443700161
0,116337686606688
0,128454139851849
0,12424656767853
0,13151267447496
0,136897897830367
0,126295542066801
0,123037387391966
0,136626339614448
0,127081225569105
0,13193294177254
0,120304995455285
0,122343128870032
0,137915092171369
0,135693007736924
0,13892152337778
0,134961611514153
0,136912014868284
0,144334091556335
0,134688287030127
0,148982984163321
0,151125325161234
0,153670693838262
0,15074053605434
0,15526465021019
0,155151595407568
0,162512760710864
0,152396849575918
0,167167246068625
0,162004165656212
0,162415646494378
0,166826516530836
0,15609964518618
0,174784773724626
0,188191824755056
0,184564823029222
0,197934295909285
0,194801785105036
0,209471783330811
0,215274423888469
0,216112931275842
0,227863595272115
0,220485279131593
0,215843813334051
0,244473475625025
0,226212793734165
0,245743404255122
0,249973194623096
0,25116721123231
0,240657724884284
0,237511730788147
0,246491443670153
0,245847227005245
0,225402099468028
0,234930365640559
0,227914016128538
0,232312143373199
0,236492508383111
0,232536174361399
0,239874128123577
0,22840530938981
0,221645619304437
0,242712946188685
0,223733678467937
0,23722925537865
0,241041307152381
0,213625469540688
0,230599020026042
0,231605967790889
0,237327377376836
0,233847955401843
0,212196340867908
0,213282479855245
0,204519806206117
0,22060539720074
0,225715928213377
0,206774110599452
0,206046984160471
0,20813709987758
0,208271299578925
0,222645964006491
0,209623094958939
0,209840659613002
0,214215730526706
0,207266872230624
0,21080418283613
0,214552026730704
0,200419411060883
0,209224442392705
0,203371066649486
0,220019892642578
0,204392571971501
0,222059123524098
0,218570763754071
0,185089191701599
0,220160101578333
0,219152813054224
0,209108513270414
0,218040149640632
0,208394603517831
0,220687378149755
0,211206318596198
0,213902873862348
0,240271684145443
0,2082124926285
0,209696210381082
0,23223719730079
0,225054836020835
0,227983881452934
0,219153241312484
0,237271951046216
0,244873501287693
0,213036290642271
0,207543370506003
0,242125445708345
0,227750481766351
0,241010244896753
0,213086827054173
0,230241208450033
0,279256014462462
0,239938894307208
0,262854573973253
0,250420738317728
0,222428304543838
0,277860022185506
0,288182728281342
0,314340177304995
0,256807430638211
0,280166350525343
0,340607687137916
0,284204825368562
0,303728098853414
0,320535671288102
0,333556085974771
0,300070248228636
0,281386318311117
0,2816805139157
0,310620215694189
0,270636014783533
0,276112783641851
0,276705129943419
0,296473725761442
0,320695459876659
0,288118564722409
0,29032573005671
0,255623153953562
0,229602094050041
0,296078337084315
0,293081657939333
0,300207463091208
0,311411629644361
0,266967535403945
0,322758763859456
0,248725484686581
0,298836016441555
0,286766372269301
0,223950150825683
0,27167315505112
0,301592520515628
0,232770788452092
0,3284265866253
0,285721467462413
0,300275918752436
0,306470791052173
0,191634689792312
0,337649391118064
0,371110357935482
0,298384629079001
0,289450207900634
0,167708153764539
0,362747346294542
0,370792715304476
0,181190490843328
0,348911417991147
0,323399532153052
0,329497030772826
0,373314968368144
0,169155992029245
0,440902191999005
0,290335967896399
0,254381154344952
0,291436803570785
0,270128501946566
0,351441106457805
0,279750354136437
0,431018332939871
0,422970966695259
0,101787829308733
0,317337729425003
0,489270059651718
0,341491590107964
0,476619059239833
