3596
4000,36533379555
650,420452594757
1
2
2
0,0744772026319696
0,0725708213704671
0,0755817921591275
0,06867115724308
0,0688673869741881
0,0759011154136422
0,0678500348255345
0,0728803749518525
0,0801287677204452
0,0738704214587369
0,0731739472653123
0,0675074037239032
0,0680495106759611
0,0740241057603223
0,0731175759009153
0,0749678246398963
0,0715644007075193
0,0690786385453404
0,0716573527165118
0,0710797447647176
0,0699830748020509
0,0715735815876335
0,075416335266282
0,0723127267620098
0,0707651784706543
0,0718833281289576
0,0678402305537294
0,0722780970791128
0,0755785420045818
0,0763600504223148
0,0740086914410483
0,0718261658723198
0,065971306064563
0,0722310407518838
0,0783076420437997
0,0699160375860271
0,0717415208975076
0,0671192518595007
0,0705855161549274
0,0773032385265079
0,074133959145084
0,0698934458135791
0,0747901334210101
0,0710928425106305
0,0759995971050433
0,0749104509835604
0,0743861377141431
0,0653826647351847
0,0703469748051549
0,0772622019980762
0,0722687729473284
0,0681168871148283
0,0760009319265387
0,0807255756814709
0,0747261759294322
0,0806029095354521
0,0872774438491655
0,076152113898589
0,0725038700951694
0,0704260837347266
0,0936012424179103
0,0962514445200642
0,0713011345551212
0,072482741898261
0,0713726586994467
0,0727635193904263
0,0693975945662878
0,0645992658436398
0,0668210756093633
0,0680804156257782
0,0670617236390166
0,0861340919271865
0,0905774381163854
0,0768774271033967
0,0830006924506254
0,0802186322281669
0,0655845810542782
0,0638816664962017
0,0681309052288329
0,0831717440732553
0,0904411820521576
0,076127389351952
0,0730928764399034
0,0593409267910233
0,0765655587484357
0,0857911370044456
0,0620190469020371
0,0769990643932632
0,0971037414687101
0,0783125715239927
0,0735313835437806
0,066686284878852
0,0644456190437332
0,0652276201846313
0,066874324633342
0,0682416575668554
0,0697526019775825
0,065909324657841
0,065980956390053
0,0798060730922441
0,0748009329172912
0,0817564826359134
0,111742615383361
0,0765446804208137
0,134324318686914
0,0920116397111315
0,074504005757343
0,116253018824508
0,0854686752764694
0,0739957315926806
0,0707129355702578
0,0698798633417518
0,0699324390042348
0,0719821992872079
0,0640771438733784
0,0960865319128664
0,10485461926269
0,0747609332752053
0,0711688014227032
0,0690971670670987
0,052507233291689
0,0920177518901951
0,117336778326405
0,0786325820905981
0,0896077486578552
0,0671811454058884
0,0641718794737716
0,107345991549239
0,0946197146933876
0,0631375614390423
0,0690066644879911
0,0651741529627318
0,0633965374763566
0,0682703546029843
0,110483070117679
0,0781090408002504
0,0704502965119218
0,0613270485104037
0,0993768855670998
0,126960543627635
0,0834061242104409
0,0680657996894839
0,0567320477008943
0,0669673160304194
0,118442977726657
0,0776073591482013
0,0594730237615961
0,0951379275076135
0,0843196361486962
0,0622180828334862
0,0643142835594414
0,0642404206744794
0,0964123049470799
0,0785364687988649
0,0441891073444292
0,118438453674465
0,140706815980011
0,121253066569953
0,12619513633849
0,0716240547706482
0,0828172785193726
0,072933349461518
0,0685865727748027
0,0616070697073747
0,0680472840539433
0,060037367105001
0,0772707443469908
0,0910464336231447
0,0682469290964995
0,0686718231996573
0,108252152362067
0,089745919545025
0,0805180157621713
0,134570201701659
0,0823563584842462
0,0620018141966308
0,103136226682748
0,0874312960639777
0,0624490742622371
0,0696901716111121
0,0940585474502244
0,0684072335519784
0,0681265711380482
0,05911416540955
0,0693273476989698
0,0864307340662775
0,0772976448113311
0,0680060955491499
0,0727097582925171
0,0572140759780873
0,0860668209021158
0,134141081809929
0,112523156354218
0,0851568084021034
0,0728218255985462
0,0435998356402606
0,112582920435948
0,102893317213711
0,0707499655668427
0,0641883598916233
0,0655912537218568
0,0598050490812617
0,0600583123947605
0,0663215555400184
0,0566815506084837
0,0506087867487926
0,110435155628835
0,0860603829757438
0,0659571442341427
0,0624905828274673
0,0778128876154082
0,0698445451784977
0,129475080818559
0,101650428995453
0,0705305176318472
0,0662715733260019
0,0625830612245808
0,0806015184032901
0,0817371789822064
0,0616266258614287
0,0706688494875538
0,0668878567797762
0,0677884249459209
0,0585216512391656
0,0633440302137944
0,0657975551021724
0,0649219949770097
0,0665693192068558
0,0674340142349912
0,0658473706375918
0,07442833913483
0,0764542153755028
0,0696577994307503
0,0646201700102223
0,0597468863020429
0,0813744211917157
0,091578399213074
0,0653525929023194
0,0659083112433996
0,069879124491697
0,0677083374247804
0,0665146815504776
0,0656405112897335
0,063105690300213
0,0638652524838095
0,0594979900677925
0,0936971873014232
0,0784834749311593
0,0675993128319942
0,055531471253392
0,0939728181775086
0,0864832936032801
0,0700971348862303
0,0645664118733665
0,0732369709870886
0,0571763959096972
0,0675787066750748
0,0967016035471412
0,0855996536980939
0,0674921353744683
0,091801541001195
0,0754973239673069
0,0708948293312539
0,0613985927250547
0,0722576451042607
0,138832525472521
0,0958734695140849
0,0711697693938738
0,141518541280629
0,0890533288919523
0,090333003944151
0,0655850287855792
0,0538135454917779
0,186488867192669
0,142434894644242
0,0695121485777895
0,0790158510233622
0,0892145039883968
0,0726173741283844
0,0812771922737347
0,0799274494312872
0,0912058393332044
0,11631257778264
0,154796655023996
0,135822602521665
0,0708791435741949
0,101683326964063
0,0959652251804037
0,0828108590991954
0,072507056181036
0,0668676816314977
0,0605599013594405
0,100823789337169
0,0910123221749456
0,0953086748086137
0,0668496717181088
0,0840284776233318
0,110901471287827
0,0871648279215828
0,0644278698608757
0,0916821062021028
0,0823031669240482
0,0779706260926313
0,070018421069542
0,079623702531007
0,0845449291964013
0,0687366279579006
0,0752443127280376
0,133281824565251
0,0947780523970674
0,0926639887204846
0,103499269725709
0,0829634491939286
0,0644554186054074
0,0824268146100649
0,0711112235387962
0,0717316937950807
0,0633431567646628
0,0706506210869416
0,0987600478022114
0,0883946910421055
0,0709866550682373
0,0767556337983023
0,072526203205653
0,0733584747394345
0,0767300344463237
0,0756153464936025
0,0754075771351685
0,0810429796738552
0,0623801330941887
0,113613390656997
0,108475900431133
0,0746573765131379
0,121196848345198
0,124175866849055
0,0860428562211642
0,0774097636641797
0,0822183619363606
0,0881325514714182
0,0791370996004655
0,0831671285656083
0,0738255115089065
0,0878146732139096
0,103527555955575
0,0942093538219703
0,0816946192470188
0,0895823911354175
0,15057558710003
0,157471954970982
0,115223407826595
0,0886249128610067
0,0717380314516514
0,142436761569441
0,113363960542855
0,131712892213372
0,113146205077775
0,0921345044698435
0,0889425773810014
0,0942033700134137
0,0891102371300919
0,0919648487738774
0,0942957442215729
0,0978039216819657
0,0943572925951691
0,0988361581443476
0,106388462907469
0,0966708478496106
0,117422850640454
0,151912096942582
0,109113501229021
0,112799418287261
0,104382083477482
0,106631392829627
0,140371092470227
0,150793282062223
0,176399136033853
0,1450123810286
0,162152760707341
0,156938628307749
0,130084511526181
0,121376575755485
0,104441993025787
0,116482757020348
0,123958547146281
0,124989820527241
0,121834272809977
0,120988592396416
0,126095182906212
0,127514582120653
0,131119560669198
0,119036742616831
0,127583126671547
0,149816799520906
0,136046781760143
0,134080019620602
0,126142793356299
0,155225113811926
0,204195738293404
0,209272008672503
0,146018792163256
0,161305864081465
0,138323694958072
0,142003369394574
0,136284445938951
0,153012407889792
0,147895914003273
0,166780478627423
0,186882923966274
0,180629368939587
0,19728231768511
0,175214331305619
0,159043807461271
0,196205128259252
0,173291932360913
0,185822830215182
0,184478814750641
0,182886212961237
0,152190374190651
0,197807496013894
0,183095041364489
0,192185218298727
0,184112356414453
0,18704595643761
0,173874688958375
0,180541461722524
0,179789806380656
0,196272328754947
0,193204647583962
0,194252994757819
0,185062416139983
0,198585756395375
0,196321199151176
0,202814216347155
0,216017925978831
0,21061360169952
0,214913166280832
0,214022613638789
0,198993736246243
0,209583987230874
0,195109551327301
0,247161490912062
0,22985278297035
0,259061822474098
0,235855238060226
0,232773504803609
0,216762291871803
0,227752675000498
0,215401369041332
0,220189255083911
0,236107634097484
0,242323915031115
0,220905746682296
0,246782933639836
0,245612052256403
0,249524257954252
0,241791490667886
0,243352226419902
0,249058200225831
0,250906487688735
0,252147209054866
0,265455178125431
0,242138071839658
0,302225430363137
0,304861838290652
0,315015991099751
0,296290576332099
0,278113618189836
0,262501243764216
0,299907820404519
0,273896481452707
0,286454808341864
0,290962057853444
0,292489525662491
0,275114804321226
0,288412432491012
0,28632420796572
0,31027471315769
0,310673032989437
0,318849230256623
0,307451369832229
0,316971764098324
0,302803986364673
0,331417058930705
0,313992597649471
0,346247613785217
0,33843444204782
0,340816234655319
0,336000766783317
0,363249039006864
0,326980475561754
0,336898093749262
0,321007044870959
0,341147695212632
0,329395134531939
0,352441572891179
0,329185513640975
0,369973154780871
0,37854571099108
0,353278306424869
0,349129528639577
0,365296721770843
0,344041951276144
0,386216438439653
0,365569229278237
0,394743959121671
0,378634971697154
0,396132204400525
0,387293903120689
0,400577262831302
0,373047001028536
0,407566352228334
0,410199008797019
0,412096075889835
0,391194631369034
0,415710962431245
0,405109562342702
0,422399688960045
0,417285987050933
0,42218311622206
0,407644201376812
0,434497390297945
0,432094124101335
0,432762143971687
0,430202323127548
0,437745270821631
0,453197835016058
0,461486613474202
0,443524630136931
0,458295990209511
0,443349138007442
0,472851086160822
0,453654982134878
0,487306842059633
0,471297418055031
0,484723420961556
0,46580285908626
0,481689418521163
0,457505096389142
0,477705298302799
0,478272162506921
0,49668740640674
0,471272789887998
0,511183952763846
0,486959395564682
0,51460299235712
0,491408191232418
0,509368523754659
0,507081586215631
0,525440287936486
0,494632451497564
0,526492202145818
0,523510834047005
0,553561940457192
0,539814020073626
0,539452385524386
0,51618180565583
0,539223735013321
0,51360549945307
0,550529196875796
0,529407595384454
0,570487463495213
0,556667926404531
0,579918465777941
0,560899008390894
0,57902361625125
0,54700687700499
0,579289437281594
0,556471323462482
0,591913396546255
0,565023145027499
0,599890086596814
0,565615653274893
0,588759061482649
0,582669337352666
0,618605331543858
0,592635664462022
0,621011872895695
0,589604429640334
0,59844428684629
0,624904130698606
0,62377000596586
0,613648066751204
0,636720258645442
0,586425948855221
0,62379510593949
0,61676673022742
0,646148697001376
0,615706389619846
0,619887948116701
0,604228838938011
0,661708971427838
0,618477254242309
0,710442839547729
0,64078938117873
0,650423735732059
0,667165875413293
0,656942816327894
0,653137679025779
0,660070161001412
0,650163170100495
0,694585217489467
0,655928587803978
0,680798272780616
0,64736998568406
0,687171102009263
0,690180006733567
0,719905021624762
0,679183142509378
0,709223761767822
0,682683983075529
0,705733170515376
0,679538873988778
0,736175215861891
0,717120587698776
0,728992615930503
0,710192728602287
0,738591874431111
0,692496348184293
0,706999031216602
0,713924174323646
0,716046718486904
0,71076985032837
0,740255808526146
0,707288744592
0,758041310306869
0,721922174425209
0,75071830390493
0,702160609329927
0,737514439975897
0,717272796464175
0,748143123232681
0,755866104543993
0,770887235617491
0,724594270839304
0,769407387197312
0,743292416989701
0,755009862923954
0,730607227826767
0,765015450079204
0,762211147164833
0,776063000597281
0,731243779690791
0,803974416620308
0,77939102458422
0,814225991051508
0,735130469703416
0,807646518648005
0,764568682679532
0,81843405997561
0,76654736153549
0,761998697974425
0,783582688321665
0,842809588509234
0,781331983131924
0,845447787431263
0,790812371283489
0,806392006488794
0,783794116516111
0,854153283911949
0,808618147824137
0,830639349626185
0,790126708480526
0,845217793315923
0,789432951925163
0,803081843872776
0,781818788222512
0,833698215233397
0,80523136809699
0,84105457913302
0,830351295051454
0,863098326660416
0,8106025320644
0,828511124152034
0,795627754150406
0,830442040366393
0,795932673241996
0,845546238537532
0,806984010096239
0,856112353367233
0,821681676355613
0,864552724149836
0,860648802089959
0,878480562602078
0,832821048377192
0,908402919697859
0,852221515334329
0,870058429031114
0,849009208258839
0,879744356442955
0,856549354222077
0,859349437106887
0,825531077692377
0,874770500254376
0,84108043104813
0,868641213431743
0,837557856271922
0,847634872794483
0,882496766595662
0,892708781051703
0,854734553172917
0,899547282448557
0,889629184049842
0,869838319313566
0,821736185785251
0,894106781861127
0,869407504205283
0,931700229845446
0,861068003775059
0,864782786914222
0,815759225583787
0,905596339255856
0,891631723880977
0,90483811400164
0,84343253573023
0,912527584189515
0,875811065754652
0,916196966286161
0,861092579766458
0,907036564673272
0,834733713736902
0,917929975998721
0,892583341033909
0,874505510815044
0,846827177772864
0,874170336881419
0,905090033645268
0,894807105886842
0,873627243124037
0,914488812212727
0,854851523760211
0,918741606926485
0,85360535967508
0,866144256687047
0,869199902831149
0,887051207262506
0,862339388266791
0,932392443227627
0,872434816362334
0,865875144538783
0,877546844711076
0,906304768516942
0,868494635461004
0,885567448873139
0,845532660212144
0,893817917967039
0,867436840360562
0,907252261843648
0,87331123258048
0,876940534673942
0,84683538699964
0,888087451817201
0,837900686717464
0,899286229399376
0,860719504170124
0,881024502024768
0,855024106362399
0,912064314425096
0,864689348143215
0,901062067111532
0,883558268107862
0,889530152704136
0,860565747756674
0,886518758212829
0,865017265191708
0,90762332402699
0,843641984826886
0,893411857567487
0,854278922058944
0,918686297282736
0,871524572943078
0,900174894047715
0,910151756404317
0,894515101533656
0,841386057039233
0,886848635817823
0,828328861770856
0,909609469890123
0,874846320565438
0,915309428264855
0,864770945589571
0,865000568421175
0,860763808199267
0,881852464826755
0,865007767300723
0,887469665824857
0,866572943617103
0,866426731226137
0,813926830845336
0,869820038705549
0,836700661372749
0,89734271023498
0,845138162650355
0,870297909440957
0,855553661076593
0,878913689284156
0,838328860404328
0,850892528538093
0,835521617713375
0,870640706256794
0,82335325065885
0,851340039050938
0,834637250353141
0,850768241262771
0,832580885006778
0,848550782881579
0,813319927541618
0,857411042009726
0,810865026671089
0,831597021545243
0,827007084131418
0,842103452900852
0,840035780494637
0,856311786499389
0,829184876079471
0,871984911153224
0,82505054467864
0,837457282132693
0,803187737235306
0,844200429694442
0,810361803795493
0,851101010140161
0,781582950832342
0,845685254736769
0,811708603607321
0,821650508872599
0,803273038821747
0,825881411836091
0,784832901689189
0,835295394396465
0,785308267387534
0,824301675336689
0,811812586298774
0,815261571842777
0,772389462965271
0,824832125473829
0,789085714422248
0,815038913064854
0,772185862085774
0,819066127200466
0,755263132203776
0,787002340339421
0,757316816003256
0,824697844454605
0,787685205772902
0,783292268161487
0,74987833137359
0,783697615304409
0,766731064192654
0,788176386322379
0,766051737534403
0,770781495036279
0,758381024870271
0,777239351291359
0,752996687468601
0,751477990923369
0,739749073657036
0,769313689899431
0,75055055693526
0,760102038183544
0,730995633852569
0,768296105134908
0,732273936637162
0,742602818204278
0,727617957674128
0,723790753221581
0,716816989294133
0,730447960728066
0,722719520161346
0,729659422910409
0,704193943413481
0,735557431403406
0,716573079511113
0,721668855918121
0,690495065734028
0,730013554740662
0,689039843972643
0,719099620531033
0,69279492462045
0,71249553494275
0,661730013757895
0,701994024571947
0,681438108394808
0,694974402577924
0,675270266596122
0,702133252510462
0,70205844228198
0,688887049545928
0,667234450802443
0,678621517671556
0,66317146349336
0,664388115462126
0,664586495242628
0,688517058455256
0,634031865897595
0,665554784023942
0,664424958674469
0,661980443228542
0,642546627554229
0,662789407074682
0,631578495164806
0,65616345951373
0,636068305105384
0,647299100916621
0,630244348209282
0,642671120754483
0,631464560469919
0,637123883727815
0,616974108068126
0,617652727541671
0,62503590837921
0,629995625201563
0,610402047758926
0,618354330675244
0,600582590521907
0,615852830305642
0,593924243062531
0,594227722354721
0,59747582584365
0,606462666265448
0,585170573800637
0,593806741584654
0,584106148660955
0,589582996391947
0,59005172040621
0,588588493093541
0,57640431212136
0,576421686359096
0,562856329918448
0,586311317850379
0,567318408110309
0,57325732309638
0,562183777758206
0,561337792024042
0,54910890315354
0,561811373360353
0,537667752470463
0,557838341282521
0,535429316604035
0,545703533957273
0,529630343458233
0,535962327083822
0,540049064737977
0,537154074995533
0,52500198994307
0,545566878328034
0,526323770549709
0,532055571161093
0,521143488215636
0,515540685653208
0,531718782120796
0,517209308375371
0,510758908662057
0,511261226536334
0,501723494671048
0,518157713950113
0,499365421830928
0,516567109745232
0,515640538281638
0,499444596970574
0,499628374302416
0,494937843514583
0,490882743040152
0,489247737179973
0,476977466219321
0,483242914184829
0,483823811686363
0,49584948085871
0,488741062602154
0,485981758720591
0,47104434412879
0,479488411406806
0,471142114728622
0,478737103912737
0,451027772366325
0,469597164136866
0,453086350111
0,461014001128001
0,459176301975344
0,451360214662835
0,453089559263882
0,465045508429041
0,442256513612378
0,451861079242058
0,446047961936937
0,444232929573067
0,435072763753779
0,438259114339764
0,435175729601145
0,44163813834507
0,425261627240629
0,433095371207595
0,435297626010373
0,438752823620257
0,421753650007664
0,424925473878486
0,415131833087656
0,427264875649634
0,420784591005869
0,426056422430626
0,408981080755489
0,414379900703131
0,40886730479263
0,415704352902234
0,404221244038565
0,405524979684835
0,404795386521192
0,413140487814067
0,402635546895002
0,401391260560999
0,390015729276191
0,404567250328418
0,390098705747431
0,409683690909432
0,384378444163847
0,394449634284353
0,38158491769069
0,388982540501102
0,378924665335645
0,381348713825964
0,384881112768711
0,38692356926368
0,376352295071076
0,386487566255921
0,362442385768458
0,382740564192158
0,365593295204098
0,368473821435439
0,363513546236718
0,382212805435023
0,366604804426775
0,368811671545581
0,365757430275443
0,366999061765072
0,351161265553832
0,365854401031667
0,354152321711321
0,367719910958702
0,349220299500738
0,352305377105825
0,348868417262754
0,352835131772328
0,347934421529299
0,35576875313661
0,343874514725154
0,349361146131296
0,343562285772778
0,340650596147962
0,33463591150524
0,338999444364142
0,333535528972303
0,337631182463396
0,330082825842721
0,340607419625062
0,332447856810064
0,331267413939916
0,334193568192131
0,327357520091896
0,323940925695866
0,326737639134386
0,330083348554388
0,335007338655017
0,329727020584525
0,336705824536854
0,321739239220003
0,331662704044959
0,32386464605006
0,324851292951742
0,317244527028987
0,328518985511045
0,31756836405401
0,323186600333331
0,313457108215294
0,322619584222282
0,315759642481061
0,318950264480612
0,311756930279454
0,322007604401806
0,313158289052771
0,331503371104022
0,312416078747158
0,31137794824572
0,313553934796918
0,320831301300415
0,317266452333188
0,320493975654477
0,3118609918676
0,317256033165451
0,313500855107599
0,321688520409007
0,313630994432776
0,315066663710312
0,309232469711241
0,32269706009984
0,317489670412673
0,322882451351826
0,326083739059963
0,32893280688779
0,325005464602392
0,329286044693434
0,322972616522095
0,324892504638521
0,323900339753457
0,332553326324789
0,325010317284648
0,33072767033803
0,32942747963928
0,338364377744
0,333259769589044
0,330332755198245
0,329033957925662
0,336395858872669
0,328857087239765
0,342555730808424
0,337576008222226
0,341357933286969
0,333057379037654
0,346880874968555
0,339087464383769
0,349371761322116
0,34440782520714
0,357438478491863
0,343147295545736
0,356340544739682
0,34794813187525
0,359175391432159
0,357786537542492
0,368446114413748
0,359257195294307
0,372966453785507
0,361730476388734
0,378623878686272
0,375662154089361
0,380780561057583
0,383982006282077
0,39673900958408
0,378920740624542
0,387660574483202
0,387770443782052
0,397128564581321
0,39301219852153
0,404802840045531
0,394872948106543
0,408181306363277
0,400805665622655
0,411542938011503
0,400965735227551
0,406158584896258
0,402157535043447
0,406521070961563
0,414058948420269
0,415318067713494
0,402774464916255
0,423948498960121
0,398956861023222
0,412812704969833
0,408324016263079
0,413869790019385
0,404823754796492
0,407695620796015
0,403359911637647
0,411120233252755
0,402667991992796
0,41170935115308
0,40775113801837
0,408101170324618
0,403001914225779
0,406847601338755
0,404578703706741
0,408801549220644
0,395526502811794
0,407305418285684
0,403120742264238
0,402572001162443
0,403288113332697
0,406210827180184
0,401416203210541
0,406252095052703
0,40347262712305
0,407620665144121
0,398313490085962
0,404826774543749
0,407899229742323
0,410957053035643
0,396712456348318
0,411279194077643
0,405676212862977
0,41537771244707
0,405111426761482
0,407542269461219
0,403640792465741
0,399595609574958
0,400937229592301
0,40985796232244
0,404453665644179
0,409271157803407
0,401411219496993
0,39959150281164
0,402648194167295
0,405098383396601
0,397935186484752
0,407523588519285
0,398369840222678
0,400336507700605
0,396832834823727
0,394291336794562
0,38997872351097
0,398577255999964
0,389710291612475
0,389262895141824
0,383581245168616
0,386092177434875
0,384496881805342
0,386468095191685
0,372179555859559
0,387272774492224
0,377772034280706
0,377761164816631
0,372695145415356
0,375653634661567
0,362030800713036
0,37114707608705
0,357704957799604
0,360773623101549
0,357189613569659
0,365241529948642
0,353522217338095
0,357133034803534
0,34250881945933
0,351049270391359
0,349993149420402
0,349764377126553
0,343877980634852
0,345689177251916
0,33378851749281
0,336462658665643
0,331500347939236
0,337302841567978
0,328653501760562
0,335140132245954
0,326371794907121
0,32759984765636
0,322647374300932
0,324923066854507
0,319180738335728
0,322362242207932
0,321541630803076
0,323574689886258
0,320129132706811
0,317731819838532
0,309108175630985
0,316320991027766
0,308835830137146
0,314174168612429
0,31070662093354
0,308439142481183
0,301040398180177
0,30903145891833
0,302698366433252
0,309918391726998
0,305805375523706
0,30330394314242
0,300513252702155
0,301399908826866
0,2928602668445
0,293858659370056
0,291840723945925
0,293732995855922
0,292364680877179
0,292224575475347
0,285021616812883
0,294661345187028
0,288518714372559
0,293151300276275
0,286234655645953
0,285933087710296
0,278918389708981
0,289373116831246
0,287036031257245
0,290609187182887
0,284995388019285
0,286806475959792
0,280484424068769
0,275678576549485
0,272467909842458
0,276353629202835
0,278125206370089
0,278858374758788
0,2725298797662
0,274618897429218
0,270278419439628
0,271340195550763
0,2720497768077
0,272790277551716
0,267542536260863
0,269404802858771
0,266725794884778
0,268758452091649
0,267749417101231
0,266180395157213
0,265223107460004
0,267384253435272
0,263645548353152
0,266394827112511
0,26292081306736
0,261260358809469
0,263685828003881
0,264329344455368
0,261609914914178
0,259771885142593
0,25594932264869
0,257642927398395
0,255878072929494
0,257556106635671
0,259743320410951
0,256930094175823
0,253718810826893
0,258732233144854
0,255661095166854
0,253722078943333
0,25042255579846
0,251310886916915
0,25136318652057
0,256788196020452
0,251075249543065
0,256066697458912
0,251816566368221
0,253407147198153
0,248255219305302
0,247711488136769
0,249839455203439
0,247664981076123
0,246325338704558
0,249646601500121
0,244214680652417
0,245962364803935
0,242182005067423
0,245926991272186
0,244708772864009
0,242688367005087
0,242041944078795
0,246882715697628
0,244093258329351
0,242532635586138
0,239669939133928
0,245166281742254
0,238185833605687
0,238279019631633
0,238334160810627
0,240210498615823
0,23565690963186
0,241001247287187
0,23619424873736
0,236419429236312
0,238880709662086
0,244621573976005
0,245125960730417
0,238403260782137
0,235029394751904
0,241399018447859
0,235010857465156
0,239965126051482
0,236046340761602
0,23273419905054
0,237213036155148
0,233355342556986
0,229943544435699
0,233189975160506
0,230646750858906
0,234022434247967
0,23474045313702
0,235348875095213
0,235716459943086
0,234549631098209
0,233311637224503
0,234212644737793
0,233038532729718
0,233827541823353
0,230815734503246
0,231586360218012
0,229002580839952
0,233971524159825
0,232174724692888
0,231037208348538
0,229000290393967
0,227846888849722
0,226879804991476
0,228833757217916
0,225913797022115
0,228108866915191
0,227602628733704
0,231832198881837
0,229654966718887
0,226474832926232
0,227055000756701
0,222872757279665
0,222418942867944
0,230717529345971
0,221320773005751
0,222115539854546
0,223353610681356
0,222304607015924
0,218715421297447
0,220689309728952
0,219544650359596
0,219991372301153
0,219861306336331
0,215667026148991
0,216109614584521
0,217711346345853
0,215132728863022
0,219149363910751
0,213814585105378
0,217602787366727
0,216218418066987
0,21687632988284
0,216762072122021
0,214120440629091
0,216090139303714
0,213755494837254
0,212428304239448
0,216042683692853
0,212065742133076
0,212150255665513
0,20762434684039
0,212434141916275
0,212458198687316
0,210534737016726
0,208066110151184
0,209640046291076
0,206807165266009
0,209241753881157
0,209868258272307
0,208320225335326
0,208614017426166
0,207949542502002
0,205822577538148
0,205667506941034
0,203348668380309
0,207802021520869
0,204911097349019
0,207231513040095
0,199503783539763
0,203926374824595
0,20217938448037
0,201869090067608
0,199392762500445
0,198256263570569
0,197818056369304
0,198256142530741
0,198307390023333
0,198636361247745
0,199296177564337
0,195400891186132
0,195465966607526
0,19901484832362
0,188160107517049
0,190662890685816
0,187340583782524
0,189927963775935
0,193098893800303
0,188615197865597
0,187121697195896
0,190615819172829
0,187087470820431
0,185411349879775
0,184678233674639
0,186592004482468
0,184903580957936
0,186841288660462
0,18388836727779
0,184033912841146
0,181814556513885
0,185388216467788
0,184597864684793
0,179765164430025
0,179633991468342
0,180195880647182
0,179274373222841
0,180916002944459
0,179921015234167
0,180365167835402
0,178670612822642
0,178241098303754
0,175979505221049
0,175288589715217
0,174071414823031
0,174403066853911
0,176687802407158
0,176653596286777
0,173814281270415
0,173697203082591
0,171179996636536
0,176841045352266
0,174032808831285
0,170103625044331
0,172114392137553
0,172202076424208
0,170808846120032
0,172328790546472
0,16900286970571
0,171314703763561
0,170420523955679
0,167390001752969
0,169816660170688
0,168608747687915
0,166484747516028
0,168029061263223
0,166904015681172
0,166366639888093
0,164671458985999
0,164548967106609
0,16420150732567
0,165470340580308
0,16361803604403
0,162581319376228
0,16313827800154
0,163203085848729
0,164692888626499
0,16042569827434
0,158768884069683
0,165610288233039
0,163100782119569
0,160131685316646
0,15892156868282
0,160780963220862
0,157632166301438
0,160622239433335
0,15912696112057
0,15830609034623
0,155602130477368
0,155259913611978
0,160015591651541
0,158517056219164
0,154596228102238
0,154838775634142
0,153133433114463
0,153752878537048
0,153175102559448
0,15465242844144
0,154402966798868
0,15370703761003
0,15089661166896
0,15497093872025
0,152908821761594
0,155179981858867
0,155122767572313
0,154809635191776
0,153354223644548
0,149725746541572
0,152156534817084
0,153092330851908
0,15074169477325
0,152597033169947
0,149565818580822
0,15295144956972
0,153349979114112
0,151259340995773
0,149657826232898
0,149501797954935
0,148413331839382
0,147010709480345
0,14786208180085
0,150033576402705
0,149300066773542
0,146324637307851
0,145447414754515
0,148212138871909
0,145340243176208
0,148657236965048
0,14653757673342
0,147131576527931
0,145035037461231
0,14917218913751
0,145205326166068
0,147734002292294
0,148187390254077
0,144619643758321
0,143598337612544
0,143364783681519
0,141754297436153
0,143894298936286
0,140324297263448
0,142752203285872
0,142350676831927
0,140407791822556
0,141236610152405
0,138743211499984
0,139037946129119
0,140809919935736
0,140613527616113
0,144962134293605
0,14214940132058
0,139171894161959
0,137701211036938
0,13653603124422
0,137089298080335
0,135845147250259
0,134933831301778
0,137147934648712
0,136391416786531
0,138472667515001
0,137649297028773
0,134089694090727
0,135324883510506
0,137272460887326
0,135142913990773
0,134921764330857
0,136035142525028
0,136606657469591
0,132832782233244
0,133480392789651
0,134996972922838
0,132734998802513
0,133345773318756
0,136749929331491
0,132822474160001
0,132827694602
0,132573385850922
0,133752726615484
0,133907041431435
0,133705042418055
0,131663155862681
0,129680249445111
0,132537480519795
0,130633164591929
0,129898957347282
0,131673178008315
0,130387410251495
0,129249976860708
0,128289882900335
0,127791202228319
0,128222611065602
0,128974846647171
0,128665792518208
0,128230600131821
0,126465761321771
0,126098569986553
0,126411166684329
0,124398867016428
0,125856118364594
0,122985655730339
0,119424553438122
0,122325740029121
0,124615737321622
0,123908924463443
0,122296404060493
0,120539871446581
0,121040975039318
0,121059081958358
0,117220481336275
0,120744764360652
0,120881236442646
0,118534329421202
0,117259540227903
0,118967634946022
0,118621652549703
0,117315494072918
0,117615050040156
0,117898146203237
0,114498689033695
0,114899373862234
0,116822224193868
0,115026899300099
0,112718153205321
0,112270890698658
0,113901881221329
0,113517325013509
0,111603101393878
0,114333980307325
0,11421167888629
0,113294626494857
0,111880705714361
0,112261594832703
0,11298355890137
0,108395071128089
0,109849201576658
0,111211024807485
0,111291823078053
0,112736370106271
0,110014914777798
0,108233809873479
0,109924059142698
0,109357797477808
0,106684379943445
0,10673513562535
0,106875164833995
0,107249083775845
0,109306620549995
0,108068949695147
0,103901688962899
0,104718959192485
0,104877183769796
0,103807833487887
0,102936647553832
0,105042122115601
0,104247700871949
0,101751335171852
0,100457200889686
0,101889145024577
0,101922839238699
0,100434428893811
0,0997875162416016
0,102365954196871
0,0994494284809361
0,0995729652754818
0,101113051072032
0,0986343346104023
0,0987640804116165
0,0953815231669041
0,0958263742858454
0,0981327785964581
0,0950723041274957
0,0956509370567978
0,0940782051772138
0,0960513608377238
0,0972116002179639
0,0965014879050387
0,0945873683431279
0,0944522615757038
0,0919322888006082
0,094713961179635
0,0941709734201854
0,0924622892296458
0,0942067844595058
0,0902631449508759
0,0929709143400254
0,0954771406982638
0,0915115095769353
0,0926465264501184
0,0915140267550906
0,0943486588169574
0,0927529990103456
0,0921741939653846
0,0927894720320507
0,091125548737468
0,091614712449098
0,0958696137185737
0,0947024406300805
0,0945057041918656
0,0917322893553238
0,0898664258862467
0,090525315135648
0,091385931123658
0,0892292338302642
0,0956564252206959
0,0941057406057637
0,0911344645045041
0,0878896352064341
0,0860598656062236
0,0827551951376639
0,0856174116995309
0,0877411553445007
0,0897212915180555
0,0853481245474791
0,0816873826082755
0,0771324521071285
0,0858078392651742
0,0841742424818941
0,0860389606994677
0,0816100718242207
0,0849029535139345
0,0829306192662092
0,0818579160470498
0,0830552145216024
0,0843226368452346
0,0766579582792499
0,0830385097299436
0,0792307256599778
0,0888004572393086
0,0887897151418776
0,0879485411959645
0,0817519620521112
0,0859762002795788
0,0785621864995497
0,08279891389547
0,0792893620150842
0,0834230538818499
0,0785554377247181
0,084377389766321
0,0741726699897484
0,0842694441555055
0,0766616072314229
0,0832734145616494
0,0735399621178118
0,0798181939560901
0,0697701088831366
0,0797475370317224
0,0631193294394682
0,0810347167789712
0,0760558045424993
0,0871348774951746
0,0731382862332372
0,0840205330653327
0,0694678843294532
0,0837172837542573
0,0800855497737441
0,0892750381486301
0,0732417243148703
0,0797308001712488
0,0839646434473934
0,0872004827219904
0,0801616841689151
0,0750009995983966
0,0892293254617088
0,075905304652763
0,0852141792441783
0,0736539439288712
0,0919211620233846
0,0702144403227728
0,0884463626028511
0,0740483979079286
0,0873770444591762
0,0713344435589885
0,0871363441985521
0,0733877584485278
0,0845889623259254
0,0769588738699957
0,084333706946914
0,0782003516171591
0,080164818809019
0,0757210299091444
0,0797422702103624
0,0754152157279516
0,0798788863310979
0,0750112719113346
0,0776805161280572
0,0724762516151649
0,0779559894023385
0,0724775039782043
0,0764352369367786
0,0705220385186109
0,0771910384043259
0,0719876289135335
0,0750842456871601
0,0714881402335586
0,0741713450958325
0,0723335262200534
0,0748143144691442
0,0723007080159939
0,0764519886962123
0,0728659215453614
0,0786999618244068
0,072147922242374
0,0759619124173701
0,0711225422222045
0,0739924166376594
0,0723514607090137
0,0741820515812379
0,0711794638262138
0,0763245686708527
0,0724121482288692
0,0751441706061785
0,0732186821326305
0,0759912490779938
0,0719545888733106
0,0749291136319769
0,0732453619612882
0,0733615840165806
0,0720086228768582
0,0748837454326524
0,0694971413107114
0,0743764619290884
0,0718397886984145
0,0748728255755662
0,0728703134456601
0,0755930369304202
0,0706533231388738
0,0755880168541369
0,0735304575533961
0,0735456785199954
0,0730418753238735
0,0772500532792343
0,0704166793949463
0,0753173045031811
0,0718946419464266
0,0741653237916588
0,0710866972661977
0,0748648053017352
0,0711527879999261
0,0720708936129773
0,0693279248975954
0,0726945644788949
0,0678461143092813
0,0733213907258445
0,0709508056356857
0,0721484320560778
0,0711667892048388
0,0727590857598031
0,0725996664772869
0,075998649619428
0,0714717557120443
0,0733760416924312
0,0683984583514477
0,0717005110854016
0,0706932652591636
0,0719181247896449
0,0698905230418115
0,0702556747503859
0,0688696696352112
0,0727988400917029
0,0690548009580164
0,0743253710809005
0,0701744623230894
0,0725257609100348
0,0716656083468061
0,0723691084108472
0,0706451309446637
0,073828741363245
0,072986638938359
0,0727483755509805
0,0667602195522286
0,0715666772431196
0,072233736855266
0,0735788523277266
0,0724458546150915
0,0727358230709082
0,0719126263652021
0,0739281428300751
0,0701995283984214
0,0733240315948834
0,0707774738860363
0,0736611151912675
0,0700656077538065
0,0737348379072115
0,07236262720341
0,0727912875860696
0,0716679507414408
0,0746334190937721
0,0691006863565304
0,0737123866992065
0,0730353976483199
0,0741475213877707
0,0728694851487168
0,0738516579297552
0,0711971559916824
0,0769160615279349
0,0744776049933585
0,0741376575002863
0,0722665232210652
0,075474643119031
0,0753508268632497
0,0764096570730314
0,072469985218753
0,0740583961835401
0,0717002907051284
0,0719827172612815
0,0699010041986111
0,0742734680967479
0,0721826624689731
0,0722256981182851
0,0709690872564551
0,0736946886522029
0,0701171916383688
0,0738578260407266
0,0696568532772795
0,0729116685986612
0,0720697315032128
0,0760572731408176
0,0729565246913847
0,073589346741532
0,0736475227469787
0,0754346636539931
0,0727949734818363
0,0754900745586462
0,0722961525936338
0,0742866798494602
0,0732287666954905
0,0748516801234898
0,0737291137810364
0,075691621295412
0,0727895107154193
0,0761601563929332
0,0736662328267463
0,0770470555803442
0,0758239752490487
0,0768676298881447
0,075881633740945
0,0764254918978419
0,0739715001563027
0,0760623405743422
0,0741544051229513
0,0772670508577751
0,0730697830718565
0,0761525166159651
0,0733817428485912
0,0746377175643304
0,0736428541414153
0,0767868611315193
0,0734402418650273
0,0762097798212186
0,074090148981715
0,0766891461439085
0,0757294231502159
0,075212385670459
0,0731014807380854
0,0777802195276905
0,0750389402557901
0,0752479557799352
0,0726034657023165
0,0777923862044061
0,0737592480116019
0,0742653425319481
0,0736102498888281
0,0739752600801076
0,0687345322444216
0,0719320295574535
0,0705480415171448
0,0767151364916087
0,0715791667186529
0,0727766761550468
0,0719903174733314
0,0730263637727778
0,0704844076942942
0,0731653557501265
0,070021662954293
0,0721052988104715
0,0688621036856033
0,0725884177663652
0,0705160086911977
0,0717238540310797
0,0700628218121846
0,0699198741514619
0,0708236055206172
0,0729071269839159
0,06986854552106
0,0729763232438184
0,0697446817822729
0,0703410610981065
0,0668042435504043
0,0703036386032949
0,0706981404589915
0,0697812308326413
0,0685629102232405
0,0726551818261597
0,0699124919432033
0,0719380355181976
0,0682424747793184
0,071805999132718
0,0710348074103894
0,070144085592822
0,0658286131792044
0,0693795372501722
0,0694109800662152
0,0715792100183457
0,0695703401513795
0,0705909544970416
0,0683036255333686
0,0689527108755592
0,0672310968232114
0,0715816642169167
0,0698744438687987
0,0721630135079521
0,066815402229917
0,070853294067143
0,0688890628992252
0,068732587555796
0,0657073000847538
0,0698557522421494
0,0663009335949206
0,069728247978486
0,068610096784611
0,0703688581832253
0,0671289122173814
0,0694029761441518
0,0646776479387362
0,0687229340664357
0,0673386593988055
0,0691580997206032
0,0655197942152037
0,0701619871345987
0,0650368039127049
0,0694141730692012
0,0669853308279281
0,0663256650319157
0,0669620945179371
0,0693793361964514
0,0670796907064353
0,0704580153738884
0,0662480327923926
0,070878592781029
0,0665971492992891
0,0676936148853559
0,0658698158431107
0,0663965313417123
0,0650661853435521
0,0678215372887555
0,0629096299668887
0,0688949837602297
0,0655151028316977
0,066802846027702
0,0662631414989464
0,0670805367028762
0,0643475542199373
0,0657448023121517
0,0629687457521576
0,0659392099666849
0,0645249201331882
0,0689835888548103
0,0650531305348118
0,066381238618637
0,0643069742254449
0,0705605400880702
0,0671043124280805
0,0685850433239669
0,0632333750818089
0,0680096027444582
0,0630386914469047
0,0663835706279824
0,0642900357289412
0,0643204689525921
0,0624574809974037
0,0666483029772545
0,0637347028623071
0,066717732078658
0,0632132742217412
0,0627349682896315
0,0610151358739886
0,0648700499150058
0,062262048336234
0,0629540934703118
0,0603273590978215
0,0647355126449651
0,0592017260997487
0,0646442195247359
0,059831175474388
0,0633148766053405
0,0612045075960158
0,065061884132236
0,0666224109261135
0,0641715526747454
0,0576067628156046
0,0621800545438798
0,0619503710028457
0,0626322754262213
0,0584247935619823
0,0604396813046048
0,0580569580724699
0,0581369132262291
0,0575442709791414
0,0598519695612333
0,0559082910345418
0,0601532763053873
0,0600986654343822
0,057579605867842
0,0566925206215001
0,0566588420546584
0,0576628287254626
0,0601770567488216
0,0537449231606272
0,0577818731073892
0,0569608633112192
0,0557571305932927
0,057889764640888
0,0541773877428442
0,0668278432832793
0,0687753224083105
0,0579842016897358
0,0561581819910851
0,0600019522949095
0,0607023859726815
0,0566997894199739
0,0573836955004788
0,0568693642068339
0,0586487574943454
0,0559139946579884
0,0564348204735495
0,0562375049896844
0,0580701657420745
0,0547928824442704
0,0575351826022209
0,0566777647848036
0,056112854399493
0,0547572206815077
0,0567509661794121
0,0527037576821066
0,0575982281538567
0,0552497428090419
0,0546237204484348
0,0572133500304916
0,0549847482034935
0,0569239397812613
0,0637386548208678
0,0603201029347344
0,0594910776367476
0,0534926659589887
0,0563419986445492
0,0514935470705897
0,0567346780219914
0,0553317225157304
0,055052982541766
0,0533426525539502
0,0559864650995071
0,0523946968865225
0,057464041655637
0,0548667107461877
0,0577766680887211
0,0532372138219585
0,0558663071218087
0,0516301345037916
0,0540788248854308
0,050624156562052
0,0571949275378894
0,0479553963966425
0,0544735280426007
0,0538084912395728
0,059456447864423
0,0451371148963489
0,066021824434823
0,06584344550894
0,061439580015066
0,0531608781951444
0,0562270186642988
0,0518802604667715
0,0542064339277184
0,0500351829228623
0,0538392382611153
0,0510309039100001
0,0547307775955256
0,0518045826700646
0,0560235569854035
0,051573097746084
0,0530918395219787
0,0546901934604385
0,053223424079357
0,0511696957815632
0,055350336122762
0,0517894380232051
0,0530384624434235
0,0575304868552226
0,0728696867997051
0,0557322871024977
0,0579420325504923
0,0496171829055122
0,0563618528579934
0,0709511658237606
0,0617036343058496
0,0573233500135561
0,0510614387623191
0,0560515519114853
0,0483033248465103
0,0550621848561788
0,0464417365731491
0,0603214746043782
0,0555267363417037
0,0574040501253031
0,0589036558198116
0,0524537001285774
0,050488121018661
0,0487485983741703
0,0519913308611376
0,0502854509793903
0,0517576128941105
0,050919642277486
0,0525020060847639
0,0493359195026088
0,0508278935526502
0,050712168873217
0,0488520696650457
0,0588881818771971
0,056543558603384
0,0540782378634655
0,0506206137372691
0,0519920852221563
0,0450812543027481
0,0605024746707895
0,0642166620437404
0,0569770934557157
0,0525238338878421
0,0495312979460519
0,0517083060508063
0,0490500372296075
0,0547030959777411
0,0498823288128394
0,0514614316026006
0,0499603339498586
0,054516960502578
0,0527344980585394
0,0516906940395803
0,0486612810998396
0,0551936368192736
0,0487444926592
0,0547797830402673
0,0492601404273285
0,0542047279225804
0,052585312434436
0,0527589569357633
0,0711797292966325
0,0717235213504871
0,0717958020983269
0,0618796735457881
0,0614453006641044
0,0527874302943296
0,0551305174686542
0,0478277093872876
0,0520965315392678
0,0518187433051662
0,0541443870988292
0,0515238329585871
0,0547346140994044
0,0526805522364207
0,0551201110802974
0,0500541636414579
0,0505619284886269
0,0488816342856623
0,0517927846690087
0,0493218277714063
0,052425353661273
0,0509600914865269
0,0478843835008018
0,0611973674890083
0,0597200676265881
0,0569256179474546
0,0474321018838437
0,0974017870138623
0,0619995284965317
0,0687772519930532
0,0507777942875621
0,0569389422938702
0,0476857982506201
0,0526952083527237
0,0505015446896119
0,0597082173902364
0,050476309834309
0,0545936396429329
0,0486955102105688
0,0594726228615719
0,0507926562875014
0,0470144778535628
0,0683877574509952
0,0837886011501999
0,0636617058550283
0,0621093663673451
0,0432644342755986
0,0738883959903486
0,069890514752546
0,0611668004002044
0,0587180008701817
0,0561296195862543
0,0557376335323636
0,0546713702718489
0,0524793606892553
0,0542336238192129
0,0570454006914966
0,0524595487530679
0,0541732284843194
0,0524772884925282
0,0523060990395814
0,0590723354285155
0,0540667368452738
0,0707234779307472
0,0622848616944459
0,0573812680777989
0,0604355114462296
0,0581032076326146
0,0570533037576065
0,0563048578107294
0,0559043401810096
0,0522601002609313
0,074741242500119
0,0726077771805382
0,0627068004077763
0,0774420994958436
0,0628049895735974
0,0587564703692412
0,0632876882935585
0,0695089328255147
0,071458895848031
0,0463727613106771
0,0888239928893539
0,0727505085638092
0,0956312233766943
0,072403166548157
0,0645850644491082
0,0566535243047836
0,0636625122607234
0,0556470758813061
0,0585273221345846
0,0839774859505578
0,057763278476556
0,0689740026387307
0,0510420639471201
0,0833502280998332
0,06698758768422
0,0734412824746572
0,0616356791141896
0,0624326713250799
0,0595854951575128
0,0911517489275693
0,0559041293928944
0,0768325244715413
0,0914345217819379
0,100017532903103
0,101359150905816
0,0663810877238682
0,0704648670751485
0,102892736453638
0,0711755204525155
0,0742515459121164
0,0606024251834073
0,0772755046786107
0,0568930780973718
0,083079035980643
0,0972779310583557
0,0754630609897915
0,0749150501626657
0,0712569826904086
0,0714712399658688
0,0989332929219476
0,0817399700595868
0,0777796952618265
0,0740466757214215
0,0768199202072943
0,068290737242721
0,151557141455763
0,0806373320887975
0,119328147988782
0,0939422518748793
0,114416489101181
0,0898571418716851
0,100063844747043
0,0781449233414987
0,11309822209419
0,106175440718023
0,0979046570894006
0,0714387158736881
0,131506604891622
0,103793069692985
0,105503858750708
0,101392857869299
0,097999471151707
0,0951077129026755
0,152128042928479
0,159237092944289
0,145221556120273
0,10875703248425
0,120299632936834
0,13787474107306
0,12158940432017
0,11425483828606
0,116128765544062
0,11730307670895
0,114868922133579
0,122074490205052
0,137661780925998
0,117674357716638
0,13417765411365
0,120221004641772
0,143186757307256
0,147273649192088
0,220762729816621
0,158232701424415
0,150923142017512
0,183144907488158
0,161969711235451
0,15584045206484
0,136802469824907
0,139750571156321
0,15579653800394
0,14369909248251
0,142205988433074
0,138834980764508
0,182711015910971
0,147868501882723
0,184387034741371
0,154907550247478
0,161822409904373
0,137397141510463
0,180815150680795
0,337595040111585
0,173423067378902
0,177654296095813
0,148363304264357
0,210907774362753
0,22560339346256
0,172183231617836
0,159234374687601
0,158409016803489
0,149064146594089
0,165660011857812
0,164602152800613
0,174044365800013
0,186820455378751
0,169083686506999
0,165718541606604
0,20590149912833
0,257211512012133
0,256967624951453
0,193303981376298
0,182880360458981
0,203369132514715
0,201522614521578
0,184938638674744
0,198874120515219
0,173964990879823
0,228212081623532
0,231959958793913
0,217859936163183
0,190027945749195
0,218658803606397
0,235443414868541
0,205149018693089
0,289351988901595
0,231250826759278
0,238005175301144
0,211358285782203
0,232909125376212
0,216629660353764
0,230054796090069
0,263700448771895
0,257154667619235
0,242270422036325
0,238201079298114
0,240967035437564
0,242530741557366
0,248472935982819
0,249600424662955
0,25320489717595
0,305726043191685
0,288867661927576
0,527971486539559
0,277256951517657
0,274567263722184
0,238869552126017
0,274015448513055
0,298250217685969
0,303034911037727
0,320112062834856
0,285914889163661
0,260152154279051
0,254788214528792
0,258196123546301
0,254709804212551
0,262891050563197
0,264738732623819
0,251799748425808
0,306492099461055
0,249465033364419
0,369235891922553
0,319593250332239
0,286339669647867
0,246834557972589
0,265619986352808
0,243589151971708
0,267180451026884
0,236788093706967
0,275197957012832
0,272059760476623
0,25633826582992
0,246957829675354
0,23868167606502
0,283552234044192
0,267637535408827
0,245025606432784
0,240382761245932
0,232608936598034
0,244496483305108
0,214909129648693
0,277701268185945
0,267001001905822
0,242565009584773
0,221603971362185
0,22166111486601
0,217446940256121
0,224801168651017
0,2160870761333
0,235417716571678
0,221229298238781
0,224650173968708
0,229074206107432
0,223021859069822
0,216736160040251
0,22615707070877
0,229600187053867
0,228939118066898
0,22733872607821
0,229130668001201
0,224516560605942
0,224013723705012
0,225530485586668
0,233212631137841
0,225888333078401
0,241289405019437
0,232030151689102
0,228480639485511
0,233100681986027
0,23345816726675
0,235093606665383
0,234169546946101
0,230661993963179
0,239465020247278
0,23244036243775
0,23567954620881
0,240285888625574
0,236621411207196
0,239520578683063
0,238094939692142
0,241781552504942
0,23949653706735
0,237420716195208
0,24686010927439
0,243094737706092
0,33742315293396
0,268038997573161
0,257587969192153
0,237758759628509
0,251210300410377
0,237398382220127
0,246384027643325
0,306411042595911
0,279646464437961
0,250457295343802
0,246632303403291
0,236080940931274
0,277391259347036
0,24969304041182
0,248372283170021
0,243481583824644
0,237052802308287
0,315688829034379
0,314999294850519
0,388313439042056
0,336621766361151
0,271991911864645
0,232948582040625
0,268494127784257
0,273666404399409
0,240992176706713
0,235334927482564
0,222588491914585
0,29804391609815
0,239145080229453
0,23254241217709
0,215956128877887
0,217155673801859
0,253556866166509
0,253793787237427
0,230269466895074
0,25955452853393
0,260503205278169
0,23753317564648
0,275979563192493
0,29867926122349
0,236813343740758
0,197777965968196
0,20538156757104
0,191981819705656
0,220368082996491
0,26667496064023
0,202312602659719
0,216573214484064
0,177428636203298
0,190827395711204
0,180964113489599
0,222584236452671
0,19211728440974
0,207896140403323
0,223754362249501
0,178434479506922
0,202609317138347
0,199973139242586
0,252802540929656
0,241989935089987
0,191267581944095
0,168719556134095
0,235570314144836
0,216446294125815
0,196826286754509
0,200785052280532
0,162681070974048
0,185120778244343
0,198420396289064
0,171814223324995
0,210181831403715
0,194535800083367
0,217272162727381
0,245810804549087
0,271762495530737
0,238285627843441
0,1795123801603
0,167152727512235
0,167282867796398
0,171981408806461
0,173469881051309
0,159027605859197
0,214305587217593
0,174623547360577
0,183626760781318
0,228935344509302
0,184785622958231
0,172032168348286
0,177585847489316
0,171057211156537
0,191572692510164
0,220506156625472
0,23852445240148
0,204560293352129
0,20852558936156
0,214803779380626
0,201565760087363
0,195466949360026
0,193668436116755
0,196606499881145
0,202270332627736
0,222189479366027
0,209453889988795
0,212359595212334
0,215285451781767
0,210447704606875
0,267458440727273
0,252594943820143
0,228819072607767
0,279005545933883
0,266195191901867
0,327225913553862
0,264639760280065
0,260213308606873
0,254044989097889
0,260813778146559
0,270124647718061
0,263744704434112
0,294074001167808
0,312357879018461
0,277297458509756
0,284550194017558
0,280404740648623
0,2945624237142
0,290674056646214
0,344282398842739
0,314276056118338
0,412689403948736
0,338801782749598
0,343009510313811
0,310757886704941
0,307535334497808
0,32064612376619
0,317461102473914
0,310770778109436
0,314053962111788
0,317790530001221
0,343188269006864
0,312436281703126
0,319226526931723
0,31552989604309
0,321069087318861
0,315618408645918
0,321908207781019
0,321149905988265
0,328188215436638
0,332712087583241
0,330346772140976
0,324757174628916
0,444168697936414
0,358543593743109
0,3474440131386
0,341868560046349
0,361730912933724
0,348147490186553
0,359880279559469
0,376976215915778
0,367538455087935
0,360535502733406
0,368457819669039
0,367225050850145
0,368210055692985
0,385992684362213
0,410661689232017
0,365212077569925
0,387601718974662
0,361943826290801
0,437566902980257
0,426804047678205
0,419518258720012
0,410868873559757
0,401184500634085
0,392960635691987
0,389003409544373
0,384799169076503
0,395818343487082
0,395751940797306
0,394769617101824
0,398456151146149
0,39305009306782
0,390450902158535
0,397852376383116
0,396408313972447
0,427198018663983
0,399111041417883
0,393810207058843
0,385115814929334
0,386568715766854
0,388593845472489
0,430107293048122
0,404111510984407
0,395587812059668
0,389035070160999
0,404687147505793
0,409366553229716
0,406740059913094
0,369709864230996
0,381732136020335
0,377931539706312
0,394632927528659
0,371444851995403
0,396144891824529
0,417356372528058
0,398961015193569
0,389036142853487
0,389735326613247
0,389162637658067
0,39237854410575
0,390755023937943
0,398112049616654
0,403084023916328
0,40640316332312
0,412963987721707
0,408018809704614
0,408531660115834
0,430382241689577
0,428510326578742
0,427852566743763
0,414759742094255
0,41688274304002
0,410518949342134
0,412263255344798
0,418533903715556
0,415807719234876
0,403067262776471
0,411205117873394
0,399812343826778
0,412267965987938
0,440343408675872
0,410730323472783
0,41615271550049
0,405426341188086
0,391018789938018
0,398729582117108
0,386348338697574
0,39108404209907
0,387492781411172
0,397462419276468
0,383854578862306
0,385290684348288
0,379237750237513
0,382035476835944
0,376176722442296
0,384679563465957
0,375947303810993
0,37646690397746
0,374644786305326
0,377637232116477
0,373698703804565
0,373846577439221
0,373892386467033
0,375995702652409
0,389718510497894
0,398909328128137
0,396058780494767
0,383270626340311
0,381049593652
0,382026647369155
0,372851639052421
0,376243831318624
0,368097591999215
0,374209071137215
0,366708475903006
0,369561506562382
0,369142001183512
0,372091397606877
0,366949679024822
0,372287782135577
0,368331781554594
0,371224208748642
0,357580358722508
0,366491933423276
0,361995342715018
0,36829195211755
0,365129879655678
0,370229139883621
0,362116739243453
0,369143626695554
0,364138778123913
0,360907658701617
0,362018914668181
0,362117833463719
0,363048326910203
0,361526116858714
0,357514307530868
0,360449022287146
0,354702140460566
0,358682877987813
0,355037466132712
0,357690590551272
0,350640869029262
0,350466403447715
0,352905201933926
0,350262583506102
0,343841219782785
0,346552201531876
0,338365621533233
0,339836443699721
0,337198312981109
0,339125987213163
0,333835389929981
0,330925049978378
0,329091857104818
0,32664233460887
0,320660179114517
0,321927053339399
0,315100378240179
0,319166816390436
0,315224489002722
0,315107140622232
0,309999577339427
0,310538857429209
0,307710561649613
0,307612430234436
0,304518222239944
0,305645371509633
0,303694236400382
0,307752874774444
0,303373768254007
0,305257039072615
0,304420641887818
0,306005605465772
0,302880963621455
0,305334169705742
0,307548059343661
0,30558225717482
0,309021836207708
0,309773440080111
0,313416666236329
0,311709578254918
0,31422036213973
0,316825837333784
0,315257269446409
0,315952898088843
0,317427235221399
0,319001264976498
0,319795194323742
0,318752654280303
0,322575091635951
0,322317112993754
0,319508245515109
0,323751771008538
0,320511260801613
0,320311576494774
0,321370809800616
0,322939443882347
0,321357266883966
0,32417382214113
0,317710741185224
0,319871625956413
0,315113943137848
0,318780085253247
0,318339817537782
0,318618668382386
0,314307006324033
0,315746090829418
0,311788136306964
0,313676191012092
0,312320697507809
0,310850025866092
0,307085503393568
0,309831881624176
0,306301620349242
0,303585859546777
0,305208701520385
0,30784860906792
0,301788209601379
0,299658669900807
0,299284200214678
0,299342386941177
0,300807182612665
0,294802417896988
0,29308320349323
0,296413079414466
0,291430459200596
0,291887609652318
0,290447345811059
0,291310631400565
0,287934588271225
0,286236545830598
0,281314050941936
0,282147719871773
0,27936493593043
0,281655031813635
0,276964511675718
0,275012590897603
0,270152087389676
0,272722645514779
0,268999804886478
0,266881734119722
0,267669362900666
0,26486113542159
0,260797832553347
0,261807333646444
0,258886859838531
0,258133277436724
0,256851684850996
0,257168775994047
0,256574911216402
0,257596603797774
0,25535581702876
0,257031301618954
0,255348417895226
0,252632892132246
0,250747666166758
0,249791956415601
0,249167598897262
0,246228902465408
0,24429605850976
0,240671185817674
0,234970876874261
0,235923764306793
0,22994348036039
0,226907199518036
0,222589341587043
0,221197513037934
0,217516612322082
0,22081486689122
0,216994066534644
0,216700191736685
0,215019344372949
0,217992347884361
0,222079276220741
0,227364875190842
0,228454788982275
0,23597321291077
0,239804945558682
0,249422910876109
0,255271865214037
0,26480029240172
0,274539008952132
0,281770640149729
0,292970321736995
0,301398666405958
0,312765322759823
0,323709373765163
0,332338035899905
0,347678079249283
0,357012140552443
0,371764173334018
0,384336414334033
0,394423321503643
0,408603379340875
0,42237661331646
0,433888784276462
0,447506106255456
0,460633143896735
0,47652431500898
0,488255604613461
0,496448669336242
0,507855736738953
0,517779326219705
0,524695052610588
0,539147235329672
0,538824871712293
0,551675346185849
0,555947037354783
0,55515581989376
0,561408439153107
0,561314374208778
0,564347319270828
0,561798304297308
0,560371544698704
0,56023000968421
0,557030195473192
0,558099650347026
0,550621499347327
0,545261456131177
0,546368608363025
0,546112762843937
0,545999087826128
0,544976400454543
0,54453916625006
0,548376746659157
0,546290492133147
0,549172664079894
0,553882993567036
0,557895118731282
0,558436329023232
0,565794788222111
0,570190556898784
0,576814127948933
0,57727251683386
0,587229106541717
0,594059036611993
0,601078225043378
0,611017066333342
0,626481402310412
0,62150810013435
0,630439918022501
0,635246986797197
0,63978783519052
0,647110681384374
0,647776037655406
0,655024816206143
0,651178568822693
0,652498887697769
0,655023086099001
0,658195029621891
0,653727871381629
0,65251376112591
0,65451992105546
0,656063733386076
0,651482026178482
0,656581005767254
0,667152820642015
0,663128677153828
0,66840879850104
0,677648222131061
0,683994935680912
0,68285630586563
0,697411214157552
0,699396068731544
0,701686610165983
0,708821913187717
0,714745226492649
0,719221969103034
0,727827614019264
0,736652273739565
0,744558493785844
0,765015641093069
0,765035717284304
0,772212508749233
0,78877611595868
0,799724531864858
0,819568813677866
0,834047052011132
0,850359991745804
0,867371556637814
0,89121816398612
0,910700103762562
0,925340649285648
0,953290854762302
0,962946854025066
0,964356783751578
0,975738119569371
1,01286285820107
1,01027051015578
1,01677835036451
1,02722779388649
1,03538758841456
1,0419165209206
1,02812620058287
1,0397191820253
1,04015083542392
1,02606929822811
1,02350461252811
1,02597634829097
1,02882286652979
1,02128580000035
1,00468084004896
1,02324340655918
1,02858402139846
1,00887273454634
1,01549699033925
1,02704106559009
1,03726374969599
1,04557334866306
1,05180517820088
1,0462985176857
1,05749783357222
1,08016078186985
1,08577722165588
1,086060404262
1,08705646892628
1,11200256681175
1,12841850799357
1,14152022922899
1,15885766369871
1,17132444919639
1,19944635761254
1,20690782830439
1,21632058831226
1,23567554234859
1,25208380008822
1,26612747533337
1,26870069346481
1,27701573953746
1,28040499927824
1,31098760246717
1,30478840746189
1,31317578176519
1,29651130072949
1,35712894402827
1,36269312543339
1,36299322223384
1,36680443002897
1,37054975217338
1,45318695419151
1,43737289598491
1,46168803616673
1,44780499882628
1,45063117369378
1,44517841495653
1,51415529337105
1,47392307748347
1,45625316145862
1,50228167105146
1,5213536517448
1,57154921293006
1,52526065785746
1,47986368375571
1,56076151906657
1,49875137555484
1,48478697489157
1,46537800476859
1,45920014471868
1,45667735471372
1,44971379411289
1,40167430682838
1,37439790604496
1,38791589813329
1,39512241889827
1,35252355295021
1,31599519536768
1,29164469623276
1,31962910503305
1,29793870799749
1,29858365461798
1,29956714648912
1,23790241472185
1,26604878447528
1,25222810993865
1,2262493119049
1,24073063192983
1,23840337971423
1,22298429278379
1,19580484836946
1,2052571188452
1,18182859981985
1,16812354017765
1,15633331877943
1,14308892457035
1,09665352726083
1,06718653995221
1,04556559006492
1,00948142937476
0,973073907136405
0,93032693256599
0,905534990551853
0,872517177002583
0,813432458319936
0,779854038403783
0,743284738918714
0,708357224448433
0,667727733496505
0,630391541469583
0,596153133043049
0,569775512266472
0,551031071064414
0,525619998883543
0,504117993298116
0,487038510129749
0,470580555536077
0,452552887279765
0,436774068579619
0,425668814360714
0,414907881697069
0,400820042114035
0,391905244285493
0,387277155094038
0,37878356986347
0,375769291934935
0,366010406587998
0,366013714271791
0,359025484740395
0,356538972984223
0,354118895819102
0,350344746401389
0,347667733647966
0,35178060972245
0,350085448848732
0,353589735293659
0,35109275467943
0,354160997328059
0,363521055278575
0,360583371317459
0,360142196154919
0,363415876214968
0,36205635522559
0,366809827542222
0,364441598334201
0,361665468636917
0,358770910987659
0,354846465030954
0,362952915367289
0,361201287444148
0,35635466053036
0,362093153359509
0,358144792695105
0,357734745475898
0,356162213355036
0,361196527488815
0,362773010854509
0,361233130285915
0,363212791297572
0,366662047558154
0,363831035745403
0,366642041414356
0,362829075833515
0,365186172054229
0,367206142039723
0,363040523699355
0,363679334119541
0,366249034243639
0,36328447396641
0,366945110527355
0,359656399367419
0,364451963632045
0,362096126810325
0,357167047041573
0,357459731151969
0,355965166338731
0,35581529481299
0,352142617644087
0,348106755293589
0,360221349698283
0,358165134849755
0,353795855145877
0,361572075481694
0,365729670023809
0,366649498907029
0,373742573585266
0,380081352462403
0,388344317857261
0,394095523447654
0,404675110748377
0,405003737711331
0,415846904083804
0,43040826354863
0,431185742232909
0,430089920051569
0,432671822210672
0,430096809910651
0,440862552779743
0,429411439497443
0,426214485262331
0,423844169072237
0,409188031997852
0,408960308865293
0,40638751549377
0,394636643543167
0,397401958695441
0,389063248917731
0,384261236664249
0,387489318315187
0,377669740269868
0,383116751770923
0,390320108586214
0,381158504509399
0,392540654260454
0,386117186367814
0,383915214775971
0,382418377713615
0,38287821246091
0,398144786131128
0,387757095621619
0,380615626074794
0,393435200968613
0,374611110870158
0,377936321866708
0,381378309852798
0,380244958929208
0,378681451720395
0,375215422440752
0,381686996946097
0,386135782680658
0,366643019745807
0,364750979344602
0,363436927322273
0,37200454389973
0,368674160063879
0,363218797415294
0,366772840824182
0,362831880812204
0,357431935266896
0,372843108002267
0,359309950504638
0,358694093611215
0,361850638538226
0,344465250594512
0,348224199573759
0,349266971632798
0,339952991570309
0,342659531423901
0,338533176588869
0,352128724838058
0,343479719263449
0,343484845703361
0,34249215728444
0,324922719386517
0,322391485280637
0,325881386466721
0,315842798394633
0,327639906809582
0,320645800311518
0,310799372163387
0,317051933309543
0,315069590806121
0,310721481921161
0,319020105688055
0,311241791191488
0,314692332750092
0,306243577954628
0,303718763903972
0,309569263826449
0,317042365622287
0,317660332559466
0,307476209267556
0,307081966813235
0,314009671392788
0,301777547571382
0,315254096037374
0,302169001914564
0,309078496884072
0,322938630222714
0,32205126378416
0,321485481770042
0,311881941704625
0,316837731434566
0,332833077804288
0,323503648478638
0,33405023679251
0,328555502427316
0,333056024411523
0,334448591837269
0,332107947969801
0,339352209593541
0,350705115271506
0,350756445002221
0,367300928678435
0,364444193960086
0,376645018526484
0,367989124253589
0,371257440196628
0,382135596889477
0,395614081558466
0,405322008143366
0,411961915756169
0,414927557091805
0,436412352567186
0,445716847306945
0,435181904094345
0,466560764854065
0,455389785979294
0,463484625071564
0,50918142801351
0,474119557733828
0,492997807321383
0,497667273155909
0,527462103825897
0,520858504555059
0,489938706618272
0,509344286092782
0,519119537667385
0,499828494522058
0,505516468513723
0,495391433651777
0,526820348129556
0,506719356802206
0,489840657388697
0,49918617096293
0,492912248997003
0,483848705569632
0,515316520615948
0,510925566134128
0,523297748952072
0,523276148718047
0,493106887838687
0,505000986242122
0,477078538545416
0,49629626089821
0,511271568293952
0,495037818386888
0,508358592827916
0,490634927564787
0,483966459365784
0,489428332034506
0,502755768636539
0,514278425602396
0,479784156914732
0,485865721898186
0,511037786195742
0,465448975585976
0,472203711961565
0,505228453980691
0,482326660302483
0,476784290963084
0,46983954994
0,440626061314155
0,473926436471313
0,475232830338128
0,478584892782517
0,471333818070089
0,445739659239833
0,450111953936107
0,46192534760142
0,466913303922673
0,493455652244455
0,465167328719047
0,469610345240894
0,469805770883626
0,467067354050126
0,489007396953619
0,49947131038498
0,505952274055399
0,478853473482782
0,501594722429295
0,500895770271865
0,506588432156086
0,490979238177703
0,476789587649558
0,473807507434011
0,457294921703426
0,455148659327284
0,505133398518386
0,524094432401192
0,48765149678987
0,518957817754197
0,505569113038449
0,481721027387332
0,542627112427013
0,535153369319758
0,56033989381752
0,55994076488178
0,557266447776481
0,635620528049768
0,621313110609126
0,632823890890905
0,585748918518682
0,590376356641942
0,746896124962889
0,620423211348335
0,557672797773337
0,616244919131442
0,637989841481605
0,622117676343943
0,654671783654611
0,645058062766109
0,671820407084331
0,581860260232559
0,639964357011051
0,590616686993557
0,633810303835201
0,680564368272591
0,611154400594788
0,647311657356785
0,583261111072799
0,609735167185558
0,653605474820994
0,639829817827898
0,617215691436352
0,572711567556506
0,644352719387638
0,711015003328299
0,621985894364487
0,530963388140382
0,589768474592227
0,597795715041431
0,571517880867102
0,593134176927761
0,640183838799331
0,724176471207576
0,685027861729121
0,694371655263899
0,672392720078478
0,583552886798597
0,806614127685372
0,662987499989708
0,594921141856448
0,663204341455048
0,524435935645245
0,611098360580236
0,667960496076951
0,531309763674714
0,713566176114715
0,705081389527821
0,745505846953014
0,68812611350127
0,60539043832655
0,629990802985337
0,531423861967133
0,635828498457427
0,702881252200855
0,743221969807055
0,96221831392012
1,52843509906204
0,60551562653751
0,620573663581979
1,24731649603654
0,782088349667355
0,641536344354962
0,464143183031687
0,868294140207278
