3596
4000,36533379555
650,420452594757
1
2
2
0,0680254419674793
0,0735145910909301
0,0705806259518647
0,0749224569963259
0,0690944298501315
0,0746288217504583
0,0622168345007962
0,0633233645427991
0,0638670569760836
0,0728220014213947
0,0612059949677236
0,0694836478274406
0,0660452714219726
0,0720514303842804
0,0628947454295967
0,0683954287999476
0,0611746695912706
0,0671981783387512
0,0690633635476901
0,0767658645417261
0,0670478428415396
0,0760930336738334
0,0726951374401897
0,0759757769113854
0,0647775998115008
0,072505782599687
0,0667085211814
0,0655604050451636
0,0668902525719757
0,0792751402175869
0,0600318587594086
0,0731312854384116
0,0701194800435998
0,0660667691789727
0,0651791444675223
0,0706209688938023
0,06198216349526
0,0683815247941853
0,0636129224042363
0,0741899013277392
0,0732226030337808
0,070029508399162
0,0667737556085445
0,0727848911676238
0,064345256332498
0,077763386219938
0,0705756202634327
0,0659100411922741
0,0657071128412925
0,0787834019555126
0,0669157542549598
0,063237456960934
0,0780287865729312
0,0841273934607541
0,0713019596544737
0,0908772922297298
0,0771965754149525
0,0698853493583755
0,0598924009072724
0,0720250535608465
0,0927225574767621
0,0897428294667978
0,0639097590854467
0,0804470054741397
0,0575079710479548
0,081594197435763
0,0627800212331932
0,0732312085766648
0,0600468422933106
0,0794397707114728
0,0503639437946053
0,0947000225184538
0,0816527301658979
0,0793662710666131
0,0807329523895294
0,0838256601582346
0,0598207115009269
0,0690767849897218
0,0574220342813614
0,0929305368220699
0,082225123283071
0,0835450923425436
0,0680275475171474
0,0624437091872266
0,0696278427117696
0,0884442354347592
0,0533778225908112
0,0906237179291596
0,0941869530511479
0,0742314078247683
0,0582518818553972
0,0659019869270505
0,0570279657659155
0,0695753917015568
0,0538387058555666
0,0754857870112692
0,0606312428027536
0,0762836583806567
0,0549510029321794
0,095853091778886
0,0764241654342204
0,0864681781916181
0,118657897130514
0,054120022694246
0,146683945533624
0,082551562527909
0,0683756060766743
0,125524483515076
0,07964467162181
0,0800138182115465
0,0663810463575421
0,0812844279420522
0,063440999162893
0,0791574036508963
0,050656491409767
0,11903689712853
0,0985949852898278
0,0717804427875506
0,0594534870945423
0,0809194665965605
0,0414114028943531
0,115134108629285
0,112176412883164
0,0798828411148417
0,0901084428581262
0,0739244452462443
0,0576698848359511
0,135387410181882
0,0996928052652389
0,0696054077416959
0,0577472356322122
0,0663412814141139
0,0567254691760141
0,0695947142596853
0,125081924946488
0,073754289004708
0,0695638457419013
0,0598901835392553
0,0879436105593714
0,153029065512927
0,082971186510977
0,077641278542721
0,045942761623511
0,0691214370289947
0,122913811995195
0,0962648592477693
0,0541766377027354
0,0951721438406405
0,0741256199007774
0,0671661080890975
0,0662366403100804
0,0682838807752477
0,095844048745989
0,0862757117538747
0,0255626376665791
0,159594501609818
0,12234262638588
0,112551851027998
0,154941973523339
0,0688772005292258
0,0923569041255661
0,0679271739200308
0,0693714543023348
0,0505316575341615
0,0665781963265983
0,0554593348335051
0,0804654399449317
0,104575379532392
0,0668640176639094
0,0735023799341207
0,106351845064908
0,0972097465551028
0,0574826646691837
0,175809057062357
0,0774886274988132
0,0687363814049947
0,104933278084635
0,0855229801818897
0,051900799361078
0,0749586517586479
0,0895077086540917
0,0603940896770133
0,0610774305714617
0,06855530358857
0,0748213240728387
0,0957187414854448
0,0664403780256382
0,0680203806335997
0,0671192505057638
0,055426442232027
0,0782494513284325
0,144958149131763
0,11280087219142
0,0767195484105311
0,0738110724102759
0,0301581303848077
0,128277336416878
0,10409606372439
0,0627715715123441
0,0643236363656712
0,0626343535811742
0,0620922699566177
0,0543878058001888
0,0699925402011733
0,0599904935768119
0,0443976965356984
0,127990400703612
0,0819747513920617
0,0686401125902174
0,0541861741116283
0,0801095436477892
0,0554922674226631
0,125355729907197
0,106167269616305
0,0667005453574205
0,0735938021076822
0,0492920175141321
0,0877376838793691
0,0791217136014776
0,057317360846931
0,0570441035060155
0,0592990252833858
0,0671636975292272
0,0598017657994085
0,0596328413439936
0,062236827847464
0,059222447223505
0,0619443545020585
0,0641086680182127
0,0629138363291582
0,0773212855676414
0,0708599658401972
0,0620792814792515
0,0679083701368867
0,0489041432226441
0,0771826524381132
0,0909624264926381
0,0641202339780829
0,0681656711502838
0,0653917010924381
0,0628442403139445
0,060383634670196
0,0625891557023704
0,0614233754982413
0,0645394987732904
0,054002000445403
0,105306016252186
0,06369778457858
0,0771726791398376
0,0425386297973433
0,104543280396827
0,0778700706554044
0,0650635318439169
0,059522317511161
0,0675675278770341
0,0560469385851732
0,0639064283281264
0,1042948228558
0,0718333790391028
0,058957265988421
0,0929427694037486
0,0770644838499488
0,0694685946761224
0,0684400480535643
0,0416020144147543
0,173990595473136
0,087096369970621
0,0680998033729892
0,169661197032449
0,0914754889826151
0,0928061747584085
0,0733603034667157
0,0254994459332555
0,222166246956348
0,129672985671604
0,0735801813335147
0,0707421251756271
0,101592583841727
0,0602747385079452
0,085369750294166
0,0678848796568558
0,090614809586143
0,111267603512985
0,138243963042157
0,171634201063056
0,0523319613461758
0,114438125290587
0,100346943452838
0,0766369252899666
0,0665958168879306
0,0602230618073133
0,0541636703561831
0,0921468530423091
0,0921832423854615
0,0884862346193133
0,0761354765013045
0,0683602617180964
0,118450343548878
0,0671901927046582
0,0666528249719563
0,0782562166542417
0,085797486204801
0,0635150506727096
0,0664483561381284
0,0594307691278813
0,0866099337207708
0,0553084992467047
0,0683651166200291
0,135176733127817
0,0829655966721461
0,073251394448369
0,12062512983079
0,071294115491791
0,070878601546266
0,0680378286800219
0,0704332363311218
0,0572408730541168
0,0597660081544391
0,0468868251605364
0,112844969684539
0,0771230970173907
0,0689083734412861
0,0621281974143007
0,0618107671153422
0,0594993236233732
0,0666236313404538
0,058038276175501
0,0649880706708509
0,066119063159491
0,0557544835522793
0,0907857515596369
0,116200119283362
0,0466913868859265
0,133001799317225
0,112082897559613
0,0747415626556025
0,0694755460848208
0,0663639809404185
0,0722067457920192
0,0669687603683963
0,0694035804412186
0,0642785765179889
0,0662336523562901
0,0903473799470621
0,0797650498287992
0,0660792451229975
0,0725427617446246
0,135069689625464
0,158067770343934
0,0965379603762351
0,0858673886193327
0,0461539042912736
0,123633927343202
0,116593006946496
0,102450847273171
0,116197801983187
0,062701023690267
0,0819971861392138
0,064771583588585
0,0767473316770784
0,0622547954010877
0,0810877109518548
0,0678889365352312
0,076142263946325
0,070927857536373
0,0800366682911368
0,0678566175061131
0,0908288707593008
0,119927811915226
0,0964896553566829
0,0746239290001973
0,0864827247819186
0,0657279808326794
0,119478450946757
0,109215070072007
0,150699625858776
0,131151816660593
0,12753101202419
0,145481215245069
0,0949479341408212
0,0999251701290616
0,0751007775724531
0,0870522676584744
0,0987309395856896
0,0939273312515949
0,0886389834438198
0,0873950011545357
0,0952233952131788
0,0987348694470579
0,0929303279639823
0,0972557935050118
0,0837641161210535
0,116034981781929
0,10104946848374
0,108492240825118
0,0981928603686983
0,119659418757157
0,159448518450752
0,165535592406957
0,121305755578581
0,118343364369445
0,112059369312116
0,101991740978035
0,111917808045999
0,102344525834473
0,117351621314665
0,118157300382245
0,163977025982881
0,14219065977085
0,146587039677449
0,136272575508723
0,106932664082149
0,142939094899906
0,137660176291654
0,140132494926032
0,166443699935364
0,13241861144137
0,110376115361431
0,156439813731958
0,148717157974072
0,132256181151457
0,166179784324047
0,131601985838055
0,137226893753239
0,125454072658358
0,140351481952573
0,13253117871618
0,153225500722121
0,146722099204196
0,141840714692973
0,14959823371899
0,154647501462917
0,145296757368785
0,177633726806768
0,16839948693437
0,149819298110901
0,162645379375006
0,141883645888707
0,154604775683963
0,149231569443035
0,177759745753437
0,18187271263631
0,181611246128912
0,209094001436228
0,169620730842835
0,165722110294763
0,169244470332532
0,178075242953293
0,160765302138698
0,17966299345079
0,170385191519573
0,174190266719413
0,171985395303086
0,175698699972714
0,181893935737393
0,191976995333379
0,189127410982177
0,195535977654603
0,184132049269705
0,192131926099735
0,203483609441203
0,187646168071645
0,229255276516332
0,254382251691981
0,252087464963233
0,256212142782693
0,20507375909087
0,212850259559135
0,212507047499647
0,210106544545373
0,203783794819702
0,227997287856836
0,217161562185111
0,224216686878296
0,222081501955084
0,22166599714268
0,224951472013133
0,242344475280039
0,238780534303306
0,255621379339369
0,247667820635506
0,242380906171924
0,237187382579963
0,249300392671637
0,257686139711941
0,287328312763065
0,264487941183021
0,276598455478112
0,274413315872636
0,257417174618159
0,244412644460607
0,263870992406282
0,271259091807039
0,27037305237588
0,258133547542063
0,264484659642974
0,277586593750607
0,299323020217805
0,287142817639708
0,278070878929891
0,282142872742169
0,286870727207591
0,293899109627031
0,305231915039588
0,305866053899915
0,317628175353734
0,30966358275375
0,320620665375278
0,304905649593465
0,301595269661116
0,314503424278599
0,341110968100648
0,33387379701698
0,322804252378658
0,343009238050731
0,336828939593932
0,318122541204766
0,334097567396205
0,334624045373037
0,339142770260784
0,329460499904155
0,334716383666487
0,338519251845816
0,344703785717963
0,344039080484809
0,369956844513075
0,370279154055631
0,35942649501304
0,351085454680884
0,375991592196309
0,385058131281317
0,376518831833484
0,379860411527792
0,393387134258229
0,380770264264474
0,395887837868397
0,403272812581583
0,387953671816339
0,385017746481114
0,40782764592063
0,39815070428259
0,407460733576586
0,409689100525225
0,404524725022243
0,399843331111702
0,412896736585176
0,418345125669505
0,418666254264261
0,421774266143162
0,441247029280835
0,425083080126677
0,429479068060583
0,445726098204666
0,443941469820321
0,443727462285471
0,463596619908188
0,439567548001742
0,441763109266684
0,441954396426656
0,440609032924491
0,450653498860146
0,459382702131406
0,450988135916155
0,45475470870339
0,462316115382103
0,469747507671719
0,459062223465084
0,480785621164517
0,470100677028511
0,470903307486187
0,4530238769438
0,474766498934646
0,48227705748767
0,483601969390942
0,488906207926184
0,504531013197168
0,50051644679958
0,517112050037736
0,503309842890737
0,50843861528605
0,511689605001478
0,522936291603555
0,5286498664639
0,517239252800547
0,517667111606535
0,519385540984898
0,519712608275341
0,516608279189134
0,517252847991111
0,525452932649141
0,52251334903637
0,53897155851069
0,550524238919524
0,55945304955366
0,561267750582753
0,567718056937096
0,553848093807983
0,562656968026846
0,550625752466443
0,550634455967966
0,572797651782272
0,572676578966778
0,551712747245945
0,561577212344662
0,561270654788967
0,572961924871441
0,576344076445729
0,569961880750967
0,575810898082039
0,581173234886787
0,579910605583177
0,590004721114905
0,583722333833134
0,592195140495321
0,60798002524595
0,623296124823262
0,593661502502279
0,594772299680462
0,600568931885112
0,617139236716739
0,63780660649447
0,632194306108685
0,623961245292655
0,630849928247735
0,637479437195495
0,617666047341144
0,610145176028774
0,62361129204983
0,617737242911636
0,622992335733173
0,636121727891922
0,643842384833836
0,614574507308681
0,603943671543104
0,636508509143517
0,643187833172882
0,622595551727887
0,648006949941717
0,637234392746498
0,636151736722057
0,661116353237885
0,651092767004866
0,632383485941847
0,63984026004181
0,672286854677494
0,67643185621342
0,66270928029004
0,674798569860259
0,674401998937993
0,656794499819473
0,672328856974234
0,681455636821897
0,672570322933989
0,686475867171879
0,672225871718535
0,663852825556148
0,680096575919829
0,662294663740681
0,657473784551061
0,692519722633976
0,698326266173869
0,694124259930796
0,704452181504539
0,683668452971298
0,673276443181898
0,673201232708212
0,669595344092636
0,680767280439175
0,687973216122035
0,708344514536895
0,707770714620355
0,709881812517412
0,710250550422627
0,696010104550767
0,691426985781432
0,682459912166369
0,678292853725227
0,715426356764051
0,728937179800351
0,716597682373642
0,723942884788462
0,731348584490799
0,719334206409129
0,709906737639721
0,702010176453591
0,703444207641425
0,730568688908634
0,720312573874576
0,71607260294289
0,714176888046967
0,739049911561082
0,714848537257231
0,698746795526173
0,709259625051473
0,718450166863856
0,700776594995104
0,709130517801884
0,741568638491773
0,737173092445757
0,726943040090997
0,714994980588627
0,690930566260372
0,69381996634136
0,692879663876466
0,719218612612394
0,726560840782369
0,726945096533083
0,725424482786087
0,721888461545277
0,74026422289247
0,720136355923009
0,723021899152573
0,742456684836996
0,724100624411882
0,727033459217433
0,726887192933373
0,717889365793307
0,739382081015141
0,749570411516283
0,731741190248822
0,729758554919774
0,723643731936489
0,725669545043989
0,713469664695388
0,747608307959342
0,736368359584048
0,738370102823597
0,724633957029294
0,731736068650406
0,741305398035373
0,706825179567143
0,723860608708543
0,751999827442878
0,720043618304635
0,724628731578744
0,745349536787473
0,732461859898756
0,705252336519307
0,722561560109974
0,720795454409793
0,726482049361586
0,718505714866098
0,729576353155968
0,728128636199788
0,714000003776859
0,709276861719699
0,722438481820829
0,732177327999908
0,732426170079509
0,718577354223265
0,723543080908337
0,711504271598663
0,72293549496296
0,733056745175031
0,713777194709947
0,687455534855521
0,6991214774297
0,707068147158895
0,700150306006189
0,708948154813035
0,711920905125481
0,716096047462775
0,727450927704556
0,725417023522011
0,724308525701695
0,703386911511686
0,701115883719892
0,712130332911885
0,723715013878749
0,703117334604133
0,683824685265331
0,704881864329204
0,716778478900551
0,692686171050128
0,702424073989762
0,715751723134892
0,709413281533311
0,701421461505551
0,709084439860761
0,706096901841598
0,697571860664516
0,667143365905616
0,694058437849847
0,708929642328326
0,706648550031409
0,706151693979245
0,707365459519477
0,69697289610411
0,692627440504584
0,691874765644967
0,684222022431301
0,692699734772216
0,688053056489359
0,677763018455105
0,683470917941338
0,678056884842342
0,680938472600215
0,665000895492387
0,671269452580345
0,673112655249786
0,681575273103216
0,683761386302313
0,684091545653371
0,663091550003106
0,662678983417367
0,655168283282935
0,666682833993474
0,664287437657114
0,664034464112357
0,669294772364525
0,664452302126295
0,652915635054454
0,678994085398552
0,652724370136376
0,646767470959742
0,646514959687788
0,654101058711931
0,639720154116758
0,638017697793019
0,649749420059692
0,661182466528411
0,622478739540939
0,640654458588633
0,629558941146733
0,635334219391607
0,62525786769216
0,627509951527622
0,632887923157827
0,629322753271326
0,626807492013533
0,625861845200349
0,626376876335608
0,627749192188881
0,613244615282826
0,635455602061775
0,627566186118672
0,608125836756399
0,604581690554972
0,620586669157901
0,625144549201634
0,620412856215365
0,605126905134857
0,605312311107086
0,600288596161616
0,611217297357827
0,601977984031605
0,600010386776949
0,598589551804815
0,601735359370346
0,585249882005821
0,588058132461656
0,577124687696211
0,584326429640198
0,585902491047758
0,579154405817713
0,569925301697224
0,580721024221093
0,575969823359197
0,570088159186758
0,569238660739176
0,573937552166937
0,550092583856167
0,564391872164214
0,564648791969203
0,572816615820116
0,557896838267386
0,551214928963455
0,554111324442216
0,549533724457135
0,52896690634094
0,539004555164714
0,546056089832803
0,548509923800864
0,540607984529865
0,53699397694208
0,534263876892155
0,532238027592399
0,534034867841897
0,537976942760433
0,522409915885911
0,526239553563487
0,522630130433971
0,52734127282331
0,524393201220045
0,514578887210588
0,510118322513649
0,520852133180182
0,510768479669604
0,506810003687977
0,507477406576164
0,509649402124012
0,492921036818708
0,495039812890819
0,504849386195591
0,492734914026105
0,479822607861695
0,483655601584467
0,489704008256516
0,48147743973601
0,465094555155565
0,479173385588584
0,477115438732773
0,480992257774307
0,473704269831411
0,467632295592276
0,461086604666603
0,468486954793294
0,463221425974663
0,462987096522193
0,450054562986796
0,465863283412434
0,453527067069628
0,44977689864925
0,449411220229056
0,450299510066712
0,435715973792744
0,446027441016646
0,434567642792164
0,434745180533026
0,433655891950833
0,426152830368473
0,43114057861932
0,430978398365162
0,428788846863493
0,42203450161002
0,414857031402541
0,426644812659066
0,420195748757667
0,416617789083078
0,405321807241824
0,411426651175906
0,409942573988776
0,40267834328815
0,398953874753055
0,408266326709523
0,398109786990078
0,398843130148951
0,394675925754339
0,397007191748015
0,385679799468546
0,396897206154349
0,385990321439664
0,385411361072619
0,386114132870939
0,385487425917734
0,382079241548883
0,382808103824998
0,379121391090996
0,379855331454485
0,375295513082047
0,370252591371123
0,362203377241424
0,366443310271671
0,369298983088785
0,371924782088032
0,357210208097067
0,355907827573851
0,353628128911646
0,360014905733565
0,352157686006652
0,361908069223558
0,349294531231651
0,346626893697003
0,34677136827066
0,348388423777625
0,34617262181006
0,352274739040292
0,336951186174971
0,34551941157135
0,334544375602578
0,339620440819894
0,336202588153529
0,329935125289272
0,329393884826479
0,326446509244657
0,327479074493228
0,330408999284065
0,323113571810078
0,323984101661697
0,311996536748798
0,313980843987396
0,308318457637852
0,310268614851729
0,310685678186478
0,315454851955697
0,307699988995265
0,307504095841906
0,303789814793301
0,310022929856902
0,299460443824255
0,307260497757864
0,30059162495643
0,301935691616597
0,290663714556396
0,297436379201142
0,291045682217865
0,291588594620583
0,287512796263034
0,292088716214944
0,2814513727316
0,293427412625827
0,287119210246505
0,286925571043252
0,284122668078375
0,276972728972495
0,275793744736868
0,279416813631293
0,275204577582155
0,274982856790757
0,269819734805008
0,270279844709598
0,270638040310184
0,274211688077142
0,260986249214553
0,266775177711509
0,258311384893177
0,264551844490269
0,261060311258504
0,259510909512963
0,255734319337906
0,259655965935784
0,253468487862512
0,253628784826315
0,253808516493865
0,256856363342927
0,246111021836604
0,255554715293634
0,252643993034374
0,249003109713049
0,246898255079195
0,242779713442464
0,240415328039784
0,244156127063146
0,241289617164758
0,239855650447358
0,2365769187486
0,245137721284674
0,233093407535878
0,234380797590646
0,232610251850327
0,234179364613369
0,228828412194372
0,232559593383268
0,223699357854292
0,233135084896076
0,225174816376182
0,222102176652677
0,218136679652163
0,227603969771471
0,218842665035912
0,22227325934048
0,221484565553397
0,221752663643395
0,216390898687062
0,219785039162655
0,220597732070642
0,216948352622215
0,214710353024234
0,212478882936299
0,212780992887167
0,216108735078877
0,216488392559353
0,212857281312844
0,209649636275142
0,211636517347616
0,205668267553031
0,206549627166061
0,212694836609799
0,211670977947737
0,208143009533226
0,211308061421094
0,20762255010868
0,213831104617681
0,206390384194922
0,206352035007071
0,208880905544951
0,210124785075274
0,206237406365987
0,206459458750888
0,200590921267558
0,206808136620942
0,205989929831887
0,211904973606929
0,210379872051335
0,214700603670339
0,210399580530445
0,213011750823702
0,209227040023403
0,215581462941815
0,214734422081782
0,217549269626557
0,210686466235198
0,214603050202115
0,209865382419693
0,213456698384428
0,216196095988625
0,221171592381303
0,218446345086068
0,22400369400996
0,218990166958601
0,222144257559467
0,214019086307728
0,223041485387655
0,221101284808139
0,224710981901565
0,223365271195841
0,226325092377834
0,227466613970315
0,229253184006793
0,224339370009245
0,227510614126241
0,22562187263695
0,22870193221984
0,226393785546352
0,237636881321552
0,234033848884705
0,234766058727452
0,233356377011944
0,243447480728756
0,237880780167094
0,242022903016048
0,23757664282233
0,244215464710621
0,245982517124235
0,249142230314358
0,254165129999718
0,251515858138117
0,251199180787897
0,252785130969082
0,255847115784795
0,257664392749564
0,268030963525721
0,264463807053721
0,269843626947658
0,270566467049761
0,262217327954617
0,279539241546968
0,276284897083286
0,277721810289808
0,282231502420688
0,282106478364462
0,277540821678009
0,29039900135283
0,290608401386069
0,28742001225012
0,286891583092503
0,290068921188302
0,283723963626914
0,294424227186557
0,291393093934768
0,292547336456393
0,293725768684704
0,288173032668626
0,2834274666916
0,29299170432715
0,286394079600481
0,285550819914735
0,291208904347437
0,293733468507953
0,286571368639004
0,295294375851415
0,288642260560021
0,288590556287858
0,28527096816316
0,288817492139383
0,282806073899607
0,294207195819658
0,283362573813599
0,291858291385296
0,280880416861675
0,290150179584169
0,28930361204222
0,284736072694128
0,285046497130224
0,291175749377928
0,287634071228987
0,29120527053185
0,291585511412226
0,292691668628557
0,290220117661159
0,291388052373844
0,28828380991401
0,291594328371805
0,287224469192021
0,290142170377542
0,28332473094959
0,291892359644203
0,291069180890283
0,291222269648749
0,283499387575242
0,291161260750322
0,291307514428149
0,299718174696195
0,291355694649943
0,297399457364225
0,284877483211229
0,290171736036375
0,28522876375258
0,2917693787452
0,284452468456665
0,290295795527611
0,278428749356502
0,293139137351472
0,285369412363844
0,287822671381283
0,282107906068498
0,280926866302814
0,277089694502886
0,273767349302981
0,269936691925188
0,276986163049005
0,266159796779699
0,270904630617293
0,263442486313873
0,268094431092062
0,269200518192097
0,265261059413212
0,25627870774053
0,258370497831148
0,253157589039122
0,256518024268537
0,248975894421186
0,259771790065048
0,252431181023944
0,249859500679432
0,247942115739393
0,249160945745654
0,242711656445756
0,245827692873346
0,239054144617471
0,234274608581093
0,228196406293241
0,221980079823769
0,230789288935014
0,222806709281537
0,217910268145314
0,22938349637222
0,217889806767611
0,222637362648528
0,216407782509114
0,218369243942046
0,212827923269873
0,214455713885168
0,209948561809823
0,21368257302245
0,210930160142978
0,213933102039961
0,208501566223968
0,204568371517964
0,204707213832681
0,207387843659046
0,201341478789764
0,205303663573254
0,200897758870341
0,205167840973537
0,197170544752703
0,198254966222165
0,196779232212933
0,202124798205465
0,194143408786129
0,195155178294767
0,195760760944777
0,190330255295154
0,186741416889436
0,193521767829283
0,186646211065715
0,186680500899302
0,186205568745811
0,186199661638325
0,180365853405401
0,189989152285686
0,180462078714558
0,186183379842043
0,185469900695816
0,180386639075358
0,179109166405584
0,181528048267813
0,180314097626028
0,182768739293759
0,178519791330826
0,176189827285754
0,172735020017113
0,174409765259725
0,171140690427842
0,171312840102129
0,169260872322212
0,176674400540229
0,168246287842222
0,175446433027724
0,168831018945983
0,167881641963627
0,169510630534893
0,168833720367761
0,162164518935098
0,164460143057466
0,160604355371885
0,167986017568617
0,164231186879384
0,161802928235131
0,162218582449402
0,162421660427317
0,161706917311619
0,162496094657738
0,162608442875495
0,162006236851823
0,156642938660369
0,161991239610156
0,158244430396205
0,157250349119054
0,156698069996819
0,158099346404007
0,153513768181125
0,15969388195734
0,156360327165916
0,154023408085229
0,15020553666502
0,158242220359734
0,155013537697365
0,15380523911639
0,151471793212195
0,155629465877189
0,15315526991113
0,155578804189402
0,151865182913204
0,153005797656828
0,153342700399638
0,152624860792494
0,153311654461035
0,153288452815082
0,148277069999241
0,152032645405337
0,148996471180088
0,152387842047133
0,149060873920019
0,145610601567729
0,146310033154535
0,150609584503335
0,148286976373631
0,145260652109399
0,146996222472131
0,145977076940482
0,146031588383105
0,145826990223372
0,140131922621265
0,145593952176842
0,141146064882881
0,14204677725624
0,141405391557048
0,143592977594297
0,140348645431173
0,142023701043134
0,139211071319519
0,145307009593684
0,139386672789096
0,142776483747463
0,140481296242387
0,141408887014551
0,138657091256345
0,140579459951431
0,138064936046504
0,144037682219066
0,140912267114158
0,139260846736893
0,138200068284858
0,14125020869948
0,14078887668836
0,138460327272727
0,135101816530797
0,138003823612605
0,134057091647889
0,138535836207335
0,139218522591443
0,140081862194381
0,1362087170974
0,135545793245672
0,136578153651472
0,140325082101205
0,137753337942036
0,136253537972399
0,134201201825116
0,137267248465546
0,13904152861698
0,134690081263869
0,135024926346492
0,135538484148022
0,132531873451787
0,141275538054062
0,133751562127935
0,136779739998586
0,133362507380938
0,13290758871775
0,131335791329074
0,127140469025298
0,134182726746764
0,129397878374628
0,127516058562658
0,132724303266948
0,127875341261092
0,13006842170013
0,129525085020195
0,131147704848136
0,130598777958757
0,129698555768692
0,123412913182192
0,130180427737598
0,127682129130928
0,123495326291233
0,12697196233841
0,125055364379028
0,121671662710219
0,128792397549995
0,12247075445491
0,125126213482338
0,123768734380895
0,122678119137609
0,124630765152534
0,122822395085592
0,121554535959471
0,124189568098774
0,117568502560515
0,119407299450048
0,116743441944389
0,121785505781357
0,120791315885714
0,122968187531899
0,117645519384035
0,117380837303925
0,115229353977324
0,118560374958018
0,118005253365858
0,119597135049793
0,119373292956695
0,118684233000261
0,120371274108433
0,115893047263027
0,11793325858487
0,118768736398573
0,116166162104988
0,11526926533452
0,114945469004032
0,114581620163174
0,112706092108962
0,114951710466684
0,115458770920159
0,116249696786013
0,114804865992963
0,111509682141222
0,109811691055047
0,116310036210998
0,109959060526816
0,110847582005566
0,10991093205673
0,111064968496993
0,107454628793612
0,111954922262391
0,105822356063445
0,106248460609533
0,102352174008528
0,107191029345191
0,10563644715276
0,105231876418176
0,103643442055465
0,103801020025321
0,107469411978932
0,10209561407133
0,100985484332903
0,101193081157404
0,100606813960466
0,101726957465078
0,100696582137248
0,0979487725412074
0,101124154736176
0,100043360751756
0,0983020952379946
0,101420150371019
0,0991806027420217
0,0982521870029874
0,0975500351470886
0,0964938606266982
0,0971611448694539
0,0973654256034208
0,0948435769909781
0,0964051345369524
0,0958512097592639
0,097028411428962
0,0927404766383959
0,0945705846306805
0,0964398201423936
0,0968776471164246
0,0939979281584423
0,0967035070038001
0,09006428399192
0,0948218324078911
0,0925915979641927
0,0930861803193884
0,0947440921464566
0,0920554354859172
0,0926791571734815
0,0951242690266619
0,0923923457939281
0,0945859096022282
0,0924143509095636
0,0945885325202055
0,0945383017822144
0,0932318632593167
0,0901478085860115
0,0919225010014191
0,0902243761565775
0,0927370893235236
0,0892461153633396
0,0885469070179025
0,0890357228115874
0,0889661259734187
0,0878674393354864
0,0889378980882451
0,0867420341177728
0,0903905374307766
0,0887026758760728
0,0866265553168437
0,0870357851656049
0,0885453214983907
0,0853950125808275
0,0831139979152428
0,0839670924840046
0,0840011959533811
0,0851110489291932
0,0874711408641777
0,0839064478182513
0,0838641088108557
0,0821809282982632
0,0807376563612853
0,0869074779459564
0,0861294172777882
0,082489517162618
0,0822775688725391
0,0797309211173308
0,0802562964476692
0,0816373211296211
0,0796798788314338
0,0808106915369676
0,0834874459738036
0,0806050705866723
0,0814913592435059
0,0834441175402242
0,0848751733250388
0,0814188322954039
0,0839209919659794
0,081906839326791
0,0812848030400477
0,0813234930814453
0,0826688879355611
0,0796036292289362
0,0845548643055486
0,0779729113760222
0,0827265878518641
0,0817512928951096
0,0801081600827801
0,0788590378146223
0,0800312902942562
0,0813357278255041
0,0772981932502522
0,0782818737219581
0,0793872225130681
0,0792649770777689
0,0778614644899656
0,07925854004797
0,0789409285157043
0,0790852385034192
0,079091097648493
0,076788056267859
0,0786309591629594
0,0769295085485095
0,0804410386239914
0,0782563649939491
0,0804906112663722
0,0776453470688851
0,0767414509372403
0,0757328605651637
0,0764310198939924
0,0718220885001141
0,0785338430882778
0,0753411336340894
0,0808161490333477
0,0770759397972907
0,0724869002932567
0,0740705780097795
0,0738208380801376
0,0746121074410603
0,0710745206929043
0,0724428354533463
0,0738409500440508
0,0727604038846781
0,0729741074482325
0,0738084719495719
0,0735915172210654
0,0727089254754752
0,0728953579296431
0,0713995610296027
0,0704700657167936
0,0708115257798338
0,075620617850834
0,0728729617681829
0,0718000851011849
0,0726383884600916
0,0723703325912405
0,0724775845298485
0,0714666390073399
0,0721517976646768
0,0718362833154875
0,0705756326674929
0,0683653756666825
0,0726610733984771
0,0700214654962074
0,0691643689156006
0,0749491509183813
0,071266138184623
0,0690097229306602
0,0692868012614045
0,072774648644221
0,0691579691174897
0,0710938270407634
0,0710068058419742
0,0693380405811998
0,0694956093146248
0,0694743609051836
0,0688662193415028
0,0699784444053794
0,0680785711167362
0,0676756218068361
0,0699123257424721
0,0706150276152131
0,0660740397824191
0,069455427434322
0,0663019064135908
0,0667218330487674
0,0656342338437999
0,0656567401409292
0,0669028654441662
0,0656249126035007
0,0635943426097954
0,0675059723281588
0,0646990163370614
0,063186773372482
0,0625337442192326
0,0650449075663441
0,0662956258131926
0,0646542823109586
0,0606878242307246
0,0636220947437622
0,0630390359454061
0,0645767365131474
0,0622357976558765
0,0625870786778943
0,0630254704412914
0,0605012203592177
0,0614380122540424
0,0622704160455015
0,0617490660737422
0,0617592869018378
0,0606957192456529
0,0638837796875364
0,0617424158554228
0,0596590234649634
0,0620409395675312
0,0587458991860801
0,0618152373065074
0,0579140769252498
0,0585138713039354
0,0625217412788594
0,0574532338640728
0,0596813226694375
0,0600309335453287
0,060533902356277
0,0601485169367017
0,0564074690364713
0,0583366352720909
0,0576417809468183
0,0564277671249774
0,0628131928721899
0,0596354175345196
0,0590402834096094
0,0594124501615153
0,057866494646038
0,0584464133319149
0,0574118219554666
0,0570868701739173
0,0590268018592632
0,0577781752196036
0,0577400226411682
0,0591306756245785
0,0566771377604358
0,05551483285225
0,057886983744921
0,0564833215898791
0,0574094474521152
0,0567440083954513
0,0542147008775881
0,0547528924177259
0,0536969866686811
0,0548413478902793
0,0538080860373456
0,0547816672941533
0,0556204791055374
0,0519942752325501
0,0516006172380806
0,0554956283594659
0,0539910965412483
0,0529359207702201
0,0517210422835527
0,0524549100300866
0,0502146624849321
0,050280480947076
0,0517819171650446
0,0510167387608111
0,0517747741521839
0,0513080979033469
0,0516495703498642
0,0512608800168224
0,0528798342192988
0,049666837032326
0,0510568149236364
0,0505514618399924
0,0490556820586177
0,0508140933727244
0,0476721247286263
0,0497434890585418
0,0511838371095284
0,0496040508806163
0,0480128948167768
0,0481259546506812
0,0501683095140602
0,0524219544198585
0,0504034867005718
0,0523669045509413
0,049023080481578
0,0513025562663557
0,0533953843810183
0,0543289601587688
0,0525579827980319
0,0512809488147557
0,0504192701989447
0,052932965030914
0,0559265511074146
0,0557881151320992
0,0564311391325355
0,058374815825921
0,0545053928792298
0,0527817706402731
0,0493397007438746
0,0446077274838068
0,0419699698816719
0,049789096652304
0,0528491162980447
0,0523492233382804
0,0422199961939621
0,0429975881520444
0,052516526089149
0,0536194154034462
0,0454509174535646
0,0507463585713764
0,0431528025321615
0,0472041558124459
0,04815296102238
0,0437094500849277
0,0463275352300913
0,0437136371698815
0,0476558783694225
0,0520541438708058
0,0469520300802968
0,0553168413315179
0,0493783189962995
0,0492308650878963
0,0468905863724259
0,0524212309822309
0,0437655836226826
0,0512151943403851
0,0453727046940502
0,0517673197378665
0,041650051930493
0,0493887137372341
0,0426075482638861
0,05273026067923
0,0409248657879378
0,0500095248335057
0,0436272958116331
0,0477974974716697
0,034716160206234
0,0420502771436631
0,0343783130658576
0,0510002134412869
0,0445937416699028
0,060437462050199
0,0401125349703515
0,043845398936092
0,0390562741700251
0,0592953087730495
0,0490735281603059
0,0490366257949345
0,0420154268669917
0,0509783050940672
0,0553742415721634
0,0497114350301807
0,048838801697189
0,0473492937492467
0,0583687638542615
0,0406791869189212
0,0556024742864778
0,0454094707341307
0,0574096443025786
0,037197768444756
0,0603262952721741
0,0426308978783317
0,0509816899394918
0,0455141031332165
0,0503908018807208
0,0479837607974132
0,0458360404648578
0,0509330481916822
0,0467812427945518
0,0469193332150283
0,0443100397564728
0,0458639453745838
0,0448026842906673
0,0427887148183506
0,0468358058382092
0,0412377187721849
0,0448269888710316
0,0400488381992057
0,0442808044169066
0,0418636476512517
0,0418436385907065
0,0431490618974929
0,0426463956201323
0,0419134466883279
0,0424871263973046
0,0412517453215352
0,0439698092618722
0,0400263874958401
0,0413746946253208
0,0403563580461619
0,0426861556116904
0,0408345003935594
0,0412801021638966
0,0408049403684183
0,0406952147186305
0,0410814060001577
0,0433116361307971
0,041998865774595
0,0396960962934134
0,0413138099827564
0,0413902989946226
0,0414140334075011
0,0438744077590072
0,0426760035810709
0,0425144563215997
0,0407019069298916
0,0414769028784381
0,0393939466597742
0,0406582929864372
0,0409400252456354
0,0400597851984188
0,0417100903576023
0,043918882350591
0,0411957379890888
0,0402583100457189
0,0417863058886012
0,0402543475383395
0,0404321413593185
0,0403110575522178
0,0414225504248368
0,04278270851562
0,0419570083550071
0,0410624884046051
0,0417004440195366
0,0403533507440843
0,0390143063216437
0,0393366947213913
0,0416541108463467
0,0411053776230452
0,0393867942054044
0,040112670355529
0,0397961254491773
0,0390547282303157
0,0409069590398088
0,0393866511253385
0,0401255741521559
0,0408878626606998
0,0407129900463587
0,0431840543190132
0,0412128288134685
0,0398462343506788
0,0398322917187179
0,0393305956054959
0,0391879124664243
0,040620843354461
0,0399554280331604
0,040463768489224
0,0378690487252383
0,0409579464519771
0,0391638065934378
0,0366043585474523
0,0409817075939397
0,0394164277795423
0,03912150183203
0,0390121248892152
0,0395672278335987
0,0428643414998036
0,0421331425545139
0,0403486153438229
0,0411958849876585
0,0388778981830891
0,0389760358286705
0,0401544967339104
0,0392725976607423
0,0419858243876836
0,0390742819852024
0,039847741321091
0,0396076494522653
0,0386070203265188
0,0403631129063623
0,0398457207789785
0,0403776479500945
0,0401251989899955
0,041104956283369
0,0405926225812364
0,0372635979839983
0,0381092984738027
0,0413799135082408
0,0378966273742452
0,0401397523292768
0,0422499391575538
0,0390866395179872
0,0403093103610755
0,0416381767853759
0,0406449561784488
0,0407424400681684
0,0391484556084674
0,0410341473600374
0,0403471574514903
0,0405585686864969
0,042909614258256
0,0411346800537617
0,0394951016077023
0,0403433654721187
0,04067212302365
0,0403249905351291
0,0383248401463723
0,0411516027944051
0,0396797193274572
0,0389730826760359
0,0406414111930265
0,0397950335239513
0,0358750634054183
0,0395547033265331
0,0377426199122624
0,0391790242794113
0,0395970852173212
0,0385849386925799
0,0377242484620964
0,0387297402086588
0,0405700707429872
0,0390055601063217
0,0388681435491896
0,0406440625882737
0,0370674836615927
0,0397783716713103
0,040644851220498
0,0401658638940029
0,0403863418667201
0,0411151417480392
0,0403422903633639
0,0412726586946341
0,0376834358697742
0,039338489349413
0,0415801573256428
0,0386863533888812
0,0392203237482244
0,0405361445935147
0,0405444104918539
0,0398616894838867
0,041218754490507
0,0417139947863908
0,040065308912335
0,0420302705464071
0,0391403488547085
0,0401419178848752
0,042056751836688
0,0410983956249068
0,0390208785253028
0,0422866564159699
0,0419461467114016
0,0390833347317188
0,0396649165416207
0,041668776503182
0,0392487514274235
0,0409742318441577
0,0414180070838891
0,0397393082616889
0,0379960372025335
0,0438466254075229
0,0422634884767208
0,0395843244077848
0,0399089656206253
0,0389953573132098
0,037012604151784
0,0377017405274092
0,0384415426228492
0,0390668274937799
0,0398712471930153
0,0402413036761169
0,0378711637443395
0,0377317456793294
0,0374545984179823
0,0383639686492461
0,0367346940269926
0,0375479075342907
0,037273248017906
0,0387520445349665
0,0376091307236865
0,0391983892929386
0,039074865516798
0,0361172409989477
0,0375398394011669
0,0378072440814557
0,0361364286237322
0,0397049187339921
0,03927812335192
0,0377765031146534
0,0357977740486462
0,0375331327531577
0,0383074554851437
0,0375154390414881
0,0372374749589754
0,0386174135054186
0,036731975322836
0,0396153789034412
0,0372374154910802
0,0388869558397718
0,0389340155156283
0,0367894868168444
0,0357270043404847
0,0382160032290897
0,0384581049849061
0,0386592805186189
0,0367374468337027
0,0376781349327781
0,0376652672777343
0,0370035928710058
0,0364602492934392
0,0392768543507059
0,0390209388932722
0,0405362633889768
0,0371212639029091
0,0360757074406173
0,0349436787484762
0,037420521031131
0,0371647212515294
0,0363574608386503
0,0355933359867821
0,039329640265255
0,037949550672895
0,0395185651094378
0,0363309795181394
0,0360914494816296
0,0364506946521615
0,0375838429711252
0,0361372525570562
0,0382822640042012
0,0354583792092885
0,037065640627119
0,0334627818706042
0,0364450131270401
0,0371774129859663
0,0359914553057272
0,0359939098872661
0,0385276177238455
0,0379112318413935
0,0402360483513779
0,0353893723112551
0,0378698092959769
0,0354011943099625
0,0354699143193083
0,0369363464086441
0,0367722330517922
0,0345164955592419
0,0355637729531979
0,0343726879773339
0,0376591164525535
0,0370257359471892
0,0357185442537285
0,0355200566382755
0,0347512186807453
0,0346841034394891
0,0359009624576072
0,032198751879774
0,036838625314792
0,0363564908350431
0,0367852448366631
0,0354046385001121
0,0359495852083093
0,0353805602653928
0,0387771619600734
0,0390785402219583
0,0397903119607204
0,0344241844850057
0,036833018045539
0,0348270645243115
0,0377226984376498
0,0363614470275902
0,0351402898602344
0,035150936807109
0,0353960346960362
0,0347342528937758
0,0373035168965164
0,0315348959981265
0,0330422266961158
0,0346201472475192
0,0366334369523172
0,0369726763853001
0,0365207398123002
0,0314608376598999
0,0341090496291275
0,0349551522852642
0,0352959153944134
0,0326872686829323
0,0357687813071703
0,0359460065994263
0,0383123718847231
0,0393300583907667
0,0377371847713997
0,0314982251059634
0,0360124585337961
0,0348574423054478
0,0358860496579136
0,0315508797830106
0,033753598432818
0,0332950405674757
0,0325326019045999
0,0315501287459368
0,0330901678791898
0,0298964446808979
0,0343590820761433
0,0343768688413363
0,0322153599075445
0,0308570579957511
0,0326925885109874
0,0309089957933657
0,0338874251377908
0,0316494742398392
0,0332408344452542
0,032146727113536
0,0328532285108677
0,0314187587070808
0,0314765749145615
0,0413658661184427
0,0469339291572707
0,0349171594915741
0,0308401499680322
0,0365333718859572
0,0367851700327082
0,0340051196738577
0,0333103923372743
0,0341691195371415
0,0306461758053682
0,0332698048850315
0,0350272973481469
0,0338793442511579
0,0337245395272964
0,0319571658215023
0,0307408087466317
0,0328473231548192
0,0338539451521292
0,032047298131147
0,0336382561606448
0,0315421343431454
0,0323386793739547
0,0310408504103925
0,0306848354083119
0,0339423866625621
0,0320447316717589
0,033868456263846
0,0391805003558943
0,0385317257710852
0,035037209372035
0,0309735960352763
0,0311515676703907
0,030867077736099
0,0341549513852788
0,0322711154120109
0,0311762554833626
0,0314862465258842
0,0327235075023464
0,0302475320584539
0,0320882758051738
0,0324903647248752
0,0331242343750966
0,0288957757167681
0,0308781313193662
0,0303033400711675
0,0291550506712879
0,0291910439761825
0,034302381940772
0,0266291767470299
0,0313954229836222
0,0350866825849741
0,035286022321487
0,0262760787393795
0,0427873944323581
0,0462676362277958
0,0409234682802729
0,0286357646666446
0,0343639981730472
0,0302676445189114
0,0323077841209701
0,028927166130883
0,0320309451098524
0,0279742269120086
0,0316232956652337
0,0293522844024349
0,0330591782703542
0,0305872300261296
0,0314686697908401
0,0306882853454061
0,0312774553392693
0,0273442862004771
0,0323137156666942
0,0275225918571421
0,0307699466800481
0,0343187018675961
0,0510515815816942
0,0393626521228039
0,0347606377758051
0,027351237791196
0,0392082654199022
0,0477291467342982
0,0450871115350787
0,0315671757631254
0,0316622470132787
0,0321368495379957
0,0284304388322402
0,0314503141064973
0,0274551031416402
0,0378835681660261
0,0367643820459602
0,0344031298647104
0,0346965145385565
0,0317583642083756
0,0285248584805795
0,0288151759170932
0,0295778273745597
0,02852320173617
0,0306589695463948
0,0302658578132565
0,0305496266410345
0,0273979064697409
0,0306703600413924
0,0294834890106801
0,0291359133410204
0,0369433710640857
0,036052176553891
0,0331554722873723
0,031175014624891
0,0300107267776893
0,0264735938361145
0,0435713524880804
0,0424299063111384
0,037018326091926
0,0265227026629355
0,0317902957383882
0,0315260598600993
0,031737578653799
0,0297636207874342
0,0288447852189116
0,0287646271909523
0,0288091616523642
0,0305976256414002
0,0329354697162812
0,030666798661169
0,0288901701041696
0,0315058577535868
0,0276891611767313
0,0322768926699878
0,0287332075057342
0,0323149160442012
0,0291108362169726
0,0350222204831102
0,0502230357808795
0,0535447620868723
0,0506917277970762
0,0457392537048711
0,0401612443152745
0,0308783120122174
0,0327982840904327
0,0266357801497868
0,0326388306886705
0,029835542794825
0,0335275675455076
0,0285602787401104
0,0318737618061557
0,0277729273813733
0,0331377490631974
0,0275229008909171
0,0309227587619226
0,02473292540534
0,0342272063789515
0,0262031744203096
0,0321842396189921
0,0269121026502042
0,031883534203239
0,0369719008571024
0,0450351070826628
0,0315684248443202
0,0367999183807342
0,0658831499392777
0,0512630279277632
0,0476604011535433
0,0292575451019162
0,0373656233795085
0,0259341467753867
0,0286129542863798
0,0312325683724015
0,0384769490343947
0,0296776512282414
0,0324072298527811
0,0284317558425565
0,0363859505057356
0,0278275174686505
0,0266928936150352
0,0501969747917216
0,0663616284414496
0,049111653742898
0,0363635386865965
0,0223223241921189
0,0555043150632124
0,0495800696520521
0,0421169465790302
0,0327622349117976
0,0350585351793231
0,0305910202286033
0,0319154821606259
0,0307810544590004
0,0345899110006924
0,0356726313098735
0,0313130780648883
0,032271001150977
0,0284905738869039
0,0307929855913555
0,0330786327472646
0,0340196876885353
0,0498428223637004
0,0426511271103328
0,0357542420139175
0,0356026485558729
0,0385285629178843
0,0333196491723871
0,0318014075435166
0,0315521290691352
0,0290769308198
0,0507294509651368
0,0466607365061133
0,0437030122070986
0,0546586502301871
0,0446963610857454
0,0350321832084899
0,038708759117876
0,0499392373055837
0,0448985242012584
0,0250534398614956
0,0606053874632644
0,0516967059364082
0,079190545983835
0,0444642169592488
0,0483122599361333
0,0263910846278261
0,0426140295709204
0,0238285516148428
0,0440230822910458
0,0494040519612825
0,0407464539829136
0,033783615452857
0,0310507775138022
0,0517870413814176
0,0463166816899204
0,0474331782097087
0,0366584316516711
0,0335523647106351
0,0367872417708779
0,0612699815918527
0,0331893033419861
0,0500574849226801
0,0585143413782513
0,0818268267989275
0,0733836032841718
0,0392952506798386
0,0480122488752695
0,0651836389340323
0,0517321137795149
0,0411868996624328
0,0366796197574508
0,0425852434800436
0,0312753173003011
0,0563271820129017
0,0694929377605888
0,0496635066457997
0,0440547915725785
0,0417742299677784
0,0469757417579019
0,0655230163199315
0,0588422582304963
0,0394879193900725
0,0445517091030112
0,0389022255118465
0,0481965180348142
0,102993335348707
0,0566727019761343
0,0797325650300726
0,0644849747546871
0,0838194053634461
0,0574818137882066
0,0691459371302952
0,0440495717540152
0,0787627871898771
0,0680256949532549
0,0629101013651221
0,038558040948164
0,0883449197663926
0,0632887828441658
0,0703369197320729
0,0514275558931124
0,0590368476945712
0,0512884058091134
0,111753360459447
0,116673611251337
0,101949365176597
0,0624332218257859
0,0784958126406331
0,0852690094458684
0,0775812490986396
0,0616540242871016
0,0647772174631636
0,0621514709341612
0,0626774659040644
0,0676860477450884
0,0786657375698925
0,06886153399706
0,0788599754980956
0,0644803881728486
0,0848862605342924
0,0927994071729523
0,169387468817906
0,101527585299619
0,107738829680531
0,11162351785804
0,112169391420775
0,0936254599132532
0,0782592833364574
0,0785761123483185
0,0891211220884315
0,0854305526778603
0,0769630381456709
0,0822618799976996
0,114241848529071
0,0870542661702328
0,128475946827132
0,0912558890200279
0,1041087918757
0,0724994497527856
0,141133990343452
0,182592302269593
0,130478829190971
0,107239679801864
0,0956200075047026
0,147691902657025
0,148877266968109
0,116882985122349
0,0917082674657848
0,0939232317881648
0,0869332380167264
0,0997120095610373
0,102988854797991
0,108492991227972
0,120137018223299
0,0999864654095506
0,103858964091294
0,126456958420071
0,191049398592315
0,198037711014545
0,126943013533167
0,121219114499475
0,13569702321105
0,131123497408582
0,114957261443834
0,120102720841212
0,104094764654109
0,163329973553351
0,139050159362746
0,149634731363694
0,108505169973262
0,151850628736871
0,139740640338555
0,136498953774167
0,185152043923119
0,158076625832265
0,157404441489976
0,132978131139571
0,151600071198207
0,128803294212082
0,151578881509718
0,165418930122372
0,172294937445432
0,154435426892415
0,150790499098328
0,151653954604062
0,147273377031439
0,166092410513138
0,15274375886927
0,169685619532205
0,197980842359917
0,199369588349657
0,351116037403074
0,188343350779306
0,188170592896115
0,14658167457514
0,181389402138425
0,187223003259231
0,210710864181979
0,213383102522146
0,189912039899268
0,169641763936895
0,157167233121655
0,163061416774608
0,151560083257393
0,166688803795758
0,155505024865194
0,158822181024726
0,188587110584164
0,157034679509426
0,246373932114159
0,20713036215465
0,196504049917321
0,147460351782422
0,166575237385419
0,146293433638696
0,170893611415489
0,13867037373903
0,180384895127917
0,160221927287895
0,169084491697837
0,148970691996616
0,154216752447801
0,183838855639586
0,180995051988165
0,157826884409391
0,150364185825323
0,143695065375115
0,154076167011892
0,132474043299351
0,189688021017688
0,167907873331754
0,170669924669332
0,138056805240414
0,149045982755003
0,137731873084501
0,148761517746007
0,136611739872513
0,163439736146346
0,145150529447789
0,15058847334526
0,149502827060691
0,154646746452359
0,143862689712836
0,15281213294514
0,151570573837302
0,154457370934251
0,156364113069455
0,15462539575357
0,155049105823764
0,154099526011697
0,155700314191475
0,164689357593144
0,158658772804378
0,167520017494595
0,16314273494007
0,163600951807429
0,166532867039838
0,167371236283925
0,169485719908474
0,169881898773354
0,167985634400808
0,172762337409118
0,167604394236266
0,174728302304648
0,174119488865197
0,174482004642623
0,175399809809367
0,175546142459795
0,178354173338636
0,17782423178906
0,181763042386793
0,181062578426941
0,18627702597586
0,255585691949736
0,211558180617632
0,205062395223828
0,180724231993187
0,199149091854865
0,175334340522893
0,195866977365699
0,229176821319762
0,222745148114505
0,200806092442801
0,18901996971957
0,18391768999372
0,220143333118722
0,189680972732744
0,199761483448424
0,178534756127582
0,186335526691285
0,235606108324335
0,250398485652608
0,345962227050605
0,272858075327037
0,217734575481665
0,174882090567775
0,223686178766117
0,203350993863636
0,191741810958124
0,171067602329373
0,171575770179976
0,225575068619863
0,180775782277523
0,176515808765805
0,150935897387995
0,162741964511212
0,196889310208184
0,194134524933765
0,182120857031044
0,206196003847514
0,196071183654014
0,19561580692993
0,206065751672045
0,250522453947817
0,179805271519645
0,145666133706326
0,149459106543866
0,132109601797015
0,164435666540799
0,190096804046127
0,151977053595396
0,159593468569347
0,120835297674796
0,136536737354714
0,122777914862414
0,173788308450313
0,127668835117827
0,170969176772768
0,154412211912036
0,13821743352799
0,140112946838105
0,148366443628247
0,193572784392843
0,19662463384617
0,139791392662355
0,110974103326806
0,186401285418521
0,158655333639583
0,151303158685252
0,138768865944589
0,103858722371517
0,131923288926928
0,130666338074717
0,117454671628555
0,15395156253595
0,139697480352773
0,169640523581504
0,193717184564921
0,220281592425032
0,190178743362138
0,124117308696737
0,1131677030439
0,108565103510379
0,120427798682475
0,109712276706574
0,105549115308738
0,159462824877439
0,108728630371017
0,135776864274941
0,152467402454821
0,129437501824692
0,111474320205563
0,116690741075869
0,107547359791972
0,12544351353445
0,155219533514551
0,184214668861973
0,13785776026553
0,15339771255923
0,142322533221613
0,141295318356442
0,121985013345021
0,128876119904363
0,124301988000125
0,135925131626862
0,148912971800748
0,139230473094848
0,1401052737943
0,143417054808132
0,131217229281752
0,199609191584006
0,163132177403126
0,165985362657304
0,186747499767427
0,194330209560462
0,242957438687291
0,181308553284358
0,179311008302289
0,1665395329646
0,171756060235101
0,177676132944725
0,17054254847901
0,205907702193613
0,208921354323677
0,189524784396454
0,184715266717108
0,188234659232635
0,187640294160441
0,194749955164404
0,236534040400249
0,216611196557082
0,310339259099451
0,233849463829589
0,254290514422705
0,207886249146623
0,205492222057089
0,217598785491695
0,206382719008713
0,208106190722351
0,200884243567687
0,21577561886572
0,239283446560993
0,209435300823946
0,215858850603787
0,206531121326379
0,21287233482795
0,212079246343515
0,217280897635188
0,214867220580472
0,220039186105427
0,220747558426018
0,214802949108659
0,231990869481765
0,302970904751486
0,257268365753168
0,242167080749579
0,229689913723396
0,256153246254102
0,231062121500623
0,252140979255595
0,262365163617318
0,25573459039336
0,250715348896636
0,246871617731335
0,253979104136696
0,250464079422455
0,275738848305644
0,283413554451931
0,25984857644324
0,273382503466224
0,247997718673275
0,32895877192752
0,291544909135926
0,314475410803168
0,283904238829362
0,286782826098549
0,267923820658767
0,272684274971639
0,26415262742117
0,277263118982269
0,273719493684573
0,2765977794436
0,272065177966207
0,270542211029209
0,272994331499908
0,266588239444535
0,27450543798802
0,29991891876237
0,276654963685442
0,271732318612671
0,265502279030946
0,26856322744147
0,26536075818457
0,298780819851049
0,280407789692001
0,281549245984451
0,268623819944048
0,288762103817837
0,293834069148901
0,281271112504898
0,256886129441724
0,266316157554351
0,253491258959801
0,271806885351089
0,246328289801103
0,287506368318901
0,285443007656788
0,28173955863914
0,263419001045316
0,266944333016812
0,261701759227391
0,270457350337497
0,264912260481386
0,270296831293751
0,272578490646447
0,277924797678778
0,279621150433362
0,272866787800727
0,274180007371751
0,293907915418808
0,296100166998251
0,292785270478493
0,273536891732713
0,277604425447627
0,268542792586082
0,276262828976266
0,272471853775977
0,276741651016508
0,257931124322922
0,270055432566367
0,250573567152045
0,274103645807382
0,289193216984453
0,264445149635737
0,275540399779978
0,253040181593127
0,247156960534354
0,247773041092673
0,245454710376911
0,243142132386154
0,244905279709978
0,246109945008562
0,23693043227414
0,235677089169128
0,234886846576177
0,23395345446812
0,233768465308871
0,237631181476756
0,227715776508568
0,229364493048759
0,23162050232456
0,233400921546511
0,228862041700449
0,231310750458361
0,225424126238394
0,230892347768177
0,250944807169599
0,255467393817687
0,2609592611596
0,235906434281776
0,245003953416885
0,231500937779235
0,228986942470839
0,23059138322903
0,227998197131056
0,228362931023633
0,228710936649626
0,229821945065938
0,222898588718143
0,229867783637196
0,224659385990009
0,228976922312289
0,223753584526023
0,229775506623258
0,220295799858991
0,227078443981208
0,223973776892191
0,232310317928991
0,226242688101833
0,236666476576738
0,226452741887192
0,234844970737803
0,225887341822363
0,228376382950818
0,229881130560449
0,228649996509101
0,230555541221587
0,227694826461065
0,223086319760571
0,224222272084106
0,222617696478559
0,224883456030663
0,219627075189152
0,223137170687945
0,221807677661724
0,217969710793377
0,217771036661648
0,218463193195558
0,215940175234003
0,214945844742517
0,208696816928496
0,210790465620743
0,205197387650459
0,208683072806895
0,202422689496387
0,203905583892816
0,200323598360685
0,198796288087665
0,191858572025413
0,194774178511902
0,191851701955376
0,193943111539588
0,19440047800415
0,194961587419532
0,188368535267997
0,189400446678489
0,185437645192032
0,189755154804801
0,183251946281876
0,185006285172821
0,185359857811415
0,18544719901358
0,182828512194263
0,184381540807212
0,183202839568435
0,188174061241532
0,181447345100525
0,189962340351412
0,18542086139693
0,192213284855706
0,190973406221272
0,192179030793239
0,190022366509216
0,193647675144169
0,192392173732032
0,19690464365821
0,196146052824763
0,196452870144264
0,196710633141464
0,197701678925245
0,195608794497294
0,197458115494068
0,198797879310801
0,200361484709036
0,198115744862762
0,200983230875544
0,200058275364555
0,200316813556479
0,197784056157002
0,19768333360311
0,194949360876974
0,197307120234086
0,197133306660266
0,195654144509814
0,194018985846544
0,195364519769463
0,193752564196198
0,196902635316633
0,193198660226043
0,193667482984799
0,190800687799909
0,194413341877731
0,188332001065377
0,189384596185024
0,188815686850998
0,187123762455937
0,187510472771493
0,186940809440766
0,186670638447688
0,185850084320096
0,182811125324417
0,185786163793829
0,182780775145641
0,184218009370974
0,181619406786181
0,182396509291618
0,179090261288045
0,181116998673468
0,177745887733144
0,18072759199016
0,178968522246021
0,179769575457094
0,177827745477162
0,174878305999314
0,175426400830789
0,173151587228354
0,17266567921909
0,175197216072967
0,170473602686281
0,170851478567439
0,168567864465221
0,17065129255183
0,166624811284705
0,165805980819929
0,163269103068121
0,161786109415627
0,159884693139931
0,161511962441169
0,157971206735055
0,157637706133531
0,158394199836785
0,158060599475161
0,157533789005485
0,157543659604953
0,15615888807023
0,157125134818514
0,153778437795275
0,154818361881386
0,154934378862193
0,154535250343921
0,153898388747492
0,152059127411297
0,150413711724029
0,149224945873388
0,145261637031625
0,146774986291992
0,14338141277115
0,143039519091639
0,142983034739748
0,138905601478764
0,13952325897441
0,141696540940685
0,138780680183979
0,140530049212722
0,142005912703465
0,145564310527454
0,149589414625487
0,151757382899211
0,155452499244324
0,162446169342084
0,167248370913783
0,17570702687996
0,180722842159874
0,189697856515923
0,196718230853527
0,205435787862755
0,21371670605237
0,220622826794383
0,229671549497321
0,237600693459369
0,244197167712168
0,256167010656052
0,262831127161231
0,272933331205695
0,277237494269504
0,287055328101928
0,294342702070101
0,301111151825213
0,306616196008604
0,313379267070039
0,319741603810742
0,328559083912775
0,332309104650076
0,339363920377981
0,340275329812583
0,347378880178552
0,353260157270049
0,355696275557961
0,357727803171765
0,364557365880594
0,3620228410436
0,362797373060323
0,36538227161919
0,366779366252624
0,367430863822235
0,367588807087215
0,366353541568491
0,370330763449404
0,365266396346789
0,368559594549032
0,368722169360535
0,367508053901744
0,37201182158227
0,370695740723201
0,372058086865089
0,377690956681796
0,376584602958604
0,385259806812415
0,386114685867304
0,387744606263844
0,392223043954493
0,394267096705172
0,395372278052731
0,405658906648769
0,405653606926615
0,414012776850746
0,417504671894533
0,423383452000464
0,431048813381146
0,438180312214156
0,443062203867815
0,451383029025361
0,457957570800051
0,46490235486147
0,466411006438008
0,47164182979364
0,476948505004085
0,47435902634541
0,475754963424497
0,474909189239866
0,472530765842428
0,473419124627012
0,47306930796545
0,473471613986793
0,473292448463638
0,473070542087192
0,467333913336607
0,467805255386153
0,472918622167886
0,473301189706176
0,47661799315538
0,485486901505705
0,491413009991398
0,499790378344938
0,503531349914365
0,512413893111781
0,51749453781176
0,531569296945468
0,542403876543981
0,543342698782884
0,548875312383619
0,567613004555491
0,577551097648976
0,581913130492098
0,591337410449659
0,592988273590075
0,602230378504994
0,614447383520257
0,62231211684694
0,638405671015147
0,644797896499733
0,661291345418543
0,673881850158459
0,682620725815127
0,693975212741967
0,711904784832542
0,717454111962029
0,730519424306272
0,736462310251331
0,751898300649218
0,757858280513603
0,752866689462272
0,772137852053469
0,788662178927105
0,786148673519848
0,792951826839356
0,799742174726684
0,800968389801159
0,807051810892813
0,803472191293153
0,7982316947088
0,794379922354826
0,79417491290684
0,790572433457826
0,782175880136319
0,773241709843134
0,775650122073522
0,779590534732333
0,775646923127959
0,772010759269753
0,773354843112772
0,782869498627882
0,792437411275571
0,784776104486519
0,783967950697527
0,802184077047838
0,812031087135348
0,810493533102246
0,817858494517748
0,826683254648558
0,834924667089357
0,851768173973851
0,854098695126135
0,856229024676598
0,861774649753761
0,868343603362236
0,880483521228207
0,880944278098684
0,893497595121143
0,89675055531083
0,895066260878215
0,899796152652283
0,893855153785336
0,906461365455904
0,902724125148646
0,901009280460599
0,902715825855763
0,910327245277543
0,913713226602768
0,916635032894484
0,897721095399901
0,920703143462083
0,913559390480165
0,910397428456182
0,913321637388231
0,901226571775303
0,899261714345915
0,895649144423903
0,89285585579934
0,89202781952119
0,886137509797336
0,871548327131158
0,854209165804828
0,839381601333285
0,836243206357128
0,818198799685916
0,799702618445721
0,771421493441327
0,743807770927311
0,716747794971067
0,691814972851917
0,667145179248476
0,64264219945537
0,611992853557781
0,595193808577755
0,568615029094515
0,54802799595728
0,535210916235178
0,524031282826624
0,507400085672137
0,501022025615356
0,489037924670171
0,480511197179796
0,478764783771134
0,467193978897155
0,464872665961242
0,461319087949847
0,460755779058388
0,451157857461535
0,440996317379547
0,433039265969413
0,427725464252733
0,417922074952914
0,412453668776397
0,39858515208309
0,390356931710742
0,38039806701205
0,373304530384609
0,359628825013484
0,343891748946824
0,331084796797562
0,313457210646264
0,302986074945478
0,289846420004428
0,27586454198332
0,264177344356763
0,251696099898029
0,237168397962061
0,229670108702268
0,216675061236828
0,20423099688934
0,194194288294033
0,18280854367847
0,178947321041661
0,169389008432377
0,161038709822136
0,1556289097678
0,14941287526076
0,146735863967833
0,143581669777421
0,137921537764491
0,131910653009057
0,127192593971735
0,126329946778827
0,123963799033127
0,121772128614577
0,124437694121884
0,119027255309944
0,119779049811123
0,123979373444442
0,120412213785747
0,119134461847991
0,115970742893646
0,11804467582782
0,121126218160788
0,119798201619921
0,1221747768283
0,121536870532585
0,122477253602791
0,124668117669428
0,123306985042428
0,123920326527517
0,124021235554573
0,123340280755309
0,122845174381292
0,121869049142778
0,121124607924907
0,121750199325214
0,118875249337766
0,115359065642579
0,121767969864782
0,119042901979734
0,118872051298666
0,115779817330593
0,118418830511995
0,117721913268983
0,118392748399723
0,120598259119693
0,119529007179949
0,124546588967566
0,128390073976337
0,121444129505966
0,127984412760697
0,123840514659849
0,126072783680016
0,125132925713925
0,125144043721941
0,12864022675893
0,134099841253743
0,130322102452309
0,130069037156377
0,129239396844127
0,13686986145191
0,132238622442282
0,132722839487913
0,13605953310959
0,134385844449053
0,132715553356975
0,13674945139968
0,136090929964306
0,139564796123353
0,142077487690597
0,137597991823226
0,146211297871903
0,145161787105599
0,14627694545827
0,15325717845734
0,158204538698688
0,168745435095013
0,167838376549652
0,173713267904746
0,176411615592107
0,178982132928933
0,188424904011722
0,193635015358642
0,192061128530368
0,197862956539033
0,19533460540735
0,194895671102847
0,188630903242696
0,189603070933991
0,187326569872469
0,180929691550381
0,174464502489459
0,176807552896249
0,169335847313651
0,17381331812248
0,170546914266758
0,167232976956213
0,1729174793652
0,166125109438833
0,169293563541032
0,165589266629271
0,164658179930504
0,170998732082549
0,166714208101571
0,170767606394457
0,163751348014981
0,165637608370993
0,170624861919564
0,162383281122773
0,156339836709648
0,159348002245371
0,15094776187375
0,154888438305261
0,152781249005398
0,154074125305214
0,151966956951589
0,146837475522663
0,147194391171635
0,153823030504817
0,136013892114821
0,146549433443285
0,141738601666986
0,148761300377424
0,145641520177316
0,137040482107396
0,139110317793145
0,139715128450883
0,13131746330043
0,132816204662695
0,128510640373296
0,135397104107601
0,132779910614173
0,121286946328223
0,127137497327347
0,128883580285661
0,120366250067799
0,125490133563161
0,125140352890421
0,124943123417359
0,116414091213604
0,120182227108289
0,1294148620354
0,109961476015085
0,118373985139357
0,123365524169296
0,110604053937513
0,122284490439456
0,113468717158894
0,112323361680627
0,119328698229145
0,117231958429864
0,113932106050341
0,115873510189031
0,119540266297448
0,124425564310182
0,104494066819746
0,110113407100415
0,113033934706711
0,111365907249547
0,119254624389949
0,115365186341493
0,110036253350235
0,124820909524865
0,112230472356673
0,121903395677033
0,114401972854876
0,120539092354827
0,126749233767081
0,125598969787165
0,125788573725825
0,116230928483807
0,118740303937197
0,129045759737232
0,120832180117728
0,135094514702914
0,130495173542588
0,140008372458842
0,14133738436404
0,142853402909235
0,126667129542067
0,141691375444111
0,146426130268099
0,151911834175052
0,148035506568739
0,149477567520227
0,153627616710232
0,15785145600838
0,175978960537362
0,173537040781326
0,16871073252583
0,185281388167576
0,181818794354896
0,194509725938022
0,195785431477754
0,210047100839956
0,214990041537028
0,215723646520186
0,214625388038451
0,234914588280959
0,219532605490655
0,232699307576004
0,230006484030319
0,243151494743064
0,234105728652501
0,224905306134623
0,225049577300994
0,238213769054948
0,225201518770264
0,230937290452766
0,216992030984972
0,226881940152983
0,226026888519583
0,216887829734828
0,225148390305656
0,227912553685934
0,207189655680589
0,22268893518191
0,209909368577749
0,20574997529354
0,210120539278333
0,202720041125665
0,200186867789282
0,196468083152028
0,209320633282445
0,214892498480233
0,191965578681632
0,197626261856151
0,186550848830342
0,207874567313577
0,202008884016777
0,172161965304341
0,165119987506383
0,182903587446135
0,186719286839427
0,205336282791009
0,191270523724277
0,197978152399133
0,199508003616096
0,187226772000317
0,199972440999798
0,200354970710227
0,181177290877934
0,182595223633359
0,183605787689457
0,194814909623297
0,173299639076422
0,1920755072003
0,188300967481216
0,169461627755331
0,19323524285029
0,203885867505698
0,198044936202766
0,2011323771436
0,177092973497443
0,213401993644958
0,206666568414358
0,17781792825297
0,210476700514652
0,19560028415395
0,185687001082969
0,230454505324661
0,197677765664634
0,20517682183596
0,224255663133833
0,203312152502423
0,217012037675628
0,208770563965133
0,196962220101376
0,223972657033
0,210128552708721
0,233871874577609
0,212631785355994
0,236506037618328
0,231693028471418
0,214310463309458
0,237200178277873
0,246791967740379
0,239881557834043
0,260770377449433
0,253362838618307
0,268081180852967
0,230880958310153
0,256847535960836
0,277386785514065
0,271624540318665
0,301382423007047
0,289602993290214
0,282974199446783
0,263022655903832
0,266974783655696
0,299194973883909
0,306628268904958
0,261751222616202
0,250167619482199
0,23839531092398
0,251535759383869
0,28377158154372
0,212762885450433
0,264130946318147
0,256235403652791
0,226177146121557
0,296937475621468
0,286989736442812
0,253539159197825
0,275872749371575
0,220578024914933
0,284209567696547
0,306541879014759
0,316062511811332
0,233884372646791
0,190795103995177
0,239921832000387
0,305061629379622
0,187924711410272
0,361603321957376
0,260748840410972
0,22400316850342
0,260181453279075
0,275365639306379
0,33563127951229
0,257696259127799
0,265211925413015
0,326001701982643
0,129474150557958
0,262361467332251
0,325721880985029
0,287617890159967
0,328534191034258
0,236487167556854
0,267115389074523
0,318666730915175
0,121208576280314
0,466445664865275
0,205699754139501
0,286243479727994
0,392934693540367
0,284495581560744
0,494395305170099
0,283574339305314
0,242472267623666
0,328199568493019
0,091679141901382
0,4135088170996
0,420597544825808
0,198196831363893
0,401994639388091
