3596
4000,36533379555
650,420452594757
1
2
2
0,0774256334432322
0,0860960012591252
0,0819127546455975
0,0843214936415643
0,0755787562624855
0,089529346755281
0,0730028380581791
0,0848904227563601
0,0828356655790867
0,0932011837457474
0,0798967263972418
0,0856343404073311
0,078045453760333
0,0857158923371739
0,0740079380003628
0,084995947487558
0,0730657787538795
0,076745272970436
0,0788154652944198
0,0943912402422053
0,0798758378910642
0,0806398596786565
0,0778660294264857
0,0915554062446945
0,0724158196454862
0,0827980905241533
0,0781964707015392
0,0889491666683134
0,0771168176007802
0,0883903624841912
0,0782277567673858
0,0864511573625627
0,0834784523418674
0,0833981293447972
0,0812020840307092
0,0858177754644184
0,0810089490687784
0,0841722290844792
0,0716115552553462
0,0917147415627904
0,0861589064638155
0,0848164343806128
0,0844471757415141
0,0777775617032313
0,080141185719961
0,0883592484307552
0,0858418447302002
0,0821110890850696
0,072760997709519
0,0889384549636685
0,0768956435344627
0,0829845736989658
0,0913517827802495
0,093537016635573
0,0871934565395219
0,107182699633938
0,0823217801664286
0,0889932764685117
0,080531853068012
0,0959035544206457
0,108160923185355
0,0992204357170013
0,0805760380842481
0,0863556189092274
0,0755146656220307
0,0861439438707921
0,0790863742777305
0,0793371155606158
0,0758577482340014
0,0934401033087406
0,0672465211578935
0,115176620174397
0,0918845650207222
0,0956321085214711
0,0904991752267229
0,0939649286311632
0,0714582463982974
0,0772475229266247
0,0761441248223422
0,117207673744439
0,0955029535216143
0,0928821719066358
0,0809742149526924
0,0762474052458021
0,0955187744810385
0,0953166623949474
0,0610378831767006
0,105858957559323
0,0967207695612032
0,0845339913776194
0,0707122687030869
0,0866692027721416
0,0632597572784901
0,0869708245767349
0,0697533454848246
0,0867731010686166
0,0661804983559898
0,0931850093372604
0,0612610103207345
0,112979406441429
0,0815380255099641
0,120522564506714
0,110457284064667
0,0872728149841089
0,157704189878515
0,0871123151100368
0,104063386560583
0,132471547813044
0,0906849786920023
0,093437708101404
0,0742726925845012
0,084223941250321
0,0820906965055104
0,0939645556209929
0,0673767146880389
0,140333296012771
0,101783973076427
0,0954140299820264
0,0680230205971738
0,0890808934024516
0,0473849408225649
0,139367645480499
0,105663539683857
0,0996718158641099
0,0938878179045408
0,0800032081376901
0,0744215950198783
0,165093096321899
0,0868175538213548
0,0885297811437238
0,0686872018217689
0,0909336168161005
0,064620530696909
0,105843819372211
0,119392988341197
0,0929071560338157
0,0741170394581426
0,0845634812940868
0,135600643880175
0,141399004872473
0,0892864945234152
0,0832196957606681
0,058562219474182
0,103179814240655
0,126331699050793
0,110728952984485
0,0786646190378418
0,112050814008882
0,0830118149084886
0,0939617111671497
0,0708564590302189
0,0891142389381658
0,101401918967272
0,0986339603051791
0,0361448093334995
0,194529486226885
0,115646442320462
0,15792248099309
0,132025403981405
0,0860154073222491
0,0956358744220519
0,0763507872006059
0,076947315456206
0,0639249069306823
0,0817085081668419
0,0699851094861306
0,0973670443067917
0,103112462246098
0,0762149435020537
0,0978482865244678
0,122156887244698
0,104214032364799
0,0861286989986619
0,175877802279713
0,0798749545395267
0,0919666799236094
0,101385959680003
0,102253574488816
0,0690853226980908
0,102973867813055
0,095841717026972
0,0805078364799354
0,068629883830587
0,0723802106918899
0,0851527622384737
0,1036476992241
0,0811529762497782
0,0871143107458018
0,0821264231522253
0,0731646401108953
0,101311204311107
0,16432572549499
0,102368445619894
0,096643998781722
0,0842907452722838
0,0553244968218598
0,13439308602959
0,110974555091304
0,083115039596814
0,0741271452077086
0,0685238132647847
0,0754353294641184
0,0673028530686362
0,0832891872050823
0,0635982633786439
0,0803551284693042
0,132237951580542
0,0879349027026572
0,0809216470915317
0,0753298442143351
0,0928955704366004
0,0805824027744443
0,154852793572703
0,110077391006958
0,0830618090926001
0,0788331134051261
0,0789739632586539
0,109051139986006
0,0849065596741317
0,0775666538229775
0,0693999574189675
0,0766486410496131
0,0795695604843872
0,0793190018495239
0,0675418077361473
0,0767307761580929
0,0721041527520085
0,082090487113836
0,0721625174223702
0,0805023184062942
0,0843392668324667
0,084783883935425
0,072425687587875
0,0870400799848088
0,0609695716175892
0,11040382058537
0,0958914028922151
0,0821996697322902
0,0733883607999526
0,0783003381380384
0,077754528721369
0,077803663919588
0,0685039135391433
0,0803807592776724
0,0741752550724429
0,0789596998841282
0,116065059121613
0,0702690298009961
0,0958472218780454
0,0567250440506902
0,126972180663956
0,0854365135211512
0,0857074989766624
0,0702640708984716
0,0839455948112215
0,0584777441229386
0,0893314625974996
0,12023456489028
0,0890776154728193
0,0758271240693997
0,116208499637015
0,0818321235611685
0,0825435610374667
0,0819470046020742
0,0813751372087225
0,189060326879541
0,0906929273111721
0,1078149225429
0,167646402203358
0,0954600217109785
0,114906896804614
0,0784871254793031
0,0877182240987202
0,248090754664394
0,130922307315928
0,0833913652726698
0,0916589797827748
0,116828626054694
0,079245644686904
0,110388001998549
0,0789682612639312
0,120697771413216
0,114063789243948
0,161964066029246
0,163521211483159
0,0683237206624697
0,14262189668826
0,107677555005597
0,100576631505954
0,079525345961227
0,0785457455670516
0,0730853353492186
0,121126900732231
0,0999341930636685
0,118647096714575
0,0800935620176786
0,0966703750697129
0,130035556893162
0,0832029502936227
0,0804674814595868
0,104224000659394
0,100657590035053
0,0801276307954879
0,0870577445485198
0,0755208038562843
0,109035297455105
0,0738684405004025
0,103913362240348
0,154096484042292
0,09716420156126
0,100230899847063
0,133694712179859
0,0837639968448039
0,0836289271311259
0,0853693649728973
0,0823579226668154
0,0778678085255428
0,0847389366847407
0,0700588891530529
0,13480206243691
0,0843094242607841
0,085415083610207
0,0736610776649534
0,0860857281166712
0,068450506200984
0,0876584958318966
0,0733081415588342
0,0853517945940518
0,0822966075475691
0,0725196173069351
0,123328571321425
0,134438526961185
0,0726449621860166
0,179691195508914
0,114028660794481
0,0999173194597485
0,0803001582953305
0,0906083166113578
0,0881372835156136
0,0906857057976596
0,0853510947703365
0,0850038055063497
0,0959466915778867
0,110871646338611
0,0965452326522661
0,095722802350254
0,107237754851999
0,184710928429431
0,182707158627704
0,1222041170305
0,10244959992917
0,0713034049363939
0,166718981491437
0,126853208245931
0,147591895863348
0,125911855603632
0,0880773683959529
0,111363230614324
0,089915573593504
0,10600987257722
0,0885596344880815
0,113870583996382
0,0925928040311679
0,108067310727143
0,0999727730887133
0,114035564810022
0,10048358938023
0,141130587212595
0,150188428731735
0,119648285354108
0,106405642694082
0,124382137621095
0,101196888448308
0,171460128498034
0,136045886734321
0,216494999275294
0,148653408727063
0,18517065351112
0,170425760542971
0,129377148867664
0,127634097514845
0,116046430380817
0,124778175267387
0,137008338462417
0,12311109456687
0,128649667293941
0,121127027302424
0,143175190691848
0,128236092943715
0,131977738717781
0,129787558392378
0,132875965760085
0,154043292526213
0,137755930920646
0,154684182965329
0,143487434940909
0,177446845330881
0,210141485007575
0,208986818984002
0,152548338628515
0,165385552565377
0,147350857285608
0,152017707117788
0,157703676418392
0,155055293740262
0,164364202979367
0,156508160371247
0,209390319096572
0,178396971149383
0,216465472036663
0,177381169387775
0,160916674151908
0,194934571875769
0,179708301300258
0,203225764676342
0,213662316903265
0,180911758960021
0,168063895900256
0,215919004103804
0,20069967323129
0,187316746406903
0,216845256525061
0,176879075375176
0,189977523896973
0,176519422534017
0,200442891435302
0,187295988815556
0,218737045610037
0,200897948135387
0,202067472768352
0,197839551432492
0,213568627870643
0,202367641125899
0,237610288629693
0,201789182527027
0,214000182466412
0,209825722199975
0,212362498487834
0,21288593520901
0,204971525597615
0,258807549208352
0,243954814720467
0,265676576488278
0,26587999177176
0,215780386780689
0,227081413954517
0,221039805754308
0,233201940628651
0,213788298324052
0,261679578261397
0,2367109431697
0,228394816507972
0,240141650398636
0,253460758122572
0,243366957714138
0,249178222611076
0,239055001216191
0,255380813141026
0,240828861980262
0,274663614475818
0,268686396694977
0,245592838266213
0,314745547811943
0,310228957978388
0,316999400550629
0,33558019154556
0,269664993180009
0,298545246556867
0,276258761854357
0,288807160908465
0,267382742262626
0,299339553513293
0,281464687470204
0,303618961100359
0,301768462418965
0,311755827533699
0,292363570195252
0,317634145446392
0,321444594639517
0,337512150654914
0,327386181448677
0,313682812798489
0,308896152091661
0,330545768613082
0,31527039493642
0,370803919977137
0,325627829134552
0,373014239147362
0,341909342821151
0,344742987643804
0,332593469633549
0,365773863775717
0,331180510558877
0,359435114494497
0,335038479936519
0,352270561261972
0,358254564999735
0,390484541145982
0,360631013916133
0,372571291442721
0,358385891005299
0,377205747169317
0,375449314879442
0,387161961583817
0,38220046451118
0,416901134280967
0,385246506970363
0,410707143644225
0,373848843641615
0,393727555128683
0,404438193434278
0,432885417750003
0,407258014822872
0,437737091336593
0,403313973678934
0,426899724550501
0,40783953810954
0,41760813660994
0,414659697465304
0,4269525224776
0,427846910482778
0,431800589361602
0,45947118927929
0,455634107670833
0,424410556562239
0,458544288682485
0,451852602528526
0,464874547092401
0,454674623044952
0,454288005518661
0,474815808876282
0,488117962371924
0,469843920638561
0,473913445419401
0,47574080732464
0,494675633530411
0,508717128026125
0,512526822256141
0,47240271327209
0,50506342618116
0,497756570676244
0,520951938095717
0,50289808843474
0,506678368335008
0,506377917211616
0,534794325271699
0,509001680936626
0,539741866772095
0,527263789541456
0,53475360832478
0,525900621026225
0,55149773649916
0,523750712998296
0,560940477351353
0,538793637522949
0,573452483504973
0,533488898187683
0,563205332203207
0,550477636973304
0,555264615769845
0,550230104738949
0,568046469509716
0,560616158571141
0,598950569952087
0,560575081252765
0,583898773044865
0,567323849281571
0,576138221559599
0,547277074399246
0,592229848264479
0,567108364997445
0,599079426841467
0,619063789897512
0,588059274711076
0,576807387180642
0,610639191138937
0,597764677427996
0,627281375200836
0,616154143965201
0,639739317399712
0,626744837988438
0,643135216431183
0,661311857624073
0,649005417327111
0,651097635561373
0,636071006559254
0,615617223084947
0,654150245372365
0,645682556185029
0,686152940300297
0,63797261822266
0,689649114533465
0,666532584987408
0,682914195902705
0,647802874867584
0,692647937703332
0,639070453465733
0,682287235235823
0,678109274631584
0,717044565046229
0,67530030921617
0,711171857371047
0,642720229029604
0,682406453757549
0,66920422106819
0,662066137906312
0,698493219778587
0,736789504863032
0,690870238250459
0,709503354826117
0,68691395208058
0,728257107470036
0,701258485889335
0,752408760502075
0,695720010506633
0,757540613982184
0,73475094109271
0,738826861196381
0,734471496734068
0,73379008094454
0,737894041437053
0,781186690081823
0,781756989304442
0,740252172328267
0,716811247564476
0,744769475989229
0,721721512566789
0,752903067040718
0,723251181322602
0,771393046544808
0,780952469569645
0,808644447888452
0,732044760402495
0,740450521971787
0,750049884430703
0,789362453781276
0,766153356372091
0,791674223838333
0,748230822156258
0,783564199653828
0,759116505126826
0,786188799297595
0,788897021730126
0,813964614033894
0,78528832083518
0,791343101043576
0,800081432093506
0,789495174201462
0,78105814129446
0,840118578310376
0,796814939478272
0,840830140043633
0,814282060734923
0,830207916283175
0,815465890391955
0,862322642942451
0,844812943223688
0,871194018779011
0,801779653718528
0,850272658643825
0,821665794211757
0,82981993711765
0,823981732346544
0,807841997686735
0,806020496399405
0,863197620113865
0,811073289919424
0,842215176222354
0,847804044193302
0,857702054702893
0,851281255250331
0,859136079858154
0,811141767836307
0,846425793307271
0,841434742398712
0,848685230375357
0,825832365824629
0,861604062233713
0,859354391705632
0,882032123672854
0,868540952217543
0,885501382637935
0,885140062505859
0,878918699757225
0,832550947905077
0,886798434541761
0,835662053990395
0,883147722869985
0,895554934178346
0,912960813353893
0,895854178828026
0,899979591156269
0,837030990414536
0,87085824997778
0,90421498332046
0,864653557245
0,870191429168066
0,894282332211487
0,904459978387784
0,904547971222924
0,851236041025441
0,907522786436508
0,899541712213368
0,883216051097753
0,839251772573738
0,88108763404272
0,901960281073931
0,90755327441725
0,866342877943224
0,881743833035891
0,910597926922183
0,913062285478249
0,886733323141299
0,902195006271601
0,885673869598385
0,905071995831002
0,891577197100876
0,918763814646692
0,874274835564763
0,885660626526759
0,867786338278101
0,887233519773498
0,90160564482279
0,899734198350974
0,910515589800985
0,962444806750437
0,928245531055072
0,939733116523258
0,887150800527671
0,899837880457061
0,870063047074994
0,878244685218557
0,894840798256079
0,896740281355049
0,896473644427455
0,911335748351036
0,917158913358873
0,897448558629191
0,876881974502851
0,925903069817379
0,921651695763402
0,895184517567657
0,888834197532866
0,913842619418452
0,895782706147201
0,898631921246341
0,881189402972541
0,931382179128025
0,9265170945706
0,92859055671989
0,902517079361139
0,913288523307057
0,89635272414335
0,883682905383554
0,884421710935116
0,903576104972703
0,863652273801705
0,898594286639449
0,889204287082564
0,952541076117998
0,917326654826732
0,92317898616896
0,90513871784761
0,885822313008311
0,890126222972517
0,902826180537283
0,887376683925634
0,922798637559153
0,909531308197758
0,914477104880145
0,874299566907143
0,896650430026961
0,899718696800452
0,881529296951474
0,906300192714686
0,905983897409827
0,877464526500001
0,928263029276849
0,877069133157457
0,885898401342382
0,864499343906758
0,876246354696403
0,875743706122142
0,883131940389092
0,856807465157593
0,866535666305079
0,870235975920163
0,880866208791384
0,882668870383235
0,8750984363312
0,853319027378199
0,868520276623561
0,836811460653081
0,873362696087171
0,894031970734013
0,875228231637725
0,867173899677222
0,85993044685435
0,864030025775693
0,871886744051185
0,880879448337047
0,859836495912996
0,836444692860452
0,85512935306573
0,878488686494487
0,852783812985341
0,831835141742945
0,838304681155154
0,855337214506737
0,867975716076676
0,855779783304587
0,874962080195615
0,830254376522258
0,850658346854743
0,831758470943805
0,82367143168748
0,838137423535598
0,836098175642432
0,820009628340072
0,837374085716868
0,814836773119317
0,811242511115027
0,816104121027803
0,816834259102176
0,817579501720517
0,83605709469994
0,838041940719603
0,832356654516028
0,790397380876583
0,817041771040361
0,819603858574872
0,79350706776664
0,803217706976165
0,808136871323293
0,800695522302607
0,797650964517593
0,795763696543124
0,804520538543473
0,801417002975628
0,797146271381543
0,788651403626181
0,782967065027236
0,78050739661694
0,803534210861139
0,770475572704037
0,761587148120837
0,766387954854261
0,765670267415875
0,762669700919184
0,766393524234017
0,75369405486401
0,751898762656453
0,751186532281923
0,754043074498618
0,751875940470475
0,739969514457934
0,746622305005486
0,751833557222209
0,759034823092138
0,744057069623366
0,743216342569837
0,748476237472308
0,738781364438704
0,740812411478831
0,726746942191932
0,746607280025433
0,732676926106712
0,719545185586379
0,71149782265435
0,702084257289206
0,722055836662381
0,720797665427204
0,699750570532155
0,703654294667748
0,695525129239774
0,690372040975656
0,704219920983125
0,69040863521152
0,682613619744689
0,682389445216177
0,675477487137891
0,681681036432804
0,689748341779203
0,681698776648111
0,666617871792663
0,661804781815537
0,674122136249463
0,665701427335638
0,653271102371128
0,668331647468473
0,656760569527587
0,640983512846749
0,641403677043042
0,646070770301628
0,654310817582662
0,647819272604296
0,63888004461222
0,636306826318469
0,627608283772431
0,635497510373
0,638209410729352
0,628828314495104
0,633237060704846
0,622618188426223
0,597853235412581
0,615603523789272
0,607347338505657
0,589514113828257
0,609295261353108
0,604348501851334
0,612046094211784
0,607300888705078
0,593656956496467
0,596439282149453
0,595503728136984
0,594855909126748
0,590521688653366
0,587852236983808
0,577959441116871
0,573358141446739
0,579524438193259
0,566146430670648
0,565176829241536
0,562387235000944
0,558965651452788
0,558593578974624
0,560205874255765
0,560863338670887
0,554327625491595
0,552345269169522
0,549839623861586
0,544305254780382
0,536717908718794
0,520999998351628
0,527628219599863
0,531042753670349
0,525768194078142
0,523844676807289
0,522218665222567
0,521292010169217
0,516103433463186
0,514630142587423
0,518759139218314
0,514273685239023
0,508625391330276
0,510779972476802
0,505792514869976
0,500279297417335
0,499289149550181
0,50178793747152
0,498705489573847
0,496209898418296
0,491761002890707
0,483536674417766
0,49634242496626
0,486892647824066
0,478647673124182
0,486888255788726
0,483536199916101
0,468993396353671
0,475866455925087
0,477366410783893
0,46939272439372
0,463207873848048
0,4669094112863
0,460776755851943
0,454382673916591
0,453234081477988
0,456489872477073
0,460215158956482
0,462666721142077
0,449691143404014
0,441478994436725
0,440800718101282
0,439521611606447
0,437927208088762
0,438736832037051
0,436933352666803
0,440119994579571
0,424748885689176
0,420727852946602
0,41270283025282
0,415863963296432
0,42997084154248
0,42177035068039
0,417090399055494
0,422257009157523
0,421331884218739
0,417193491776353
0,408992001583041
0,410483723094877
0,406058340938763
0,409385955497497
0,401514913305247
0,397299103146078
0,395442677673906
0,39636735760929
0,399422929941181
0,39574957910184
0,381774672407209
0,389621785280328
0,393169657697954
0,390727040631932
0,391497930606539
0,388022661352512
0,381527352963782
0,383525367012344
0,379141721304056
0,378692738145622
0,371757110953941
0,365280003785977
0,376459851031564
0,373470676682448
0,365977124995675
0,378049559501127
0,366183267713388
0,364737195557603
0,363687187939879
0,357803929087108
0,360391694176578
0,357782997573652
0,354069153636886
0,358285332035843
0,354586881639611
0,351873397701436
0,345328575558227
0,353111757576159
0,349480787199222
0,342219461580808
0,340529255611835
0,342790427691324
0,341079002232184
0,338486106404021
0,335855237727069
0,342918718414533
0,338948158538234
0,337670915584456
0,335886523393468
0,330771611426758
0,333098705233292
0,330831386631145
0,327274231867767
0,327225564080859
0,321549203866462
0,32845903512689
0,321757426522019
0,316179898002009
0,321977105799083
0,317744509538667
0,313753023068728
0,310359996788352
0,313831269235284
0,321585804664417
0,309921333110814
0,313675721484556
0,314743431931847
0,312277894756245
0,307997991212411
0,307855729141699
0,30719793127273
0,308194693636048
0,304597025766868
0,310634989247069
0,30953901233306
0,306926940157308
0,301726366370208
0,30473187555403
0,301069053912819
0,3037806436105
0,301374634744449
0,301126153575428
0,308196135286477
0,306279413993829
0,303872383464477
0,30024285959272
0,299011191576883
0,301398272398328
0,293237531946864
0,30012218256586
0,301160740978257
0,30365458476702
0,30167565625279
0,303115353180126
0,303859893409178
0,305632389046467
0,302037992976892
0,302788035478425
0,300662812667189
0,309807460593392
0,299653444811704
0,297977936313243
0,302986304164908
0,311294686327973
0,306311910814824
0,303364355144499
0,306409463528281
0,309333723073632
0,310116160944493
0,314478234385183
0,309616393933978
0,307582801618194
0,307149745581161
0,319123030650136
0,318848426251247
0,319159112813246
0,318360548570354
0,317856416902704
0,314324741075577
0,322000746034372
0,317437859832539
0,31621303599842
0,325481869361947
0,326649951109498
0,322727396809082
0,330309049037922
0,32797115056675
0,32810690346105
0,329417933916192
0,335666044308474
0,33199962256741
0,335769326244451
0,331798957474969
0,33961370315038
0,346157017238083
0,351204163931837
0,358632621967311
0,352038889532165
0,353041115177372
0,364309330862801
0,35619094487799
0,369372116627181
0,371332689944776
0,367442361939556
0,371970674890336
0,374624722277508
0,374131978558051
0,380572738133099
0,372884938022893
0,393184759296535
0,394080892288286
0,383639063093102
0,389861324935487
0,40593124627944
0,399551684837007
0,398031531616512
0,400319534050819
0,404003584502773
0,394388733477622
0,407421783688196
0,407807972808684
0,400106019675904
0,397676203632329
0,413301925249818
0,407851808022715
0,402890066030254
0,397145788801906
0,400302281221164
0,40063434512458
0,403620550678049
0,397048056321075
0,397253834774328
0,392755802528062
0,401002272770911
0,394289484597525
0,395830606200605
0,401144309055544
0,406026931222016
0,399101933883766
0,402837192911262
0,387135185352736
0,391942138901873
0,389863306246594
0,397025247138474
0,387810862967035
0,392634002079426
0,386254580171926
0,399119191270754
0,393920585889666
0,394069288019043
0,386884388205415
0,396618277103177
0,396194385977021
0,394474759815704
0,387926766491538
0,398860115429789
0,387126162679539
0,389661059765575
0,391194524689936
0,392301718174957
0,395724952903589
0,393827731056071
0,384120274628127
0,397432041476806
0,398493491131833
0,390726992296893
0,394935243139739
0,392540565058511
0,381338549543216
0,391195153069689
0,381126504457239
0,381612875652663
0,382014951107555
0,383293151824174
0,375043925738123
0,379411977897639
0,376380841125781
0,376197843400041
0,370496363236203
0,373886955292487
0,360053875927441
0,372141043955668
0,366232460085676
0,358713661951789
0,354772922929831
0,359773602089481
0,353231598913499
0,346371132918818
0,350922787572518
0,352507572191853
0,345682386271993
0,342635068062031
0,343757208065865
0,341648587382265
0,342129232083646
0,336867868136687
0,329674178619052
0,337071346469526
0,32464676604303
0,328933886390769
0,322480702249103
0,326493704847782
0,31759806670959
0,319658610234127
0,319873862498306
0,314713301674507
0,311061267807849
0,314989134054728
0,31342604624109
0,316242695887799
0,30708063201472
0,303075997755513
0,300493010315925
0,303611619395242
0,301250252007864
0,300923631768221
0,297553756777234
0,303756058574647
0,299833264313398
0,299480409812611
0,296884867540581
0,299564927761433
0,28965352780023
0,295034402704796
0,290552997972047
0,294548146892161
0,285302472644685
0,286457386514979
0,285796538660841
0,282788855333179
0,278747429899661
0,284189013704682
0,282168890461407
0,287154992961944
0,277307700026724
0,277994032035389
0,280717070287737
0,275685708418688
0,274838503399742
0,274346742472207
0,271953447141669
0,277099527444113
0,268180653969315
0,268569007255232
0,26801382066476
0,273931311585045
0,268049287436158
0,271301759256195
0,269633531599348
0,266352329968191
0,263518995703076
0,265945692813796
0,262369911339937
0,262711596266022
0,259789260779314
0,259410443527864
0,257661727339097
0,258786583244153
0,250678066474959
0,256210927664119
0,252112075965674
0,256482073496821
0,251514241552823
0,255864609560442
0,248005317125276
0,251982637850237
0,249249207372575
0,258691078124958
0,25119883765631
0,252128407676582
0,248737171086184
0,251665556471432
0,248339310315934
0,248491406731647
0,248855616724143
0,244606469856204
0,248309974344159
0,249315873647102
0,242077670221084
0,243922098266694
0,240548538182386
0,24511559756848
0,242794365188109
0,247728104449299
0,242432190189832
0,242144137468704
0,237786094877504
0,242555260649783
0,239101200345192
0,242307849319091
0,240948696215371
0,241672861261698
0,238733942212966
0,244227148363093
0,232284378013471
0,236120006180107
0,238600553170385
0,241526080026595
0,240073242234908
0,236781461206997
0,233347000476477
0,235935465506328
0,22850527858715
0,232652503954046
0,232890662965057
0,236113739198652
0,230214976570055
0,235331350162789
0,233092902631965
0,233032650173316
0,228203060542601
0,231179858802017
0,228546036168874
0,230448215892635
0,226754008948702
0,23091989332515
0,230495098991372
0,225900461256165
0,226336305074018
0,228389148155866
0,224645665736699
0,227834426915379
0,224947295565993
0,230074987174203
0,222947095315489
0,22831189667912
0,224871996474836
0,22771287500266
0,222027047402032
0,226533161504945
0,215903339541332
0,2272114197781
0,2248531583463
0,224813162775364
0,224263896386231
0,224040953545198
0,219862724730533
0,216312287126843
0,218384596881191
0,22174948853338
0,22566015836829
0,224932250411707
0,222056275473407
0,223048207940357
0,219991760299794
0,219911351855035
0,215493599896763
0,221855797726632
0,220797058143413
0,21765613672837
0,214685807336009
0,221407145387862
0,221043455691097
0,216910492962599
0,21411503345713
0,221953780609565
0,214403379189762
0,220675559169262
0,215991579528413
0,215039750983819
0,21555378116712
0,218127452776068
0,210494288861642
0,216133346376399
0,215108255897435
0,216606454694182
0,210387230671444
0,214438324958574
0,210805240585276
0,213207473030691
0,212219768647029
0,211798276306542
0,209899777774169
0,208991548234363
0,207076577255672
0,208738217864404
0,207352255023221
0,207980441912676
0,206003752866334
0,206314261623819
0,203065574168878
0,206483347632675
0,202094693901172
0,208925058665439
0,207888194838036
0,209322792371115
0,19889931765506
0,205295895556911
0,202433104740645
0,202593396490616
0,202173906867641
0,204490951904187
0,202524892078374
0,205050523656388
0,200398457742612
0,201246225527157
0,202061029983544
0,201275709397445
0,197676864424776
0,196392874246764
0,194652789850822
0,198921651684945
0,197310827659758
0,20281591239379
0,197526020746757
0,194616383828096
0,19705362709162
0,1989033608082
0,194565893493648
0,192604029639317
0,194039598278875
0,197158796894025
0,192628403492989
0,196112470826507
0,193336142129197
0,196359729769409
0,193929603494084
0,19182623668574
0,187631218532707
0,193071883540595
0,190366077481827
0,189071302102459
0,186903205258819
0,1883629172202
0,1879203873618
0,188100244847111
0,182973895900784
0,185815817903948
0,180573249435583
0,186646975907985
0,184546911088889
0,182176973379978
0,180551916584978
0,181560668166836
0,178406103204937
0,178039305043427
0,174867936863595
0,179199212414731
0,177098881457632
0,1793210617337
0,177354521826874
0,176388193074916
0,173338052249529
0,174546998533509
0,174661438674158
0,175416563636157
0,175293819322819
0,173454514402512
0,174264250683253
0,173092781580108
0,173039133669323
0,172009397279361
0,169724715438113
0,173571698532086
0,170130198818814
0,172218604324433
0,169078696339475
0,170292087176018
0,167278032873098
0,166741907540163
0,167401441046929
0,168731606967502
0,163930755585089
0,170321795116644
0,165098479840965
0,168741114402312
0,167729246777412
0,1647721395546
0,166149886148491
0,168803872217008
0,16497798217447
0,170618487966874
0,164201399996094
0,165317255322327
0,165954704968939
0,164337769898972
0,162703153499699
0,162245712067529
0,160092218735717
0,162776059588364
0,16060534462653
0,158514607159613
0,157549625684425
0,158650663163639
0,156728779751425
0,162437200974968
0,157962577481405
0,163247702501195
0,157929641615376
0,158808571226824
0,152756966922484
0,159664021360976
0,156393810366065
0,155305961952006
0,15581898865005
0,154828645092033
0,155181197175412
0,154620441224465
0,152104932867147
0,154378743302119
0,150190491315535
0,148326732918602
0,151321028468605
0,151551752036749
0,152157487494102
0,151063173362057
0,146817583594374
0,149993435226956
0,150568818672897
0,15136395774942
0,152670534170128
0,152183365392502
0,147456543905391
0,150627045550577
0,148601327417975
0,152396363889166
0,149406424471541
0,150843732520533
0,147165685969822
0,147782368529589
0,148963673595405
0,150069651338031
0,145988793717383
0,150154072662235
0,146146207564845
0,148684078664093
0,148545631513345
0,148309802742935
0,145504715721371
0,149431056162508
0,146785371078352
0,145584440640725
0,145333252733479
0,147620029924873
0,145173934412552
0,145174130436753
0,143226421634218
0,149119697851818
0,142725801456281
0,145483945781783
0,144532206839614
0,145190117414656
0,139071914925608
0,141977478639011
0,142490366001453
0,141507529367407
0,141840424100341
0,141918149289111
0,138383728241648
0,133921376571012
0,134759517287235
0,140553653901849
0,137701255568995
0,142058120206743
0,143750036461229
0,138122763062502
0,13605613938395
0,136442148153668
0,136123213606781
0,137151858860036
0,134932091028094
0,136128415507083
0,134644051589305
0,135367240287927
0,136661391514545
0,134095063389637
0,137314228867095
0,135782739810062
0,130927831463549
0,137363259006129
0,132969823050983
0,136966915964574
0,136946600106479
0,131588686865364
0,133230788512387
0,133950778086852
0,130278011054679
0,134683284729036
0,132068690132224
0,130836443989987
0,130291524271241
0,131622975449778
0,131614442580813
0,13287789729173
0,131232629698637
0,134451115569389
0,128557800174077
0,129352815263052
0,131523956497534
0,131887987791965
0,13038243918382
0,131283936877926
0,129708590346948
0,127614287447647
0,128474949455854
0,127388833009131
0,127288206361098
0,127554610053191
0,130835063671757
0,127153435807103
0,127465034189579
0,126167184625248
0,123965524797215
0,126246972197733
0,1256837990221
0,126739070591006
0,1265300331253
0,125696201554733
0,124117963477049
0,123891316392138
0,121704167115772
0,122405170322421
0,122949052759737
0,121361195877287
0,117255217028317
0,125407872500344
0,1232311458138
0,1204577755214
0,11653323878789
0,120583314524948
0,116990668607501
0,119040496642676
0,121017548280645
0,119039970146048
0,116318934853402
0,118290313820412
0,119462581153052
0,117982918041813
0,116925442948773
0,116066342963222
0,118303295852611
0,118177533269634
0,117330042171824
0,115102431739759
0,111962467523748
0,113548034088233
0,11142699487514
0,113488722469851
0,113291826297915
0,114483377312259
0,112117965803077
0,112997077685439
0,112895050227785
0,109925698907733
0,112338799779004
0,107108016424991
0,107332897306128
0,110448759058752
0,108768274490179
0,109277173139914
0,111073361309614
0,110484161217245
0,110788323153988
0,10822180855188
0,108213602904625
0,10959352330559
0,109114315862139
0,10932653513119
0,107402630856831
0,109925467093703
0,106738814041252
0,107006478121077
0,104092008785956
0,103557297049589
0,104677586549688
0,105641788483661
0,104448812894201
0,101834218307042
0,100278522016872
0,101927074916803
0,101945974968676
0,101159435791627
0,101782262039551
0,103857234887164
0,0997215883306183
0,101859877634371
0,101810819107722
0,0987080775099783
0,100517889160789
0,0967209285208955
0,0988004587919211
0,0965991381342738
0,095205123259775
0,0981083298350083
0,0950203435442807
0,0976580752654906
0,098500131404036
0,0964977629337316
0,0955887700738312
0,0981941609233154
0,0964089701860583
0,0970118049301541
0,0944758724262379
0,0931873001655387
0,0945675058809492
0,0928344874765691
0,0936976273474844
0,0939592850034315
0,092787739326754
0,0925411739484588
0,0923193037604391
0,0960280233016578
0,0933003650000098
0,0932048131522462
0,0964714343491566
0,0928227227347522
0,0939377437580655
0,0941025405618022
0,0976509596237403
0,100749629475742
0,0964075009010617
0,0946294207749079
0,100532818265533
0,100538646047731
0,100496375810382
0,100665498052503
0,0977816460710815
0,0979507214326613
0,0937764201144908
0,0946845872594179
0,0863898769067124
0,0835199246966461
0,0923152528932619
0,0913072499065312
0,0967075189346295
0,0847287721653144
0,0834222947887306
0,0901483162981603
0,0908306521709479
0,0853767268088096
0,0942565060454556
0,0865772646857934
0,0877517699710044
0,0858790976908906
0,080963687659625
0,0822798075727336
0,0857768665687156
0,0826683881559604
0,0922496166036365
0,085603028286473
0,0962291417864856
0,0911522448959858
0,089500834794803
0,0869179099811822
0,0899400086849263
0,0816124618784711
0,0918629366070105
0,082511358470282
0,0901788752380076
0,0782044439807765
0,0896861994700724
0,0786976100660131
0,0929098475262089
0,0795866791092917
0,0915608208506813
0,0778424801331468
0,088802095558071
0,0708897781830016
0,0839082049288735
0,0649811449801311
0,0949497716510132
0,0794970103830884
0,105139863740633
0,0739093574872178
0,0931136151354487
0,0655184375996002
0,103679745030383
0,0758869868266704
0,101155814965122
0,0652193314517463
0,0981838679821918
0,0825800455159402
0,101896257078113
0,075185301858392
0,0945766781556607
0,0862153532196513
0,0851067038540596
0,0889471365360685
0,0848281455116572
0,0954920252307168
0,0748418246874437
0,0999881590209744
0,0770611306901795
0,0927611014925942
0,0775021441012957
0,0911941816216584
0,0813724614453568
0,0884412186484461
0,0834581722661175
0,0832713265921806
0,0833846247001994
0,0816919123646238
0,0874507927671476
0,0830115212163433
0,0817932434988272
0,0841651831139208
0,077354889939716
0,0821987060645436
0,0768356139298323
0,0803381534536058
0,0785050366130869
0,0801235394863675
0,0787389614216919
0,0789218026982717
0,0765387353299032
0,0794700202811348
0,0747106610149803
0,0767959701024157
0,0773651029012565
0,0775499415346345
0,0775710057493834
0,0801192435888466
0,0763116716310857
0,0784773613983353
0,0774793953756532
0,0784869648216917
0,0765870083578282
0,0787044156255063
0,0747128827631967
0,0768429970390143
0,0767041388329444
0,0800535164694129
0,0788336436939343
0,0787702175184595
0,0756140602528818
0,0786351334291973
0,0778484453963745
0,0781632395594422
0,0746414563607941
0,0789785990479518
0,0770902087364432
0,0789651876551193
0,0773254800338779
0,0799323229588103
0,0790165168884623
0,0787471138678956
0,0786999489407251
0,0769616759564726
0,0773149195354848
0,0809837432575133
0,0761733023138367
0,0796649841755147
0,0782669473927321
0,0781949893622023
0,0767060654897092
0,0794964713388994
0,0750215808785818
0,0770939922999893
0,0764239553482844
0,0777386084402188
0,0744799065986754
0,0786316089669062
0,0769478973075823
0,0753421980389122
0,0762439667881365
0,0767126001169784
0,0751034209987268
0,0759153547179501
0,0742759528064636
0,0804015777983447
0,0764328561142147
0,0776325407076136
0,0769298342236109
0,0757300810272621
0,07502518109105
0,0769294550345932
0,0749872661272213
0,0776201075560669
0,0734804760571352
0,0758201015316293
0,0751705443181046
0,0763999586739991
0,076540009952082
0,0765148740035638
0,0743984688535841
0,0787898375986344
0,0751307046230471
0,0773317767114708
0,0777704891665663
0,0778721442777597
0,0771587470342385
0,0758052154887335
0,0762659491326375
0,0786082327179631
0,0773506985096993
0,0793350963376006
0,0770533338112237
0,0773279777355643
0,077671622611126
0,0757541551940192
0,0773721850125396
0,0769394390492485
0,0777927948512973
0,0800751175351445
0,0781357556269013
0,0796321179801863
0,0787824205621175
0,078573177981932
0,0779525133966443
0,0775932132085349
0,0784159695717864
0,0790220180754445
0,0786866038482792
0,0792493596263221
0,0763873988192071
0,0787514588875939
0,0802703366089886
0,0796813881761095
0,0809363647432874
0,0775512363017314
0,0793631170904079
0,0813257770567793
0,0796425017157283
0,0810143645833511
0,0787149542505242
0,0794080570770462
0,0793290599235098
0,0778342675031104
0,0804915664479534
0,0802867357997908
0,0789021004302673
0,0802518012059268
0,0787226099627657
0,0775367278821479
0,0795711898126782
0,078952002038159
0,0812276698630046
0,0795707259961799
0,0798853588823036
0,0810101667521761
0,078935717423934
0,0805725506521221
0,0797678363983756
0,0802393673810033
0,0809384688650572
0,0773375593172404
0,080018499585882
0,0810864694720705
0,0809867631908659
0,081083304998076
0,0806327366157432
0,0806018821513226
0,0826163908439762
0,0795845003022875
0,0822196375375939
0,0827085092003639
0,0808188636918064
0,0816592425676742
0,0834954714835451
0,082877542640458
0,0816230434997279
0,0817821000684353
0,0817421165292438
0,0822795115846972
0,0817574687390704
0,0829859144041787
0,081055103201831
0,082605443621618
0,0829437363900607
0,0829146923130265
0,0840217017238982
0,0828832501894391
0,0829381786865958
0,0819296236996141
0,0819988928898409
0,0801696914957337
0,08306913618463
0,0831819488727754
0,0802797972213614
0,0829629887650015
0,0844151142630653
0,0831260563828936
0,0796735554290209
0,0810115583492863
0,0799021349863647
0,0775728438255532
0,0797732121520743
0,0795204217913759
0,0818131145063136
0,081949807365677
0,0800687881224873
0,0798461551910581
0,0792011588979372
0,0797416503342423
0,0777379659692844
0,077788010839145
0,0779893879446742
0,0780770955877759
0,080630936638311
0,08061513262707
0,0810743844849951
0,0789349150937629
0,0770737959275291
0,0792307589670601
0,0792429560906507
0,0781971779368353
0,0789726825541585
0,080263804125365
0,078850256678115
0,0769041101161853
0,0754338922772397
0,0779780825891575
0,07604831269811
0,0787298784534198
0,0781606189124899
0,076646774964758
0,0784699469229409
0,0774225691940684
0,0778528946676339
0,0790108942808191
0,0761870406370547
0,0747488718220768
0,0777689623350291
0,0773371831006428
0,0784942445896417
0,0770233847361868
0,0786873631535246
0,0791349557291797
0,0772899372210751
0,0767563218929173
0,0794351633881971
0,0782197310668796
0,0776964248924817
0,0753801218017742
0,0767106676159413
0,0761246990839101
0,0762013722077573
0,0762768222563858
0,0752620535261303
0,0742794348496582
0,077884011808671
0,0762408389219867
0,076806452989653
0,0756056965236218
0,0753709893580636
0,0759131810856593
0,0753724052410821
0,0755307996481255
0,0775010638308629
0,0737312616364418
0,077586092916154
0,0750945539324697
0,0753904238406083
0,0751261555930508
0,0736033975089665
0,0753004846010556
0,0770153486917518
0,0774966644490927
0,0782219829158752
0,0725407040254043
0,0767383834482312
0,0752191524431516
0,0751753035025189
0,0764538775111841
0,0747632388148149
0,0755270921343538
0,0735844007555166
0,0717373462018574
0,0752588604322448
0,0742782469145962
0,0729307889985791
0,0735787655726211
0,0740401956272218
0,0758012798025723
0,0744438139001887
0,0694869990806834
0,0735592667310808
0,0735331109293205
0,0753246676372795
0,0746012544664088
0,071975906203431
0,072680504657071
0,0751738679780734
0,0776638841336096
0,0752996267414345
0,0732050443920142
0,0747594854106783
0,0709287939736905
0,0743711910516847
0,071689960291742
0,0707453869643273
0,0721454960978248
0,0717813787105759
0,0700735270453953
0,070913998466005
0,0686068846644523
0,0692998097987147
0,070500075648888
0,0700096417022795
0,0697284809176441
0,0707785582570989
0,068790709190804
0,0690011043772315
0,0685541454179253
0,069968817797652
0,0696660158892648
0,0688900531874946
0,0694782878351795
0,0713564590495821
0,0735165715888787
0,0708973870373809
0,0639566871035358
0,066627305734213
0,0657332534625797
0,0675157499445094
0,0656943151966007
0,0668480247811719
0,065933561810679
0,0645371746553464
0,0634192834742676
0,0655612840426025
0,0624343919068332
0,0649117610027783
0,0658246910844505
0,0624279408409737
0,0618055699806666
0,0633715146826423
0,0632971802934062
0,0634748335729477
0,0615949350936423
0,0629132803804094
0,0620692168170171
0,0648808973475366
0,0620584018770615
0,0636517647083732
0,0746081173642142
0,0784340223151509
0,0625157839702818
0,0629299450696529
0,0668106759050189
0,0666433789366001
0,0646967975837707
0,0618158209985434
0,0629369989131619
0,061623931473137
0,0631321914646093
0,0631224235627817
0,0625852580781517
0,062569637368174
0,0616449009377432
0,0596524645875645
0,0606944332120981
0,0616323072120882
0,0612569089480962
0,0617035439112043
0,0585962603679091
0,0624786135887908
0,0605881029163789
0,058971492612291
0,0641247015179491
0,0616258730111186
0,0628026194051117
0,0682535253648596
0,067969859915275
0,0651877129731716
0,0604329591410973
0,0595936153970812
0,0590572157251933
0,0611835051723644
0,0622270730843529
0,0593387160228563
0,0604322509491873
0,0608498950964196
0,0585964282597193
0,0617955406933619
0,0606800969657224
0,0599907957121983
0,0556733714931123
0,0589869473435263
0,0586319730967718
0,0549916542818938
0,0563463793410188
0,059211770991782
0,0555783708796768
0,0595432541205745
0,0623878688493802
0,0601370170906803
0,0554063017526707
0,0732915668790017
0,0776813456865486
0,0647498028169839
0,0588204316179393
0,0623159193819941
0,0558942201736946
0,056832281984901
0,0546342693157368
0,0584277469921686
0,0554281519823608
0,0583576110005677
0,0584213377729159
0,0593400438095497
0,0565023189523338
0,0580764095619417
0,05678408288522
0,0567729656543435
0,055081036262182
0,0579468677705036
0,0536163133894926
0,0583489312701552
0,0614660773548124
0,0767552885897864
0,0660924786941254
0,0608232039464667
0,0556364099854507
0,066052303621981
0,0758886843492745
0,0723182715116403
0,0556640845417165
0,058660466733855
0,0570494588674929
0,0552246889898374
0,0544778364460287
0,0541786965070764
0,0640633186126275
0,0614038230017859
0,0593947920102958
0,062094390435849
0,0570481522794023
0,0556181315714007
0,0550908073333009
0,0557264207883893
0,0527905763022068
0,0530840221040446
0,0539051613237509
0,0542887531088162
0,0522761433852082
0,0557402096745101
0,0533642094472692
0,0530202500120398
0,0599342451596655
0,0614655288560831
0,0531921949049099
0,0545037229899532
0,0535371820561089
0,0522319526155555
0,0676688097535687
0,0673468584039604
0,0602809938415243
0,0516148418230833
0,0559585317915993
0,0531589977110278
0,0543245193098183
0,0521895010708916
0,0521441866549433
0,0516620905912965
0,0538964899603031
0,0553927662398041
0,0577123170639337
0,0544046033253369
0,0522818700797412
0,0558453758053381
0,0515392095827815
0,0546908493586976
0,0523616743867171
0,054125584176189
0,0537922468005021
0,0598188898463837
0,074225597175089
0,0813232659414695
0,0737717506045118
0,0701200479014791
0,061907660503255
0,0553267737512889
0,0578148941603908
0,05024587164301
0,0548058067553837
0,0545257223350422
0,0550770355546785
0,0521321608836708
0,0548927981484848
0,0519709645103908
0,0541854918672176
0,0503305041253977
0,0542148345083839
0,0483979561727969
0,0551239083842996
0,0490249280935967
0,0556616460372395
0,0477971784199164
0,0559749145578608
0,0611906405209666
0,0683583190014428
0,0514722766017306
0,0662303708146605
0,0844405068107524
0,0768230574715875
0,0687314786756034
0,0538536598129435
0,0574371382324185
0,0510097242566184
0,0529728824884998
0,0540146420302688
0,0593253251835325
0,0503907050025864
0,0522819610682068
0,0515449422860163
0,0580973955346062
0,0493958468600969
0,0498502959418533
0,0760768559763315
0,089688865682085
0,0711429633632748
0,0554708284487854
0,0490172133874312
0,0778316621742237
0,0740513010473747
0,064298387848934
0,0553763607824261
0,0593505134567411
0,0520446575027247
0,0538753873672979
0,0514058036323651
0,057558812592024
0,0575565432674985
0,0521697855715347
0,0535325523767437
0,0526100049121497
0,0550156134407727
0,056466907813527
0,0602404621621455
0,070562698603399
0,0639043141543122
0,0594890257536964
0,0598757640639817
0,0601174921337242
0,0531330812624216
0,0552066934842928
0,0546976866974587
0,0533939399796278
0,0720345356257242
0,0716415373550765
0,0701059846332784
0,0761000217094512
0,0664665229439645
0,0583295859839853
0,0610498740405558
0,0752841442233502
0,0623777640232178
0,054455351442683
0,0831999187537691
0,0789643880540617
0,10217219384062
0,0663727090146405
0,0712156503423239
0,0481265916547892
0,065457005576177
0,0467739781313715
0,0677311199698999
0,0704970506800666
0,0676952242027799
0,0534766467293427
0,060725113758965
0,0719748022522074
0,0762783484596553
0,0700919066796101
0,061934862916918
0,0557304526592827
0,0615134399453238
0,0814792259073107
0,0597444347694618
0,077735698750989
0,09232480025482
0,105571261704565
0,0934596938327881
0,0646107073507573
0,0796364155430588
0,0903526446985203
0,0789687037476653
0,0630480115020027
0,0653678492205361
0,0671535431425032
0,0601444141397992
0,0846334710053246
0,0964366726779286
0,0767265012170189
0,0703218987225119
0,0668684399700639
0,0789377277906548
0,0931662205488963
0,0866233666252866
0,0654146509987886
0,0747558764276492
0,0637051602234548
0,087633103913701
0,1210617775872
0,0943188821976463
0,109039094451182
0,101911539716371
0,114111846306414
0,0901811543378218
0,0965998453027773
0,0785589991336347
0,114460095257098
0,102849544023362
0,0905582646027199
0,0777991632875743
0,124758706715774
0,0954139313649154
0,105737352902928
0,0874551250548927
0,0967889640804037
0,0919778124545692
0,15258871485597
0,152071193755211
0,136168131532283
0,100140120918832
0,122754906530608
0,126482749668082
0,116118100561028
0,100738978162446
0,106670484440155
0,102903948481514
0,101060051589436
0,114743166614666
0,120819976527445
0,109116823662686
0,117562649424438
0,10987083082117
0,130586186874451
0,147189703127167
0,218104545636554
0,144505259913743
0,159754941043116
0,150814436294024
0,161572188537778
0,138733116233817
0,129139969796172
0,128300605915769
0,138309860678832
0,13534587736006
0,123448500096938
0,133556458578125
0,157915416636188
0,141312433505529
0,178081184144608
0,142326131505989
0,153995534391886
0,121674793179607
0,21499762369387
0,194741531966738
0,187810406891674
0,150493878264732
0,15543498766043
0,20005524800824
0,197148488659288
0,160903415799232
0,1422648834462
0,140927810694482
0,134433491147378
0,148956264113748
0,150012775823867
0,15669567214949
0,167540124432874
0,144405531101768
0,157770120150421
0,173081696318273
0,248865734675555
0,246829638781833
0,173798391002757
0,172837786249734
0,186015870126239
0,180275680300236
0,169601627700401
0,165583829549343
0,156315413109782
0,214355614595423
0,189253530562598
0,20700414547724
0,159307586117242
0,213200320288723
0,186209973625988
0,203767371955325
0,229563502163678
0,217356869307729
0,204321639060338
0,18843747331367
0,203196109758816
0,184811068820686
0,212849211832539
0,220677078307891
0,229687921967379
0,208083937552943
0,208250844114191
0,207009529083669
0,206413192708062
0,21978966690299
0,213031480446683
0,236090936466143
0,259540958978861
0,316583221896598
0,382204346901208
0,260618948561921
0,242538164854884
0,211656464558601
0,250011829392074
0,25106971884806
0,285547806550385
0,277237529796093
0,257933930816017
0,238702113261926
0,220686288072732
0,233612723016557
0,215127771070349
0,234480863189465
0,219908368269942
0,233964511950568
0,246973371792979
0,23675935517241
0,318558358114918
0,266170453983199
0,2538393353537
0,213885227203231
0,236711883142827
0,212296361980784
0,230839699795614
0,20049397754124
0,248597893915383
0,219068046485562
0,236461004395562
0,20064722866112
0,213826667149349
0,237238987186622
0,234727678342068
0,215616502199877
0,201113865836837
0,199438598615073
0,204913616064081
0,183329780806919
0,240634991580635
0,218986963519417
0,218123791932677
0,179481051324928
0,194859134923397
0,180166990751252
0,190693789631725
0,178375686749389
0,203928483006539
0,178831155664611
0,190498520930535
0,179803841709296
0,184761726659019
0,17121308688764
0,185178654370794
0,177826308341036
0,179725162819767
0,178301750511772
0,1789237844783
0,174751710984095
0,170697801012813
0,171842401446309
0,18161370645945
0,173780718387861
0,188596565048454
0,176158464827972
0,17918182651666
0,177242808596558
0,177646018714684
0,179923144830234
0,180108135484332
0,170104621501211
0,179026550466595
0,174220929741724
0,172180446292388
0,178591743719673
0,175650850040013
0,174182095641047
0,174143993330339
0,177088460535834
0,172400302266094
0,178799888693444
0,171669543857179
0,194099043710938
0,242963305706276
0,201644839067692
0,19716194259095
0,164183671259065
0,188418870110041
0,158513426101507
0,195427774364471
0,211872789550824
0,210249034357249
0,18248647226119
0,175091156049222
0,170426398440751
0,20864629780014
0,170858583895913
0,185421393593745
0,157652285764936
0,185166264512496
0,225467169965372
0,257684630167281
0,342679113859026
0,248804413698148
0,209351211559538
0,169570204249475
0,224361381019326
0,190548817239454
0,185435245032663
0,154840306026212
0,172606835590414
0,216370049681008
0,177517374888426
0,174710879797866
0,148066206557284
0,164590533722821
0,197699657120251
0,19560904758227
0,189504801816689
0,214738085342969
0,191305680783358
0,20824772544261
0,211262355006598
0,265845049896583
0,185321797083321
0,156506929957303
0,15650377087917
0,148511468377132
0,192129567003824
0,195253056842537
0,170553547945642
0,171085139991566
0,136405991803988
0,152778379494916
0,14174466087034
0,19500133558792
0,14361597849438
0,199279665989231
0,165720780491621
0,164164578671138
0,162086647857088
0,184008566194141
0,218934933749267
0,218592712596529
0,159157087579161
0,14137857627008
0,211928565449237
0,17896435268108
0,178443693676873
0,161048279032589
0,131155645588736
0,16515313678971
0,156413189202171
0,150877523897759
0,176702463140485
0,170207674912618
0,21374224184557
0,225226291344768
0,252998292293743
0,216262440080022
0,154008571672379
0,143126657824742
0,137838433763536
0,158584838472856
0,13953052021582
0,147339278816777
0,190645637247226
0,142695509349193
0,178966691913925
0,182577786389785
0,163733112152135
0,147217021639624
0,149707233191994
0,147455177308911
0,163621729665657
0,200618410475146
0,219580561169499
0,179050021878683
0,199393947021779
0,181510710956268
0,185284885818164
0,161850073518687
0,175173919629527
0,164086947556539
0,184616804950325
0,190399934260125
0,181483462019154
0,183965194168874
0,190155116524597
0,179297424972965
0,256165041803606
0,20528195930013
0,228615128872644
0,234957439618246
0,263314106895778
0,294629069989495
0,23477361924935
0,236894481178597
0,22392893385085
0,233699910876929
0,23859181742642
0,236192321534645
0,280369679024902
0,270377608082236
0,263448010871432
0,255976139038614
0,260512544802409
0,256412298353223
0,277077096437918
0,30283883572134
0,299681194124702
0,385080488277876
0,30803643937762
0,32956276253119
0,276929265139657
0,285025990400709
0,292222968430157
0,289092100498796
0,281235269704155
0,280121484675534
0,300649214570498
0,312915047201951
0,28793694724385
0,288874459166022
0,282428742242781
0,290403153110448
0,283897112015104
0,293072449434762
0,289633812028287
0,294146596043415
0,294768460327388
0,289746700030827
0,328900886513874
0,37679899538536
0,331072080553424
0,314493866044901
0,304580817341568
0,331050207469023
0,307309422775029
0,32618070172391
0,343076381415199
0,331480896743769
0,329808592590882
0,320431290939161
0,332158240831154
0,325391807255981
0,360162687717562
0,352753505723276
0,336773787470143
0,343082686883082
0,325109265257117
0,419018524585546
0,364294985665314
0,39700253155129
0,35926519504995
0,366895858689951
0,341910250142695
0,347496513814218
0,34373127016279
0,353278905756772
0,353535277887896
0,352040395282129
0,347400674870994
0,344392146716702
0,348103373003809
0,342247175112958
0,3517001575994
0,36953430696348
0,354123899769137
0,347768254693618
0,34250914162319
0,336632939952636
0,335083573021941
0,373235524797867
0,352759620184776
0,357042687484292
0,341502640145301
0,369512285121098
0,369991868275417
0,355582619341723
0,326203919870794
0,340866007114026
0,325651514750051
0,344450183101056
0,319439891026719
0,358424928047793
0,360596315378834
0,36525099839477
0,341677395779887
0,348835468796326
0,336643517463892
0,352233631614354
0,344306032835488
0,353252287320975
0,351571267637997
0,361981498164828
0,364717710220901
0,360551188674641
0,361215885349417
0,379926352866821
0,389850905843848
0,383983120742998
0,367172663996346
0,374533450415987
0,36621226855116
0,378409950995118
0,374478680591818
0,378639999076566
0,365798543570149
0,38103596814355
0,354426810062846
0,383513854581881
0,399236602727864
0,380672543978821
0,388217428238511
0,366837497882407
0,361567513733253
0,361562070013474
0,35997592834941
0,355708157085903
0,362530246259598
0,362220367001192
0,355287362125688
0,354514303904333
0,351300507885972
0,351321349943751
0,347616119215234
0,353785762187632
0,344806923279757
0,348036878104458
0,346426170343432
0,348660742084437
0,337380709425337
0,345491307169702
0,343119361651856
0,348231128818487
0,363421560804171
0,36991139852185
0,374605673560261
0,351552203545525
0,358648392720148
0,344229687438831
0,341856023184548
0,342609550488885
0,342704040482647
0,342612253596504
0,337464174555208
0,340611445974018
0,337464531129684
0,337842774571765
0,336650025815426
0,335230611377053
0,3351841244524
0,337040311289467
0,330553402291079
0,328874140389057
0,329645989254715
0,331960385956179
0,32790937739146
0,334693899937533
0,326897385264816
0,338618097439967
0,322754111096174
0,326345047170512
0,321052531890981
0,325843162466551
0,321722840172702
0,322171116863447
0,316299946484143
0,320123759156167
0,314160161911602
0,32107429578109
0,314519754251834
0,316800301036094
0,312576939318509
0,31273362126863
0,311346352668481
0,311376215099125
0,30779652347559
0,308520744034883
0,302263316045033
0,302936210828894
0,295345273282231
0,301772433542828
0,298009981889254
0,297791397295381
0,292852670373387
0,291048173870187
0,284147382283532
0,286452971854037
0,283154003438789
0,280557092113421
0,278843137862476
0,283263639236169
0,274320057773539
0,277467556644956
0,27263567164535
0,277352209342192
0,27080149080951
0,272970881385812
0,271315077187325
0,272792810618375
0,267518460560339
0,270327880414114
0,270828355574174
0,273323739091071
0,270213782318848
0,275069032436876
0,269672336553794
0,278287720575917
0,277351614621932
0,279027623730599
0,278476969317219
0,280584492234073
0,277374515269226
0,283937553868495
0,281812370172018
0,283034917616347
0,283811310767821
0,28199860008571
0,28407420032773
0,285014444899958
0,286106916841209
0,287315834937892
0,284478071599747
0,28753610071801
0,283580925387406
0,288882630676877
0,287995002681077
0,287682457920675
0,282372416657088
0,28648861847187
0,284766425446461
0,287808787539635
0,280632900802567
0,281204903678523
0,285030488961045
0,283474802936896
0,279091431664486
0,283665037695439
0,280008766615026
0,282394034435183
0,277357566592017
0,278124552455273
0,277960289034699
0,276796480554662
0,274488490703717
0,274672576855278
0,274067199982541
0,27501632840408
0,272648945873456
0,272571603162099
0,26857554669935
0,268427785413192
0,269009174637723
0,265987329639078
0,263431225821224
0,264295015831268
0,256963250242047
0,261718833233458
0,260053497456911
0,257801204460288
0,254247257911
0,253731269661386
0,250711951769541
0,247889354963278
0,247476909524527
0,24542278250095
0,242202926264467
0,242085092265633
0,239731525439561
0,239787581854982
0,240846911456445
0,23839843206881
0,235049665082303
0,237224275230513
0,232846312671894
0,235415001283546
0,232273467082292
0,234924504915055
0,233149522370158
0,23214388564009
0,233699456014907
0,232367337608815
0,230198448266286
0,232849035913594
0,228860324013462
0,229889939216685
0,228296333137648
0,227644127504461
0,224289516124413
0,222515044346504
0,219802788193348
0,21843566020104
0,211151670291504
0,210680406986388
0,206264571116873
0,205118981876546
0,203679655303304
0,19701822497531
0,195700500056988
0,196036640110704
0,194368759674945
0,195367979094682
0,190300980557295
0,193831022064986
0,194043861153814
0,199047461693174
0,197583842258291
0,206560604108226
0,209097287420418
0,215934414295186
0,22014274237063
0,228700228758705
0,237004032896224
0,245417563600591
0,252197814720647
0,261190060379562
0,272559403808141
0,282483556344762
0,290521389561066
0,306220012672115
0,313533980066847
0,329203334135883
0,344271063400445
0,358462814080281
0,374880791219633
0,389383235616012
0,400031840110678
0,418682898918199
0,43075905630189
0,452873131551957
0,46593542674536
0,478995069085956
0,49067997703579
0,506126817284327
0,516552560735069
0,530082965632137
0,532804658534449
0,548068438005949
0,549400154041736
0,554588661068354
0,556983344201528
0,56246652926155
0,557868760671163
0,559060545094982
0,552901851467327
0,553332204727581
0,546489834369451
0,544908950486031
0,535489415421344
0,531236188030615
0,531252111076813
0,521354648916126
0,521991557045773
0,519503016681679
0,509856515676903
0,512627517233449
0,513096240641716
0,510956180922838
0,511064401993452
0,513115288107873
0,515664477202432
0,517320286014086
0,521320389803951
0,5314613581089
0,531249575295706
0,538352030135008
0,53911680355705
0,552416464471303
0,556563537349644
0,561859231622139
0,568781332125057
0,577827328031048
0,576136098750621
0,580151955031215
0,58569804258477
0,590563959014299
0,594109059752359
0,596706001459246
0,596178188181014
0,601577671792239
0,603350946826279
0,609454042091081
0,605445762788727
0,608706206417778
0,611067591558929
0,613084030166012
0,609931230440223
0,615537499679044
0,622092654644883
0,624929210920753
0,631983554724558
0,634604632336829
0,638192700953902
0,644515125281242
0,64365731375192
0,647950053004631
0,652415291103619
0,65472541682652
0,660914379902115
0,663553558646557
0,670975600118953
0,676173557454724
0,686459490923104
0,686567688154149
0,704353009111345
0,714069390674896
0,730613668708696
0,74730289755552
0,760215885369973
0,781407550937643
0,806150220762872
0,822662869808728
0,842669815462
0,866840108887128
0,874559913766092
0,893955859545148
0,908219736531392
0,918225627384332
0,933321938647793
0,931775188371714
0,937324271366956
0,948701198476235
0,950990308406995
0,958091726009883
0,932332960107667
0,934124287306773
0,93045677593917
0,909032393143938
0,913015922310422
0,913324385789586
0,898683179389799
0,911499521363065
0,908180078944102
0,906055007861727
0,905854632946247
0,903367109561924
0,922235571263305
0,914112043453337
0,930085038494432
0,95581430673719
0,950492436073315
0,95679425589787
0,968871040074461
0,989788424318915
0,99962218467175
1,01682153796774
1,02034778915622
1,02264204518501
1,03710196761789
1,0487197407027
1,05754061879362
1,07331680706944
1,08476383326147
1,1131398009064
1,11560757877998
1,13814993510618
1,18404068475915
1,15366666478407
1,20430105729075
1,2119429806056
1,22623615433067
1,23310055288042
1,26765683473657
1,23032131115756
1,27923953645431
1,31100906888807
1,28985770259712
1,33435050398479
1,35541384038564
1,33694271238151
1,36380987717035
1,38937240463079
1,38958700940999
1,3682132184489
1,41146481535782
1,42700687966098
1,43428795673841
1,48590024382806
1,46124486553941
1,49429322229483
1,45895902651023
1,48471177726848
1,47323628406314
1,47096157192681
1,45611858096073
1,42594867657301
1,46179041575315
1,42538366843909
1,42671519007473
1,42192126899589
1,39964180411594
1,38309192225319
1,35146364814824
1,32346609337467
1,30030342083284
1,29599585002964
1,30544360118057
1,25272804478978
1,2516870300281
1,25971698313168
1,23860336344779
1,2093688119039
1,23570929463556
1,19320074524657
1,19976317236184
1,17785698636382
1,1890652512152
1,16440405804038
1,14258302221957
1,11450680200933
1,10961827886577
1,11977721612623
1,0818027237061
1,05042831317126
1,03500559237407
1,01879178980967
0,994794871990439
0,944031321924397
0,932194904128
0,902293062413715
0,873571366165095
0,851709472033882
0,823069819361868
0,795493048249695
0,766040741571512
0,728320721572468
0,694427278807271
0,661012094616379
0,625659694438638
0,600798602484325
0,572250954366327
0,542615703131757
0,52041779901318
0,500041088390916
0,472934475875015
0,454297112435972
0,443888425274545
0,429832636256274
0,411906680256989
0,402941640819941
0,383839082083065
0,375663064624264
0,374053056150954
0,363330106956506
0,358410194413591
0,349959764744496
0,346372804788514
0,341966380439645
0,33541898069221
0,335060227444083
0,3297551787445
0,324869682725254
0,329967975809756
0,327791682136293
0,327947492235322
0,329587268534079
0,339251478077051
0,340105758469243
0,33964134703049
0,347180778257669
0,34722779522068
0,345282866802484
0,354578814020672
0,353497039900441
0,355310491610282
0,362116908260004
0,355783903298791
0,357812555794662
0,366896857444327
0,36608375035115
0,363985236704833
0,362631669011328
0,365206902504277
0,367442364397327
0,365143893611272
0,363226150172597
0,368149917036101
0,366396605239198
0,366177656915566
0,363481446880713
0,372913641229567
0,370375257602977
0,368438548670353
0,362372700792872
0,36252240619847
0,367229313233549
0,365138483910967
0,3595381442118
0,362099145283301
0,358169962626664
0,350898330235817
0,353938290094434
0,34757590730424
0,34392443967774
0,347482186056495
0,344105496121635
0,33995472889711
0,341559475785884
0,34000976991602
0,338251584122452
0,335393022454592
0,338528845923082
0,338638873640786
0,340149401972545
0,349201862561233
0,348685826575285
0,353177142706278
0,356780443957922
0,361546688898553
0,365828653890721
0,375553307401283
0,372937410184475
0,376197733067793
0,37625109729254
0,38187145822741
0,371971310644991
0,37117797108929
0,372280847372617
0,371491220023041
0,370035498829841
0,357374471404998
0,344877737998162
0,347774192164873
0,339941230864176
0,339902347649493
0,336605553730615
0,323481031164239
0,327852324120874
0,324089070997237
0,329045813349347
0,332941078502411
0,326279325846424
0,334861103337711
0,325717329339474
0,32925932781827
0,333365639085197
0,336868340059889
0,338073061709665
0,338159133226337
0,332422535153901
0,337308979857024
0,333089416130677
0,338153087454503
0,339566230757912
0,343632473217698
0,343505937735725
0,337076025228247
0,339943649614049
0,350238674153196
0,337259995814507
0,349898421027754
0,343015210809662
0,343678886261139
0,339195079290735
0,339276844576972
0,33589575087521
0,334093727136679
0,335449904915752
0,343856185053105
0,338280347487656
0,337156593311501
0,337306489165147
0,329853875715503
0,332499764890475
0,337125674048714
0,331360795464983
0,340288531187998
0,32811630688332
0,338496267657428
0,326803487520275
0,311245888510099
0,323569803743446
0,311352958736165
0,305772769668244
0,319651853814254
0,306725502902989
0,310010972888198
0,306708484182374
0,301628955763968
0,2971543329441
0,295398423891798
0,294298822036174
0,290309802721239
0,281989567046326
0,296677422425885
0,28349810748227
0,290734244242478
0,281273472422237
0,288643411534653
0,292937917995078
0,280339144168958
0,280256119489569
0,296574080028028
0,284202735238608
0,291348075600643
0,279017065830802
0,294394739578531
0,294530260551127
0,282392074650468
0,295487570557295
0,288172309236172
0,290631925213445
0,299060536868131
0,2862183983133
0,31347647109915
0,3100045459107
0,321176641069616
0,303133144686714
0,298800034688156
0,304928070788209
0,328574077606018
0,32001403741871
0,327728192866401
0,317668135183893
0,332013790960595
0,330683016735444
0,329033723693848
0,347214708998927
0,363351672198764
0,351620088102603
0,371120694119956
0,365762487655199
0,382868206622716
0,386390913568786
0,393192985876252
0,399874033298685
0,380695890614576
0,404703603379453
0,429074768925948
0,396987888791935
0,42842373277372
0,414471710564041
0,438024297663999
0,425056224309175
0,428234128839879
0,444001804400782
0,445551088516771
0,429191027216946
0,438901628359558
0,430662401097664
0,445784962132776
0,451449632731422
0,450176358383134
0,441061654811589
0,452712341251597
0,448799361973321
0,468497678505486
0,433773475906891
0,456811222261893
0,462600793192341
0,474960929836273
0,471286342529218
0,459654528381629
0,479587090339864
0,470951419228029
0,440907301291821
0,475372508109183
0,451374866721846
0,457295875453199
0,469914710833441
0,45302806871431
0,440929072702153
0,461436268734928
0,448355683058616
0,469431787302978
0,448987642414531
0,429021819709837
0,427468454171061
0,442957957002189
0,43430592701994
0,427208872766466
0,421844497169197
0,45039221566801
0,432158858157161
0,471000003430758
0,421546815301018
0,45703521115944
0,46354258580298
0,421625796169168
0,442399505744369
0,446707370169367
0,417737578860351
0,439098069762915
0,417239695919742
0,4323763594332
0,418234404769054
0,45155802610341
0,453142329188947
0,430968576763269
0,4545716570323
0,457664777734849
0,445309779271705
0,449618244636271
0,458261771390285
0,44569244488947
0,421048015654885
0,472259409028461
0,465079241185268
0,469983547840471
0,456654000394998
0,458175668123355
0,473270732201691
0,481339651715662
0,481985623676956
0,470001154616916
0,527815185410262
0,539680198125127
0,484178065004028
0,553614246081723
0,517152013343487
0,563052759689807
0,51643465080768
0,52740331947896
0,558774898702478
0,535002063253867
0,585452074013914
0,569526652062557
0,540296109264333
0,554645929512183
0,598298983416525
0,569030636069051
0,581012888800686
0,608674119381566
0,586428461719085
0,602859992172928
0,548371957717729
0,50742217932928
0,507777771638662
0,529014947127661
0,494796305778354
0,522252242577984
0,509668774399268
0,548584420091524
0,525215454120754
0,545695267497697
0,574884609279798
0,577192713964401
0,492411390501105
0,622057490506495
0,572840129928697
0,474773851411772
0,521877058138092
0,630193956533009
0,509403035270094
0,681170877735292
0,661820792443012
0,580175127629135
0,552984420984559
0,52396079527528
0,613668314930313
0,602291534828311
0,502720775084456
0,654860334933358
0,579627277339816
0,600200791906502
0,856594466278963
0,527610459430761
0,470232825330705
0,775298005080256
0,519922303319458
0,451644190986022
0,383600436951327
0,581875887493383
0,575662684660256
0,68490520557084
0,556736140596128
0,512236828591137
0,81882736160286
0,5337678186638
0,535952561283897
1,20325574057776
0,8917588433787
0,794341020583984
0,72220301348084
0,67837300960977
0,995631569538882
