3596
4000,36533379555
650,420452594757
1
2
2
0,0271663064031649
0,0434252002435541
0,0352666720336084
0,0455875669976493
0,0282875919432611
0,0457994770820446
0,0240991537159722
0,0496390455688808
0,0253493895215794
0,0488023775468186
0,0288986621278023
0,0430348984216527
0,0297624489229921
0,0509683998641
0,0314382694933171
0,0417316998423572
0,026348919924834
0,0364958926426756
0,0266451167074557
0,0443558293557282
0,0340908543687664
0,0433879694179874
0,0240570742229827
0,0422140576262505
0,0259328241241179
0,0377866981516149
0,030059109601055
0,0431024999104206
0,0206340081063251
0,042057802542903
0,0294896910715734
0,0461987268352868
0,0285046932062642
0,0471375188492853
0,0270388791278668
0,0456174820164909
0,0231617714344001
0,0497244815173849
0,0284929631502829
0,0551792128246799
0,0296228821004627
0,0453667560222502
0,0307563503993269
0,0470150428132076
0,022998100560345
0,0408409304818663
0,0227291309621691
0,0502016670756148
0,0280309503820249
0,0481523415602397
0,0287896817734278
0,0417006823142692
0,0311536334601903
0,0527711331758045
0,0264180378456133
0,0543850962917785
0,035056289976894
0,052709694117042
0,0376107517765655
0,0358314517616855
0,0339062671395832
0,0436128461699408
0,0305298361660906
0,0474743123688564
0,03903440024791
0,0469992825317767
0,0330675071298053
0,0526603984778509
0,0228880463008778
0,0401020081693284
0,0187984639451479
0,0525572437734427
0,0422874498399129
0,0556344565550882
0,0287249072068753
0,0486321706666211
0,0261787857160058
0,0506818808641046
0,0160684910103702
0,0433173213975218
0,039880311757496
0,04595785714666
0,0254138804390788
0,034319106370817
0,0260062095723918
0,0602881360041642
0,0205234252968177
0,044542539261668
0,0356000813555287
0,0466804455293292
0,0224383025571806
0,0482263598603324
0,0329189173849411
0,0526600386567003
0,0181884940303142
0,0504228686553464
0,0250575341970983
0,0433736150659294
0,0230943141404316
0,0407460848292865
0,0236585970769769
0,0579172641515266
0,051788506798859
0,0305685862014092
0,0495938415310854
0,0574679083562211
0,00725038730359263
0,0692342467928024
0,0365785678487934
0,0488947395308183
0,0276319802949732
0,0477177061995055
0,0242465669014972
0,0419974254058103
0,0156051506351179
0,0474188736257076
0,043778848349914
0,0577351105809789
0,0253491673925086
0,0448382871786885
0,00283922416005207
0,060714464225222
0,0571906726445737
0,0501552589293065
0,0270486086901248
0,0411281176936236
0,0154975189741435
0,0627315645066415
0,0426681020268212
0,0550642373674891
0,0227427699889645
0,0460738383598718
0,0203209302376329
0,0288210965713961
0,0524000012057765
0,0481495276612127
0,0225541708897337
0,0253756640475864
0,0153946319977934
0,0778628619085684
0,0402980618458755
0,0491165990303733
0,0105006894467089
0,0338917029271784
0,0527309002575797
0,0490951092084692
0,0123069502589642
0,0600756527922108
0,0362242435650664
0,0402650384257236
0,0231985443065386
0,0267995613209362
0,0261955809177568
0,0512598947907718
-0,018510068395936
0,0719056566198322
0,0561076189487971
0,0668880458429944
0,0682811147238071
0,0508769463920849
0,03270708799525
0,0473271570127011
0,0391205930747185
0,0484808189422643
0,0390014873861476
0,0333140988443235
0,0304509661968172
0,0726338602931344
0,0252810098140051
0,0466934451845193
0,0543440152915444
0,0506998114474893
-0,00858599623560192
0,0910332038138916
0,0339298744359815
0,0376492031032471
0,05093376206874
0,0570209763436514
0,0167189015727617
0,0372190114606865
0,0478073784216727
0,0478489518072655
0,0394419901518851
0,0429113124166823
0,0305126545012139
0,0485248027838619
0,0298365986661312
0,0475968726036336
0,0294330803036992
0,0276096457376074
0,0230660023285117
0,0819371751100852
0,0616196309874916
0,0494330065826032
0,037227595627913
0,015583478675607
0,0373569861165377
0,0720255107751712
0,0238986498808308
0,0492444780025259
0,031869964646283
0,0450068110493215
0,0286331942086837
0,047471735290203
0,0174811111086498
0,0222426163227502
0,0555971495252036
0,0618778107641277
0,0445370209922999
0,0413197575920055
0,0262871447231316
0,0116762344795567
0,0508041536587577
0,0780820880088322
0,0357924400911662
0,0446704723779941
0,0270332080513526
0,0610152417455933
0,0473832674627109
0,0474192778603152
0,036180250128581
0,0436999202084276
0,0295622548738244
0,04756834867381
0,0394314437961761
0,0490819622175729
0,0292997817863473
0,0500387849036111
0,030535634811061
0,0482963666569826
0,0424309776521052
0,052700048869001
0,0385172913068401
0,0559809622327941
0,0247733136782294
0,0476701599680738
0,0522921349160415
0,0511863702762858
0,0420206155949118
0,0502426972878576
0,0363896495632322
0,0489834792975875
0,0398035590616035
0,0560882774478652
0,0281849438216185
0,0389929232929638
0,058900995022869
0,0612709646505172
0,0362905432588984
0,038920103327158
0,0472275803473518
0,0591639167740284
0,0369295441709262
0,0521032128988151
0,0490011370510725
0,0427057975355656
0,0274357051054321
0,0700940166945846
0,0492575586215713
0,0476248841140443
0,0453817874774238
0,0627245336939336
0,0427795431174123
0,0364180621207677
0,00221774160059681
0,101791663809065
0,0550580582626798
0,0287076613243485
0,082202148118686
0,0791388640685689
0,0537536654939896
0,041834595443118
-0,0245682704150895
0,114680954999643
0,0984532817439776
0,0658396808848886
0,0388307750922712
0,0723635221183101
0,0425374337182515
0,0561065223146016
0,0433837843936665
0,068803876481472
0,0615231701880264
0,0761281465139872
0,0781274749529337
0,0496254966856189
0,0519969693146737
0,0875356813385711
0,0540440546664221
0,0666092693000864
0,046448757985356
0,0486087518598825
0,0493497672996428
0,0712057923356922
0,0652427861997359
0,0761877954841096
0,0428043721122497
0,0796830944347312
0,0675944573858899
0,0673192516062332
0,0545482905936766
0,0804455148965684
0,0561714992685322
0,0702275682338363
0,0601281955021238
0,0867619576237995
0,0493538044164913
0,0514195493036414
0,0936552743827741
0,0823132213542957
0,0564581126352533
0,107588907345689
0,0773377734456325
0,0873803615827702
0,0739348069635736
0,0805306492479209
0,071585908410032
0,0848095019578344
0,0650979200705235
0,102278466896331
0,0887687929330673
0,0989860514540777
0,087690865670588
0,0933001335977521
0,0870442634967901
0,103626951045971
0,0877016419535275
0,108486032644675
0,0957524031309944
0,100572927572336
0,0930626948046631
0,137843219107833
0,0796266022276868
0,133042078795591
0,14382969755972
0,13271916407541
0,117153373873841
0,130349327611612
0,122876117631315
0,139342755467607
0,129347548923581
0,13571219967583
0,13482555432419
0,150295794672251
0,148512006729074
0,147182871317135
0,119478645812432
0,199500094787618
0,190905106442611
0,191248748019968
0,165384741202566
0,152642321571113
0,178391444929234
0,203731958443497
0,185521639920306
0,225688594596267
0,193140591160925
0,218633262658604
0,195828993644267
0,217277641008793
0,201033424240654
0,230301853398552
0,216079346806826
0,241044376356752
0,222867808164171
0,254680849820952
0,228369293073682
0,255534083430258
0,27286152815178
0,27668927823836
0,247609105568996
0,281085837199033
0,250867307220462
0,292225776810912
0,284623471144712
0,338946987576436
0,281959145475881
0,305199814664144
0,303613863763078
0,321925427149376
0,312042876952825
0,325001004588408
0,319310791442542
0,340324279415587
0,32421332823674
0,340565796787508
0,331836016956496
0,351941879173346
0,34091029167835
0,367917914782767
0,336410635527213
0,374399902946686
0,383828658573627
0,388106370274352
0,355869457352718
0,381520608660089
0,37803431915701
0,460229437146587
0,416436787485923
0,427395893997916
0,395345449737825
0,417550279170806
0,407405420183279
0,443401465962874
0,405078073895837
0,434370870860161
0,396607777071694
0,472815804579429
0,45520864420608
0,466747114173856
0,433860742766029
0,47096412195046
0,455740736172862
0,477186016156873
0,460438553539583
0,497315300482881
0,456522994900402
0,456273618535178
0,465900340688416
0,509018106714184
0,492408780718352
0,518537258620473
0,502151246580619
0,524028115720428
0,496507047195995
0,520245073876819
0,511459197114359
0,534493285656437
0,513927076937367
0,560888556389218
0,531101706741691
0,574597518700465
0,535478841674688
0,591285878751055
0,547430681003321
0,583901121415388
0,550684880854205
0,574183440201681
0,539349054909413
0,602130562079373
0,627818386167684
0,635337646826628
0,580407731855037
0,66945655786173
0,551986356621052
0,644733105533897
0,605720702722808
0,625982464262733
0,597632684486738
0,650411883340688
0,610631591208312
0,650951073623565
0,624175283593354
0,6564370214392
0,627273447893926
0,698944625041695
0,645646921927053
0,655706044149061
0,675981656404185
0,658432098053164
0,663876082894285
0,716808127877785
0,679620420149549
0,755130315296823
0,678291274908044
0,763630455450841
0,693631805385297
0,747517223148663
0,680411565534913
0,723684445526209
0,697837156722435
0,768924488854952
0,693485686857186
0,794395914802477
0,710902838278012
0,776102696741201
0,743087040285619
0,801213928937486
0,749082649708521
0,854145146943506
0,742146274412679
0,836877028897237
0,7796796620746
0,79791447930138
0,776935837577816
0,801998017527172
0,78380215364606
0,867135641427088
0,833177321063383
0,956446005745422
0,792959277811151
0,864298200846196
0,842849706678295
0,900549366296521
0,801227238183376
0,913331228535973
0,804942915232661
0,896832187734794
0,863942947321305
0,960690060876457
0,814428063404976
0,947479064640066
0,871727798825216
0,961827054191946
0,882241961102321
0,976192278705497
0,885343310911242
0,948627805246756
0,907316586857129
1,00445755489699
0,920467475368849
0,966650687809584
0,925461758153777
1,06236435830453
0,924642875510338
1,03869185969945
0,914205693536378
1,02272057074771
0,962216067781663
1,05121966289093
0,974005889085591
1,06249094613461
0,951576926875737
1,08837698060225
0,95217834750917
1,09393635470321
0,967983648228142
1,03173241421198
0,965434099897978
1,17434693960431
0,939938824982181
1,03640689147096
0,930537235559582
1,14638149536635
1,04669366807357
1,0991103008216
1,0127408464676
1,12101797997234
1,10035530094071
1,34080550100672
1,01549248723616
1,22925660549469
1,03493096837369
1,19120374103253
1,10463473066954
1,17532635537999
1,08138874373268
1,28162416572886
1,19869469971316
1,17119506689267
1,09435008849792
1,192067298861
1,17845819204604
1,26621374974679
1,08110056773131
1,20930716357723
1,12992735062729
1,17331650185124
1,14432519679166
1,32245224101157
1,13507428916095
1,23241167286145
1,10495086881138
1,31932692232797
1,16166004844527
1,28511848665556
1,07611179805159
1,38144642828059
1,09687886732291
1,2936668299882
1,18891217346962
1,29887307303205
1,19444288446478
1,49088054533003
1,19365480700545
1,48392971512153
1,20461796962474
1,31620680520481
1,16248643940946
1,4312646556
1,28772345720521
1,45355342598903
1,30475181211906
1,51622424330498
1,33404351818636
1,4633961018797
1,26490267148168
1,61772873611997
1,46539157092332
1,64526407327026
1,2881396533485
1,63270285792136
1,27013052336254
1,59974035176489
1,40392722350711
1,69291114699864
1,14722770508878
1,61991001460801
1,30601748425124
1,44568015094739
1,22660167911008
1,51673386244734
1,27832733688808
1,55468803682241
1,41818843367122
1,71108925665034
1,323513663641
1,91088904241614
1,35616558928126
1,50923510446405
1,34497792230631
1,6703681230054
1,50253034117448
1,81569678287148
1,44774999618527
1,53730579467157
1,75537731309387
1,83685866804342
1,65667817824936
1,75331790177568
1,42311005947711
1,51055116746037
1,48234898237499
1,85237431957712
1,28541934089275
1,6475780570603
1,59287214162263
2,01744849640014
1,35719661260218
2,54124411270199
1,64857434719054
1,83689468555185
1,54628877317361
2,34502067928499
1,41744148062208
1,92803626289038
1,64609552852765
1,96135913632561
1,35520350192532
1,8861229615341
1,46698688584363
1,72826723389281
1,53599122127368
1,60513944236252
1,52891030763531
2,57267683816339
1,4922408578585
1,78425580565832
1,39803608835179
1,94895214662932
1,48525690995056
2,01811656419182
1,63643470780608
2,01051151699535
1,5957618272332
1,97281990991311
1,68428378555069
2,37969793209203
1,60863726982053
1,99329437206209
1,63065480123705
1,86771701255655
1,65290683938701
2,32027390019437
1,58308993899712
2,61785241945424
1,54305229459763
1,8650949586636
1,61115791551503
2,415406381147
1,91249507164728
1,94265517302274
1,67088917322358
2,12945504539134
1,68822522176818
2,02903097449346
1,57404329769864
2,22613939458732
1,77906629146653
5
1,6151813411594
2,12740647345652
1,68242900533017
1,68432534951307
1,53595951395202
2,11001354705629
1,60151398801795
1,68767647803328
1,72479172008256
1,72972087015327
1,65350232069538
1,86434804879471
1,80260548544361
1,80119402722455
1,65539570238703
1,93142476474127
1,68473155899115
2,13519484492333
1,50033171045828
2,26100809223349
1,96606980348677
1,9908775967778
1,72373521518228
1,73427780686101
1,77311978843781
2,14044880195775
1,65829949385287
2,27213790723068
1,68328673364848
1,76513123237341
1,60252335521186
2,40678946259698
2,07909776084849
2,02024365227026
1,79754867536547
1,93048812923714
1,83023616984032
2,28097897302033
1,56018294188552
1,90338770673904
1,86888870291609
5
1,65452000749112
2,75718582119326
1,47491849383889
1,76729618513392
1,77537970810091
1,68674042059779
1,8016547849778
2,05510761972976
1,68695781720329
2,12659930358581
1,62425250608923
5
1,93565052663401
1,82740215383795
1,6198423911491
1,87072239604388
1,52584660551869
1,9101894107349
1,74197262962069
1,86343526005112
1,5653104601919
1,88903667728329
1,76691656686072
5
1,67605341953319
1,81893540696602
1,96633474850492
1,92197198006478
1,79333258009454
2,45142948687497
1,75416741221387
2,23085119769013
1,56451818211263
2,04315317834708
2,1554292424123
1,97450959123344
1,69931756159003
1,83316258963453
1,48539999996786
1,88297068147384
1,6620031476753
2,57808574370242
1,62616353301953
1,87457836100942
1,72908376393218
5
1,65158874148856
1,71607599649528
1,7714308885344
2,09073856220473
1,9007747298978
2,11585800640109
1,67352863878371
1,78933943424864
1,64966241171868
2,50788128395142
1,65685618552566
1,94701657971615
1,50406326647656
1,94646750142274
1,6207803162447
1,87354162731363
1,62003436305813
2,26700983412587
1,68047762595944
2,17669706351225
1,66281266789195
1,79310855422495
1,62404227635003
1,94280940187746
1,84222260744077
2,02041204677322
1,86835389784817
2,17879833757739
1,71224690173889
2,6048095957847
1,7167661318623
1,76767141127321
1,57675292613062
2,00350025221339
1,62936098519069
1,81002301110165
1,68219706193703
2,21544780304305
1,81833026695809
1,81355024242349
1,65919708997721
1,67726429644057
1,72875433575355
2,67721053999952
1,9266525883206
1,74534548864462
1,63114492623734
1,95814467687285
1,58424363296558
1,87852679198784
1,80302154805556
1,81509890606836
1,53399174971178
2,00032197825018
1,7578923067267
1,73373625807012
1,72295140844975
1,84107789228238
1,62323736609637
1,62826388492945
1,56995354729016
1,75117901082504
1,56427174537222
1,88444908674731
1,74799660222243
1,8532420614946
1,71347579626193
1,70479862550396
1,63864054698698
1,72195621818696
1,79621460697192
1,77574321887994
1,77313904557319
1,6764351114303
1,71363129423006
1,95368722577046
1,55452423269427
1,7010758676917
1,5648063799023
1,81542498856904
1,5596329660006
1,67079471915301
1,90597317565274
1,83438684670164
1,61967965755664
1,81476064122762
1,60778786203379
1,69658755010944
1,55426991448513
1,56204535523004
1,61410137101663
1,61200810687679
1,61649095044777
1,82374184566278
1,47221464816568
1,68833174793022
1,59482849057066
1,63632487346916
1,50775454610274
1,70593280503445
1,44696753910847
1,63946025359789
1,49215636490552
1,75282911726965
1,51812363333084
1,65981352771019
1,43610026760799
1,64398218393199
1,46042686011322
1,55622447620247
1,47307258568164
1,61028181728685
1,58543841695996
1,63692565449806
1,59305970437907
1,55407015215396
1,51434011210238
1,44617539993275
1,40386368615957
1,46092350226923
1,51135423965957
1,41347631864821
1,33329647841216
1,57017606480868
1,3981298351114
1,5333468739529
1,50975955866653
1,4729869159207
1,36733670532328
1,41324327161664
1,27226932715592
1,37343842959232
1,29170767974646
1,52347114363154
1,30454946615239
1,43998249367769
1,32385424388843
1,33251496154769
1,3052897879349
1,32782751015778
1,3434808947215
1,2866777639043
1,23187171694032
1,31633509987238
1,26994415785675
1,33144286742674
1,24876361542518
1,27260485560023
1,23081044420984
1,2935277051934
1,27345067993903
1,33227078252568
1,16943716583904
1,18680868422994
1,23043428998542
1,19916815876348
1,20623662304255
1,28440512063454
1,16802826181715
1,22176308454038
1,16981167030539
1,27976568904296
1,14425660834081
1,17952067426144
1,06627957420322
1,12481156014719
1,07320999465887
1,16240705604017
1,09161118481544
1,12460715111855
1,11038171422727
1,1053750961947
1,09818492402444
1,09438997037661
1,02976780598833
1,08876515464016
1,02257290415052
1,09799646956063
1,03064360383448
1,08418143194084
1,05599550251994
1,01729617658249
0,983152043201724
1,0555015055469
0,988176259513942
0,998074539089776
0,995621926061119
1,00754407478943
0,962937587739115
1,05309964744452
0,999689446108168
1,0114006619616
0,916121056312584
0,981591031148272
0,948046189292878
0,958039053161097
0,913032945740403
0,921291392678886
0,892368384729067
0,936428878764157
0,911669754775465
0,952461968358191
0,885227620208905
0,9373545712355
0,913061537533059
0,870394037804221
0,859637479640111
0,899514102503403
0,872788132768465
0,866315803472666
0,834300103377608
0,851850048312236
0,80999608748028
0,870432182775862
0,82658412295711
0,842814530569242
0,812923603248188
0,852041309081126
0,808460326432792
0,811346696043689
0,794921287152045
0,815265792565194
0,778809215194687
0,791639230904007
0,780796998329703
0,801189492417343
0,762140297043323
0,783247039549953
0,741448527431807
0,778227391255261
0,729680264889682
0,736315308075344
0,723189527971422
0,736085069883082
0,729426605497021
0,736325657033794
0,71654131933765
0,727308830679261
0,697985379492158
0,714760900937201
0,684796792319626
0,689496374948473
0,692446783400297
0,706091116853412
0,666432665085123
0,687474955186982
0,66085053987805
0,687860015659722
0,668520371402696
0,67182413796899
0,648592924653709
0,666180007186958
0,648439355944342
0,648978847920626
0,631379797599012
0,626074864596845
0,613782052157277
0,627944896162149
0,607029258689342
0,615314403382356
0,605691565936457
0,636520397847223
0,600806084122417
0,605658521658675
0,581850248952641
0,593685605719712
0,580791109366507
0,588252206814997
0,574785431706435
0,5801551828943
0,546429597369919
0,571954485142341
0,547170886082275
0,564185108351795
0,557935394232365
0,550767795706819
0,533203570804472
0,544795251749986
0,537187367367711
0,54371258411811
0,517462354706477
0,532960520520552
0,524401958961359
0,535879411937289
0,521295163245845
0,511639025897256
0,496715843396039
0,511987657350091
0,482565572609905
0,497413151248507
0,485413514897135
0,500891573479972
0,484110976682177
0,498040933592664
0,476687865111348
0,47637524801386
0,470000956087958
0,483101103507365
0,456238662724884
0,471885599906641
0,467594605613533
0,463666211321594
0,451563431738849
0,47081213010568
0,439568815562416
0,451679013048155
0,443526917257681
0,450292335280271
0,441842732406845
0,450685282253895
0,422905962965105
0,440770352673911
0,423637189109201
0,443054350261525
0,413939783043106
0,432397106122076
0,421856588400728
0,425310181547868
0,408185644569114
0,42036448253498
0,404859357089611
0,419890595378917
0,399168836280849
0,412355209686976
0,399702843940369
0,414843817055667
0,389569213515654
0,398496750248221
0,394504092188466
0,407277304977053
0,394988059601852
0,398710109995379
0,380827011317428
0,387817034555163
0,378684356097601
0,383114795057125
0,376071164541075
0,387895723300915
0,375329958865556
0,385069674000305
0,373078267842896
0,373916935680086
0,364821174380177
0,377806353957758
0,363144205091623
0,373951692285682
0,3571079642661
0,367839005942565
0,35434044482044
0,361931550882244
0,348425471658276
0,359464105955111
0,352863866034843
0,355458890240647
0,34498184229394
0,360764891333875
0,344610716634574
0,355700957317245
0,34101456282246
0,353865256752494
0,340163183497265
0,347562136470905
0,338377499927419
0,349768842746011
0,3381667711634
0,344442890002223
0,331828999203872
0,341738999735579
0,330481475679939
0,349011420117914
0,339177843195534
0,344408820263845
0,325983252766787
0,335451529082551
0,334844084866691
0,331296042928843
0,330088001206641
0,33453035829106
0,320752560839912
0,329712128341641
0,328651132975205
0,32847186018297
0,321441348165417
0,322830964403378
0,312911228973129
0,311643782577337
0,305908107391416
0,309919760508478
0,30327128451203
0,313514458274966
0,301598894641371
0,306050698700222
0,295392057260213
0,309549777096203
0,298255691019317
0,30486264213763
0,296316804329728
0,30164868154025
0,296381538259177
0,296069465205077
0,288691741588327
0,295618153505216
0,287829612283707
0,291363684333625
0,284313829799187
0,289891799936227
0,278801500190282
0,288541640393566
0,279165898016118
0,284365081407185
0,272112912348117
0,279472121596309
0,273108323022809
0,288127411321387
0,26930552075477
0,28432789717649
0,266529016359285
0,278539131012632
0,267970055519871
0,279411254034481
0,264907771022667
0,27509088106791
0,263614007705373
0,273004347480803
0,26423778671727
0,265765498813566
0,257202714601421
0,266442580633902
0,255908948708682
0,261309292656572
0,255638733149706
0,257755164041415
0,251030940253472
0,262500499078848
0,251204959561924
0,252666422611863
0,246109367120199
0,254972600312204
0,244878130282123
0,248676755974529
0,24442833083465
0,243840454105085
0,232751857418807
0,243848345446672
0,241203122475084
0,240948515596186
0,225539472120795
0,236533148086845
0,231687168583739
0,232599202080402
0,227726132921041
0,229970795553461
0,225361962978125
0,232203131681306
0,219418360558553
0,229051850889817
0,216016911979191
0,221782816569692
0,212006164279049
0,221872473950583
0,212072297217691
0,214126077521884
0,208843319784558
0,209413451580099
0,207099994971802
0,211996561501115
0,202533417322697
0,208255993486697
0,201590659585061
0,202783383824933
0,195310013312857
0,206012237863805
0,197357871868689
0,196719935755688
0,186346367473211
0,193853953476366
0,193493921330864
0,196552333302602
0,185915864721246
0,196701256695586
0,183559102361441
0,191806972935209
0,18429782894899
0,191272267961774
0,179278579949417
0,182413431732021
0,177635000022645
0,183260499112161
0,176216050005141
0,185496606007304
0,168362452254017
0,182018750124342
0,170297250350163
0,179088616545978
0,168373181990937
0,174471268769009
0,172461889178016
0,171981208233767
0,167832933132677
0,176075558602109
0,169644868566397
0,17070765813394
0,162365165641248
0,168265368007519
0,163189752772306
0,168950600139418
0,162688911810318
0,165240514109519
0,15841520241874
0,16715019907288
0,157012803402993
0,16233292918659
0,156167482670289
0,161419751624828
0,149265321935403
0,153891228517211
0,150070744832306
0,153086877784427
0,149747283596386
0,153019587995889
0,146498647781061
0,151171215555196
0,143402297312781
0,154075400513807
0,147279857111789
0,146752266857909
0,143414042979851
0,147272591699516
0,141290487197608
0,148665587213183
0,144042627523645
0,141435279841723
0,139121960580155
0,145507111846015
0,139522877157545
0,140176135478616
0,137908204310838
0,147302224787269
0,13786854161211
0,138976061950902
0,133119261077508
0,140595065940685
0,133966942895408
0,137141042555432
0,132810670372924
0,13634124623488
0,136605909498446
0,140154853357365
0,131620376056616
0,137928455901067
0,13012951554424
0,130574570740222
0,133408611841046
0,136319445739137
0,128466660295039
0,135146206263135
0,128000468187042
0,131358206938863
0,127561126779967
0,132192969745898
0,127978234576942
0,135246963656587
0,122737134850687
0,126577963126106
0,121501469499993
0,127991261486347
0,122893751821197
0,12476782784101
0,123364084082764
0,129472277356498
0,122223108373759
0,127562078063381
0,121531905620108
0,127397813255268
0,119721771195578
0,125270076357425
0,119623412455147
0,121500701473257
0,117028521119919
0,121875400843665
0,111844589866421
0,121013792079393
0,122544726910391
0,126226148413901
0,114921752405549
0,121641975959914
0,112690252653578
0,121259225762943
0,113625214226871
0,122860565146659
0,113165411264339
0,119330196474045
0,115495415050957
0,115221535691975
0,110388372877764
0,119346491369718
0,110602824454754
0,114104475941471
0,109847511616521
0,116624250677815
0,114363287016162
0,118412843490751
0,109383692277667
0,114095885557311
0,11114701407166
0,112908633413831
0,108703340925159
0,111428259943732
0,109110865957515
0,113117932562673
0,106958571344578
0,114103342762522
0,104518976296646
0,109035272073937
0,10718422351357
0,115429598870878
0,105297091090549
0,110807595751892
0,106606584669642
0,111658103012167
0,104830100511833
0,109678927051961
0,109372227697242
0,111568181049274
0,100673112565619
0,10730085263678
0,10269519146979
0,105813576586928
0,101725813327771
0,107098440551292
0,100027595108902
0,106800896720385
0,0989026985831895
0,101980039865284
0,0995144652992102
0,103127409482223
0,0957107033432726
0,102976266569572
0,100079112724823
0,106272196979281
0,0995960537955469
0,102801121840277
0,0976731319586572
0,103256746590956
0,0978871407085982
0,101656550160534
0,0936986871934285
0,0974811587873505
0,0965891533433046
0,0979689139152727
0,092932949724093
0,102970627956783
0,0956252831865734
0,093776260807981
0,0955733831490451
0,0998194810457676
0,0940782715782166
0,0944871724232338
0,0951804385527237
0,0939025710774567
0,0889503122977725
0,0952713713211821
0,0943096137219646
0,0958601294792189
0,0903427752091508
0,0967102504900376
0,0932666363188592
0,095194806578921
0,0890532711333233
0,0957237851296677
0,0939748404961117
0,0943089087076082
0,0890342293743502
0,0936881493278701
0,0905276438378295
0,0920896019916487
0,091074148491477
0,0931596844453209
0,0876577463651903
0,0894490194121689
0,0890658560138533
0,0917260984859055
0,0870145768483187
0,0917467387347131
0,0867453884688825
0,0909411264463992
0,0840989699300245
0,0874606488222952
0,0875299999214702
0,0895809199426374
0,0881083232375643
0,0892161099253051
0,085086032111629
0,0871207636358186
0,0836673662177145
0,084726761269429
0,0853407615784872
0,0882005329285025
0,0834934861541282
0,0850042935639581
0,084894117138513
0,0868020870887502
0,082807463750943
0,0870939202341681
0,0785992963177046
0,0845662915403552
0,0823253850478355
0,0858742080218207
0,0820591632102287
0,087151933271731
0,0794620070424374
0,0841105096129915
0,0828886253303054
0,0828264524377337
0,0764679902317328
0,0804130560233563
0,0792278713587959
0,0851124256481056
0,080333226195525
0,082486015516966
0,0798982137182478
0,0845332842501078
0,0826801789405525
0,0850516267468504
0,0809159439793672
0,0832165359612527
0,0814082797373515
0,0845168975218207
0,0776663632964913
0,0842219623521476
0,0797649370193013
0,0824732086855795
0,0823938686059119
0,0843065048898053
0,0802801693879764
0,0815036024107993
0,0775623685925492
0,0854560582718031
0,078968412978018
0,0813342662625395
0,0775278185199757
0,0818747631401903
0,0809305048037839
0,0833877220084426
0,0759676762203366
0,0831770921805056
0,0792982719171968
0,0817679885341484
0,0784177181363918
0,0835219877477374
0,0821140464488195
0,0793419620379664
0,0788413739219437
0,0830023725521513
0,0779324495990955
0,0802451262176243
0,076446693421192
0,0832640841356639
0,0772172076522716
0,0836306326160454
0,0789472569420253
0,078546655656541
0,0759279966433617
0,0799546837081976
0,0806150343887957
0,0772496936810201
0,0718997928002567
0,0807907501441455
0,0793083401522524
0,0788012068532771
0,0798262723726111
0,0817312357628617
0,0771854334965346
0,0827264108184343
0,0779610200879127
0,0836536220144441
0,0740639149110057
0,0824877461329239
0,0797293045333105
0,0828861071452181
0,077705435784761
0,0791052459848514
0,0788793384715707
0,0830979661481064
0,0797025699897087
0,0807557704576351
0,0772627436005031
0,0798112864962749
0,0786103365972678
0,0832933677119276
0,0781871403949404
0,0783809361125807
0,0765866715751212
0,0825001276430789
0,0821399446984518
0,081483788409157
0,0803823439221386
0,0851115402119415
0,0796866521291751
0,0811526615651373
0,0791049581865692
0,0831568972730458
0,078076292618923
0,0845763208345932
0,0789661026628601
0,0791802676678746
0,0761574348790741
0,0815602509722918
0,0754340250563816
0,080557237230785
0,0773500898303752
0,0837198027751663
0,0793950803507065
0,0813506971754853
0,0786003192211531
0,0811165262982918
0,0758739016046193
0,0793791512404098
0,0784829459356537
0,0858312682444514
0,0790815320354253
0,0819457069955458
0,0781368061987269
0,0783521967516804
0,076457734867122
0,0801846958464768
0,0756526278442466
0,0828960099216579
0,0793369970625158
0,0789396430828353
0,0755852841033389
0,0830583143442969
0,077622310708358
0,0809915748432178
0,0814624619093808
0,0823202190931108
0,0770238385047731
0,0825972541277645
0,0834288005609006
0,0846269022439379
0,0830841094122331
0,0829010745591971
0,0764665658118964
0,0812123352916517
0,0804934205255646
0,083562054064397
0,0804678512049933
0,0837360473261714
0,0812629636893342
0,083128922940872
0,0803333777705314
0,0860974696048538
0,0766017416542013
0,084581847793339
0,0799094839673302
0,0827532635434298
0,0827961816911859
0,0828841188597554
0,0801949475652027
0,0864532027009792
0,0772625378731906
0,084792814784596
0,0822361835304927
0,0831379913151735
0,0821261218628879
0,0851401559758154
0,0820196303232402
0,0840504065818039
0,0808688547467057
0,0849596016508199
0,0817009836385356
0,0845853333627249
0,0823464377347991
0,0846366448215037
0,0836832978216391
0,0824651552134638
0,0821037203683359
0,0852741407624582
0,0802494952029608
0,0844130563267348
0,0804532059775707
0,0845493714094542
0,0802348367591478
0,0840558428636226
0,0793347805541523
0,0851562857975217
0,0841473142190976
0,083238689507359
0,0823007082726666
0,0881172900403179
0,0843752432034092
0,0840313212514243
0,0829304857089788
0,0842486753958494
0,0806472628336185
0,0858067064800855
0,0833700522700219
0,0853192478116894
0,0812854065837855
0,0861064512744904
0,0830125102825665
0,0855021742101737
0,0838150684252696
0,0847773270139552
0,0842543920314215
0,086907756360388
0,0827440829183385
0,0884454576041942
0,0831201393993003
0,0866810807199597
0,0827644658855285
0,0887406053388708
0,0858432588010981
0,0854141804996313
0,0839368596791718
0,0886971450884982
0,0866650980087648
0,0895056751999996
0,0873530984867822
0,0890300354597393
0,0853759800096941
0,0871484756073652
0,0859420622291645
0,0872984584677348
0,0852448627678515
0,0881448345147975
0,0864214204689297
0,0902900149641298
0,0863802420336583
0,0887089488549179
0,0850730883440475
0,0896710923113519
0,0893832748844113
0,0900006535926631
0,0828240676123112
0,0896865524923381
0,0840790922324156
0,0870750692864363
0,0892693981957685
0,0896677101180427
0,0867263671430785
0,0898654528148719
0,0894515469537025
0,0909154349865219
0,0889261251330547
0,0886650860026966
0,084849922634632
0,0911726988025658
0,0860158490269738
0,0900219587013615
0,0894305927071736
0,0898955594334982
0,0895796157152216
0,0919343577212487
0,0888129507620793
0,0927981180218853
0,0898961051987492
0,0897245625307734
0,0895713967304498
0,0925265369081451
0,0893764540078555
0,0914494620764106
0,0931905430972677
0,092582471589308
0,0902323028150852
0,0921710582691083
0,0901764394335528
0,0921578324996088
0,0913054111941364
0,0972002832236657
0,0922798185368251
0,0909997828266546
0,0916487190550487
0,0974760375150233
0,09673290963756
0,0952008764891288
0,0955260788896746
0,0973917656827997
0,0973982535816904
0,102957410144378
0,0961160838962859
0,0977024768073295
0,0915295070590225
0,0903196505152522
0,0920975990694397
0,0978770385766804
0,0931367740929838
0,0942062337441492
0,0864319273104846
0,0973769783738751
0,0909480129102595
0,096375524806713
0,101333494659619
0,101401979237776
0,0938460671890015
0,101229087968161
0,0969171796547446
0,0979606053203179
0,0962362128606786
0,100039610867957
0,0918387831875788
0,0995824560926547
0,102351638309496
0,0997868023976603
0,0947233111104235
0,0994608519752858
0,0972785255014337
0,0991212899551424
0,0990235462651495
0,09692728762053
0,0977133457172302
0,0954395343722336
0,0993263733074765
0,0966173268410345
0,106521785877911
0,101403881167716
0,109588172394652
0,0943412931445586
0,112341884712975
0,0869650099127217
0,106982961962629
0,0833397402458956
0,119014383885376
0,0937147390567176
0,121758954039482
0,0828389037277222
0,117823182603684
0,0747492299318605
0,13146930612204
0,0810168756769717
0,122679827551416
0,072333338914408
0,134578217756794
0,0887880161043562
0,120889832009772
0,0767837048882421
0,129188616383473
0,0948581380015054
0,118556746555594
0,100697610318685
0,112377007193388
0,107456995992492
0,0989411078248826
0,115754456027473
0,0930635646110463
0,119029642708511
0,096467983199933
0,118551734166904
0,0965817050401146
0,116894813424551
0,10564972129175
0,111413660304501
0,10934869646259
0,111031733475011
0,109560258404523
0,108469526559327
0,109553384418419
0,113095740282367
0,109665757156787
0,11228909509026
0,107990441700602
0,114655849743466
0,109122289902527
0,113329301959252
0,108043155110837
0,11082469134974
0,109285186498137
0,111297364225067
0,112459178520984
0,115527213221973
0,109635513378649
0,113778159442543
0,109171298143816
0,117915818243289
0,112501674396757
0,113883738826928
0,109532499440206
0,114968007907922
0,111838442030368
0,117105993461149
0,112744546704848
0,118237073245397
0,113497159190682
0,118660280977581
0,112016896701123
0,1185429825755
0,115788138335238
0,119258136242356
0,115386233207423
0,11985901324178
0,119276768299819
0,119089404199004
0,115960612955025
0,122225462876159
0,118680687973171
0,119321672644529
0,118478007115166
0,120937251350575
0,117193803931086
0,123807836375485
0,121180551664574
0,12414578592466
0,12316951894809
0,123137077071378
0,121669763349326
0,124877526551247
0,121361350420316
0,126572343608546
0,123932364271694
0,126909765319003
0,123326290196134
0,127556625037535
0,122415438603641
0,125762208298797
0,122876054233966
0,127903119113609
0,121901250154007
0,125386615298689
0,125849701837223
0,127755875041685
0,126267951570784
0,128301784211163
0,127155376110964
0,129092686123852
0,126938415145066
0,128367870965281
0,12349556289379
0,1306961737457
0,127851873990595
0,128547776180138
0,125711501290469
0,132190224934826
0,131805502250624
0,1308655887645
0,128457045497746
0,136020449903913
0,128420700402686
0,130030748662433
0,130164711030257
0,132261153205948
0,129891558042904
0,135331148402115
0,131033740926912
0,136866052310483
0,13324142235312
0,136508007393418
0,134833706953679
0,134645040030434
0,135101368934667
0,139463241699313
0,136271932603235
0,137756071873228
0,135846956416938
0,140491827216113
0,137092984847899
0,137137238617063
0,13776552476473
0,140379919673836
0,136964481828709
0,140425875759866
0,136916967267581
0,143174368195235
0,136391711245555
0,142333389839395
0,142252731685412
0,1423182535582
0,138720271152669
0,144298998003908
0,139331516290838
0,143085749843662
0,139479295210615
0,143667706586262
0,143855717775687
0,146998969305192
0,143576344526245
0,144677341476192
0,142828683546949
0,145795960188701
0,144288149053153
0,144252442782126
0,141165683620363
0,149093038678824
0,145258126762522
0,144928191240056
0,147054252561807
0,145608855714602
0,143738957823116
0,148506805708859
0,147487168623533
0,145718727563684
0,1448297726862
0,149908857640997
0,14403561839431
0,148877010402935
0,149948370314301
0,149318425579166
0,147994449553382
0,151899144119687
0,146990134019956
0,149480487918051
0,146964652045321
0,151924264842125
0,148670447520469
0,151376638389197
0,15029788635256
0,15276105533638
0,150060906270954
0,154406260484149
0,150844826266868
0,153181391932361
0,152966004182636
0,154580072048822
0,151237651534253
0,150234415643274
0,14786333758946
0,154571356682543
0,155174648093234
0,156501041508696
0,151239018760604
0,155166667942323
0,153178544800407
0,155754548433465
0,154013841878571
0,155184066688425
0,154011121433369
0,156539596649161
0,153782305787592
0,156990042149065
0,153521842604008
0,156251437454112
0,155403160613106
0,155217024090236
0,151039905181047
0,152364454888517
0,152404288623562
0,158008335751146
0,153554745805421
0,156539757794792
0,15371632138847
0,156359744593994
0,152065860894966
0,157865003839309
0,153651358249743
0,156455604414995
0,153687051241849
0,154715076723687
0,154244513007912
0,15557446834778
0,156400080726987
0,157281740243621
0,155182706938729
0,15837667383758
0,155260096135822
0,156026347861119
0,153186194974956
0,157391553851775
0,150811264284695
0,154150827961741
0,153671591461827
0,15459293559068
0,152451848577559
0,156052486570979
0,153751119745977
0,155357208180615
0,15447076221079
0,159048292212786
0,154921501623536
0,155356047714365
0,154775966464115
0,156541996184833
0,153792734000228
0,156012231982886
0,153542897180012
0,159415029787493
0,153752943694382
0,155838894490799
0,154945193049324
0,153348478802615
0,150138842882971
0,152154028829118
0,150372684572371
0,156550331849403
0,153784262956717
0,152764613680429
0,153015788720973
0,153196984545865
0,151827841325586
0,155810490447627
0,148009198332771
0,152632991283911
0,14839215397773
0,15187282617273
0,151334705298343
0,15308423161444
0,148854576666958
0,15090364561896
0,148293304765202
0,151519537196131
0,151534413373532
0,149475252255438
0,145655575777045
0,147329380277329
0,148432770336487
0,153112189019815
0,145782689238939
0,147699982523782
0,144732491191821
0,147887955718284
0,147355005372599
0,148195497033795
0,146410862194574
0,146162563843194
0,145206124746006
0,146047294852889
0,145935296927073
0,144934188152249
0,144392965566117
0,142902508372619
0,14219020129496
0,146913835655597
0,145056981812348
0,144478835656933
0,142929264376968
0,146592412039092
0,1439157339135
0,144951333333454
0,143263557146057
0,143505549705974
0,13803024836996
0,144463279677178
0,142488863840566
0,141532648644177
0,140174855995032
0,143543383354874
0,139805966563245
0,144337418134661
0,139913040478033
0,141164428701931
0,138012944578534
0,142396056399492
0,138937815502852
0,138875558233008
0,135572399888062
0,140435841297237
0,135414470442897
0,136306865652437
0,135369270452429
0,136774993208414
0,134457027347242
0,13548333165675
0,133659464643731
0,136199328649387
0,134237816887139
0,134908509621322
0,130971716930129
0,136311530031499
0,132590609546039
0,131692799037987
0,127626917079275
0,132525981199472
0,128384441883662
0,13495550041124
0,127510121652921
0,133237049230667
0,130334140161451
0,13391233130237
0,127515897071485
0,127424150365162
0,126550608951665
0,128542713347298
0,126898236324749
0,130410515812583
0,124435454659838
0,128341518043808
0,123000890105096
0,127344825241122
0,122750033464699
0,126314425818889
0,123050784355742
0,125406685106912
0,125265970228319
0,124182690493195
0,12030300248022
0,125737039824793
0,119713664851369
0,124908432265527
0,11960769822944
0,12779666070569
0,125181555349282
0,118739286260406
0,122647741196653
0,121149116097032
0,120698088633684
0,121317101895041
0,119903097297246
0,119663256429648
0,120449516095897
0,11921595920279
0,117315629178288
0,1181074977678
0,116780253785771
0,118236071634326
0,116059536262915
0,121741664958149
0,118191206438759
0,116875145946229
0,11283847169319
0,116261371318911
0,112689542511682
0,114422355535171
0,115495626103564
0,114118132542233
0,112735966994453
0,114132616535166
0,116412551292896
0,115746999687644
0,115468386919953
0,112524476852009
0,113004623114529
0,110503503454031
0,111521599215039
0,112326274987398
0,111422710512803
0,10996283029499
0,112183942064424
0,112727132635283
0,110392456700409
0,112525569940117
0,106055935736746
0,109364329777781
0,111088081923791
0,108976128090254
0,110259838034156
0,108962182206096
0,107482413369687
0,108331276697592
0,105528324300266
0,107275282228023
0,10584979804404
0,106439479440933
0,110048858074996
0,113548856815952
0,105194272537524
0,108970115608918
0,102158124659025
0,109339467744124
0,103174759074617
0,106430281051427
0,103323862826699
0,1084796802729
0,104089048655706
0,108118059328235
0,104962659333073
0,10553321949454
0,101545208575821
0,106046897782236
0,101161623104475
0,108553934438141
0,102160460859372
0,106930664896575
0,10094980431767
0,107940139367358
0,105925403076178
0,104237758447347
0,0977407051762893
0,105095673043067
0,0940161860231244
0,118290386420568
0,0962048016994663
0,106960693158229
0,099892642056438
0,104014133970586
0,0992434067209049
0,104513191410223
0,0992729301262511
0,103934409582635
0,0998207354947448
0,103137040826961
0,104378153708055
0,102142049665618
0,102259763017908
0,101648829269389
0,0992935103186789
0,10343158769947
0,100356261158812
0,103111698820107
0,0992069087900931
0,103794434055265
0,0979223650008136
0,100915522527406
0,0978426617337454
0,10427572392562
0,100135057634039
0,10222390197723
0,0966870593808256
0,0998637076810199
0,0958444416045202
0,105923947357194
0,104175166398955
0,0963813974899064
0,102711586648724
0,0964139157505644
0,0999214180619249
0,0979861344001007
0,0991308267958213
0,0982669061767815
0,0993755750123794
0,0986680398275067
0,100552902932502
0,0988669825622913
0,100624828439391
0,0980704673107616
0,0988179885056848
0,0990459953765537
0,0977090196279191
0,102459881506353
0,0986516606544154
0,103137772341337
0,0958020339618953
0,112746290141589
0,100064597462048
0,106445556133283
0,103110707708992
0,100526765075175
0,0988275700533143
0,0992441324331635
0,101093372318087
0,101820554169247
0,0983446880554158
0,0960140587335983
0,100684120009742
0,0973503018180512
0,0982855880787874
0,0985520692287729
0,100859556349034
0,0976645404538067
0,101153094114404
0,0970598774377653
0,102797216399977
0,0929809971491727
0,104327342601912
0,0947791222805791
0,108471220588372
0,0895789475521845
0,104983990999388
0,0882585192901346
0,120492097517467
0,103280583389319
0,102928689215537
0,106542881199061
0,0997756595652735
0,102933046981961
0,0989547083496699
0,103606123537648
0,100000637349149
0,100486669009405
0,0992898011260765
0,103560470375032
0,10091762983109
0,102507432702306
0,0968931509784443
0,110557381146328
0,114012843834815
0,101420961182672
0,101555182099658
0,100649486489302
0,107057121125449
0,114943402062241
0,0996806130725782
0,109785633642399
0,104496456140157
0,111397505961332
0,101385606666523
0,107590631703106
0,105531367186016
0,110543962448533
0,105500728721911
0,104760096126523
0,107315286420111
0,104017360928098
0,105001609765753
0,108470141822805
0,110545811490844
0,111335942331752
0,105647511432873
0,1140021681779
0,107903353030329
0,108782815499731
0,106265606333923
0,112889771396347
0,110065635710529
0,117473797774039
0,115722556039658
0,113868617274957
0,121321127640403
0,118202080907271
0,109191180724795
0,120464199485384
0,107104999158339
0,116896901563125
0,104986340578852
0,124659937641802
0,128004805811318
0,116396138068688
0,131839413367035
0,107504326852979
0,125340376836053
0,106928155109288
0,121006560640512
0,105602672958064
0,135963463528285
0,105484705047366
0,129524045368466
0,110998898212773
0,131629759804904
0,123813006550715
0,126144919640954
0,123016030167411
0,124724108972405
0,124680081058651
0,134518186612928
0,124249743627078
0,118803086814162
0,150876263703157
0,129061907104282
0,137812970626673
0,130920322907966
0,134630723587268
0,152002707397204
0,128731794129285
0,14149738603589
0,13176724979962
0,139042132028409
0,132750977076213
0,148265316826581
0,151953593478386
0,137632843614181
0,143527582824207
0,145353352510733
0,138174559152071
0,166553093878586
0,14488158738788
0,156051987477838
0,142362105942852
0,15668970697786
0,130729632134085
0,185378102001487
0,149489465246889
0,171515793745426
0,170157742946916
0,164007016280564
0,167894719917395
0,162080881819661
0,167539472473661
0,17407445984616
0,176026741422771
0,168970828038852
0,170356555875219
0,185149166428457
0,189606318144049
0,174320062186302
0,192288755525822
0,167781298658886
0,177611214743896
0,214640584410204
0,213434356991448
0,197517202829238
0,200864522835288
0,20069227496668
0,21718413294633
0,202222610435177
0,21191336265527
0,213183620296491
0,212003003666586
0,218070916388398
0,221599893577435
0,233143804127366
0,227681897074387
0,231226167818188
0,232050352454598
0,238135180262657
0,264156799594589
0,255126634254818
0,267999867894414
0,242066492302269
0,288698503620422
0,265786701406439
0,277998159697277
0,268427607254144
0,280434958808914
0,283205890128597
0,292217671258074
0,295953649750404
0,301742534444117
0,316139951137824
0,313757963632033
0,32770945109371
0,335998443765305
0,309653075946203
0,344918147973159
0,330665101358524
0,414329430618398
0,33440211753103
0,373403097429455
0,336056768047334
0,42591428884501
0,403515235093196
0,390664889887547
0,394066762923669
0,405708329919917
0,406915412756336
0,430861963806802
0,426540454263618
0,444395198285476
0,438732567717643
0,451757066070586
0,428537282046785
0,520843773293504
0,514382385181876
0,509479133579368
0,491208467379098
0,50783499681075
0,520841179974216
0,522285285050931
0,520120088861484
0,535471489180536
0,506555135270939
0,580548070396277
0,592313430000104
0,554860819897824
0,598067186115781
0,582881424625186
0,624590559522177
0,607213387487239
0,683213290771048
0,62256326188107
0,638784997515653
0,643946075973347
0,661282882751919
0,663219786215111
0,682524345663501
0,707103537613975
0,687516824957396
0,697869965689467
0,696781542239714
0,70640304088806
0,718986575704941
0,721770926717927
0,745627668533688
0,738534159280749
0,801080007479047
0,812793115087911
0,829172480480007
0,767593309869535
0,768279172132797
0,774469910742906
0,804769292814486
0,823913589179962
0,786260386438142
0,826506269758386
0,797764766579997
0,818022423309099
0,819874291107257
0,825072871610465
0,840828447653522
0,830563567485163
0,829199673617534
0,819259389482083
0,848164433164424
0,777669320965061
0,882781676830037
0,822324796070215
0,826819827996712
0,837547991670521
0,824211472729469
0,822109921850243
0,806872370287753
0,78937070856666
0,80888005349939
0,819019217916411
0,777199241666136
0,787890675649195
0,796600316093591
0,823614092775203
0,749376617315212
0,746916318612008
0,751293986957862
0,736939732623137
0,726633049557191
0,691376319258806
0,7648513403413
0,731637138729895
0,693457620868125
0,702001810761855
0,674138757944268
0,674975690207237
0,653949387325635
0,656421659121518
0,650025482590065
0,622164115339553
0,614058761725679
0,622080195816342
0,602038836637815
0,614498971373619
0,594159109082081
0,586308300412999
0,573162922444645
0,568947880460586
0,556433145931172
0,555564087004453
0,538929095768871
0,533973214801932
0,533349886510554
0,527331869777191
0,51466436986379
0,511334900442603
0,50209909064525
0,511990840614546
0,492699154160216
0,492809103706448
0,485628250524916
0,48665709361842
0,477695168897385
0,475927620376822
0,461128231375338
0,474015792103243
0,466076499821306
0,455817128957164
0,452406067876394
0,449869844186191
0,442951526826348
0,428549844388651
0,442590167948098
0,441063625651448
0,466216272973213
0,426795955049508
0,421554923734373
0,426845292193017
0,411210860335466
0,414985001541232
0,403088276633286
0,447741844781755
0,413699511171948
0,408042223726327
0,399493576614491
0,407069116327966
0,409582642897293
0,40741691069866
0,383534055970504
0,39333319454198
0,342619195978129
0,459274391504577
0,368606124180614
0,435255225303072
0,397307329162839
0,377770102246271
0,372119883393009
0,39230231442789
0,388775349147439
0,35687129551047
0,38624460560245
0,359849606478716
0,380133611613553
0,358938058455425
0,358808572815246
0,358757481151056
0,352024307230289
0,372220454285126
0,36174897991489
0,346847574762778
0,38052328494922
0,364350882943259
0,338280105868056
0,395190611273144
0,361761557370456
0,351488562663123
0,335248292164045
0,337569275103979
0,33716667714236
0,341709938858136
0,353088077274515
0,331972335475063
0,344634821055157
0,328687366015487
0,326212351845182
0,336465437759237
0,324135333920537
0,329857373163812
0,316798542786079
0,342001971563067
0,292662794484049
0,351637664376172
0,309523029916953
0,358292750698239
0,321487239102814
0,318191009850926
0,307243758295929
0,337292142218652
0,329612101979472
0,31664311125543
0,316606194871265
0,310360659225484
0,314515765800164
0,321517927664004
0,292130684397985
0,30685453951618
0,307756921327382
0,305942912873517
0,326655445292955
0,32797489300459
0,311976428751338
0,294868919366813
0,292503191714559
0,317741760947679
0,286790539873187
0,302223535983998
0,273868089193468
0,309277365956172
0,289103394558606
0,299817048238439
0,309937089606943
0,287722899817184
0,294141112882466
0,293518725951511
0,28629456884972
0,30869385827674
0,305267439539248
0,305529826208587
0,28785150491876
0,30006399014829
0,299701083077259
0,285355136324615
0,293878109301568
0,288979951941761
0,298354628253479
0,292437021454177
0,300098955764175
0,296784183375945
0,295363391429295
0,300087988277473
0,298579137741323
0,299190215247851
0,315680983078327
0,276903725159329
0,341431290721583
0,303184184548932
0,336498353193055
0,309934637475585
0,309370664475595
0,315057787546768
0,311109866326237
0,314892416108229
0,316177061081285
0,320985556880184
0,334475421043616
0,310067504974162
0,332971586678273
0,313747411069515
0,33080705761394
0,309182618199317
0,352132056203705
0,30760744822606
0,363820372327382
0,331499555084463
0,323921959678535
0,326398470729194
0,322807131975011
0,333173646847238
0,320770512436362
0,323180185309424
0,319697939261463
0,332479326826652
0,339943273510342
0,321678657664186
0,328589491661476
0,319849149365016
0,328678471409355
0,325378200641306
0,323141813248293
0,326494094623021
0,329939147620656
0,320348058818067
0,327840347478944
0,329153867555863
0,356993883405732
0,320403841561023
0,338095737345268
0,327085699841153
0,336245673804178
0,327630287218215
0,329099812720548
0,342793381577523
0,336120742936251
0,334302027207714
0,338735860495422
0,330195819411903
0,347116623600388
0,335214021783533
0,352532534395381
0,320241825269946
0,34416818418545
0,314758067863292
0,369758615926631
0,348619864225665
0,34383978445057
0,35002323358798
0,333043720912342
0,341031332135615
0,33213192634708
0,339918226909733
0,338614317156704
0,340812545872239
0,335485494531974
0,342750269285967
0,335876659114349
0,3324232700279
0,33953620527263
0,34032378862149
0,342037591998046
0,334679392021338
0,341523737837728
0,331310634811439
0,335964464452457
0,333262642681135
0,354638429749628
0,336014462404779
0,329861558613279
0,332600269581548
0,341548583728576
0,342580375812248
0,332623410807679
0,330047012958371
0,337054085694628
0,32863136750818
0,334814347709
0,327114279933765
0,339458104404576
0,345512629939489
0,334437649408768
0,341510529658441
0,3324299332761
0,338160395875614
0,333413555694672
0,347065496006864
0,341897568024387
0,345153356329925
0,344123030776468
0,34625961635056
0,340938312818627
0,345615136069933
0,345371909280159
0,348598630666419
0,345243426005035
0,340175697242681
0,338960795755881
0,341887544859202
0,345774058756392
0,34728371653485
0,336456953911559
0,341831758134273
0,333550611713466
0,345285557653608
0,332846935102229
0,34759077062429
0,325762492216374
0,341220240006654
0,328302015151377
0,331792511914264
0,32955172082601
0,333074497776454
0,329211623830306
0,330643042708956
0,329895555762017
0,32607486639963
0,327969560392896
0,326496907609315
0,32273896338047
0,324988925574068
0,325164463573022
0,327505876469211
0,323226627572498
0,325032872532403
0,323822144203514
0,329594837418903
0,319759773471829
0,323306400128812
0,31905798612498
0,331313812574435
0,320773785128435
0,324363229237378
0,326568019651229
0,326093580068916
0,320926196040003
0,318729932980115
0,321222599062609
0,319721000901174
0,321289023528824
0,317409021666701
0,321366298953713
0,315416886221396
0,316959511289913
0,317623648608858
0,317015234485171
0,313142238331884
0,324155881861703
0,316660118581392
0,31459487930009
0,313977240744648
0,321063916391392
0,320309946160154
0,317177409707418
0,316566557629129
0,315560247804472
0,320471707657475
0,318697320529705
0,31912655145485
0,314014666198113
0,315393442293032
0,312743121266009
0,31400134877897
0,314118413349942
0,314629083526777
0,308768061307874
0,313486361699731
0,31308580000708
0,310397660292694
0,31061224516382
0,30909053825671
0,309626524256719
0,306950118696107
0,310265704534143
0,306754764148264
0,309517760508533
0,310160952127183
0,307580264272235
0,307855667813616
0,306003250713821
0,298946450019431
0,301103610839634
0,299469345464554
0,299074132111472
0,301011470511254
0,301560903979363
0,302864266886425
0,301099359365029
0,301923412740445
0,298266107145343
0,299839338457776
0,300875864677347
0,304651753264499
0,301209364490111
0,301818318562647
0,299393345380105
0,297824170727304
0,303074457103924
0,303237743553966
0,302692041842676
0,305516293133128
0,300989465501206
0,302815182572494
0,302418566461292
0,3063642514
0,300769806937492
0,305068156007768
0,303179392926013
0,305546544714997
0,306893075928854
0,307936710713946
0,302432757321113
0,303401725665192
0,305960951557805
0,309955029683836
0,306839173635274
0,307798381784743
0,306141333105832
0,305007856209826
0,307650897265969
0,303945906942669
0,304489156018261
0,304940317201826
0,304692862155035
0,303813623864377
0,303924848090246
0,304898039693886
0,300885148944956
0,303530578908385
0,304910362164482
0,304328309728951
0,305754797477778
0,302080091606763
0,304521429146232
0,30301636458986
0,298687295697902
0,300487754496249
0,297831534344763
0,299772962661739
0,300284618610396
0,297839686852723
0,29682079887318
0,295017944095879
0,298615656106306
0,296268127478356
0,297095828697839
0,296007621089943
0,292228069070604
0,293316793589236
0,295424988102987
0,294359879273673
0,293794592874593
0,296548918384773
0,293316706856023
0,294343811379315
0,291722803274774
0,293953619348038
0,29204516758781
0,291461058118983
0,28880141560675
0,288481963567217
0,288942491143187
0,288462466911232
0,288269098177425
0,287611967133912
0,283841178908003
0,285774249976587
0,28608117499111
0,28560188024438
0,283550500340176
0,284087809745711
0,281771059056193
0,284404837069159
0,284338996782658
0,280735517821764
0,282965645131828
0,283504091676065
0,280863668319616
0,282496804783521
0,28196541040908
0,283610096136312
0,281470716795059
0,279120227312149
0,278404033224292
0,279479648564784
0,275800573573716
0,277498673621636
0,273828237799031
0,277650172655435
0,276278434232167
0,274496742413317
0,273763536589292
0,272564712760401
0,2725097212107
0,272646279103927
0,273393641894695
0,275511455267986
0,271841746016122
0,274874280348787
0,277885655816389
0,276736723100548
0,277861865606639
0,280210998427603
0,28239092961953
0,285073805408736
0,289027003357891
0,291382946031492
0,294603033658297
0,30164656571146
0,304035150875927
0,305203119541238
0,31233973906256
0,316423713263038
0,320663154266703
0,326861771944659
0,329659723317802
0,337413421002249
0,342497254158733
0,350726797868643
0,353945489739794
0,360336110152866
0,364784239099198
0,372218538663738
0,377979051875539
0,382012997199092
0,384414294932589
0,387139694084429
0,389783148448857
0,394174038859879
0,396099695211068
0,393987932094442
0,393596404824724
0,398291925073497
0,397509543855561
0,394882887232321
0,394429342638309
0,39217038011312
0,394620652360269
0,387004458119769
0,386175965721676
0,382749249859393
0,383310010449382
0,382539702655219
0,381434596461319
0,380000443915935
0,380341703601522
0,378601885761219
0,379205951987005
0,379759082126249
0,381626158836975
0,379524634205098
0,382028126624445
0,385323693605998
0,384824998672616
0,387897807975985
0,390222114910496
0,391513736253159
0,396648176203603
0,402284111318745
0,406845616386998
0,41134992881475
0,414647318593338
0,419434768131527
0,422317601817676
0,425546200917504
0,426122108195915
0,430003760284514
0,433108973539191
0,434269527931396
0,434246822042684
0,433022538063627
0,432423472991667
0,432206416954473
0,432159673530117
0,427986004270729
0,427920065957095
0,429038126604967
0,431259991889672
0,430158670666751
0,425540305359346
0,428159349377809
0,431192462792174
0,434426669312549
0,439536130857859
0,444052399954583
0,443386216870733
0,449370685457475
0,449336191274704
0,454245426880426
0,459009215755691
0,465291751119298
0,461459908225766
0,470173666899436
0,471398468612788
0,475870129141747
0,477560514115046
0,481345904720485
0,489183145493237
0,491207906635822
0,497392589004736
0,508662427902718
0,514453828024839
0,519554021118928
0,531933057240857
0,537431422700908
0,543826315386591
0,555501478660505
0,56177948150909
0,569570724680969
0,573151772407105
0,580477972574861
0,585955694551264
0,593513713610927
0,592000231050127
0,587533048903443
0,590336940324951
0,594321522317611
0,585676564145372
0,586006142070162
0,583780622037242
0,581883779943838
0,571004288578747
0,57036397085981
0,568547628906486
0,560484708357278
0,553521540693006
0,554049637487104
0,551534867288345
0,546622949057835
0,553462720035064
0,548360795114537
0,547124454412798
0,554103844574871
0,556299307503712
0,560004635978929
0,560448640137416
0,56040626578866
0,568905915127398
0,569024888383812
0,576359146365318
0,584459631826206
0,580967805285002
0,587976508004273
0,591501420301353
0,599080766941172
0,604716931184159
0,603743608554779
0,605113887343374
0,613066293316419
0,612639513661416
0,62327353045519
0,623665737147813
0,625749243438463
0,626467707898764
0,622803047974471
0,62618493980357
0,627552994085771
0,626618005860369
0,624767347771404
0,623561838247166
0,63326117133585
0,619257139629879
0,62577993485242
0,622617915501266
0,623084166514471
0,625325395580457
0,626324446177476
0,620401561481156
0,62392360939823
0,617308153418475
0,62003008678995
0,60999059927823
0,608629442060285
0,600338641995967
0,599947348638241
0,588702466313021
0,575757953630524
0,564915768898275
0,559588079414313
0,541671961639155
0,5360421820191
0,523104238907327
0,508749689986428
0,494906432236614
0,491014464398559
0,475689603248877
0,474733292367802
0,464457064602097
0,460682470421689
0,455438071070685
0,455032109682816
0,448276304952999
0,445175953338561
0,445734519203838
0,447424138825822
0,450745814252077
0,450505933336931
0,442724290877517
0,44608504443732
0,4453538508116
0,441226642325784
0,43918187868701
0,435575620234872
0,424777914373361
0,421893912412176
0,421797879958886
0,419710866761015
0,417853714810834
0,412618233401239
0,410176929172367
0,40681519975264
0,396376246468113
0,392577333291757
0,388526331599611
0,389808345170806
0,378954331481556
0,380239368541699
0,374365460336047
0,376547669880133
0,368476971668815
0,367076979394649
0,365674558562552
0,357269717369547
0,352196605031133
0,355680805744767
0,356152102055679
0,359068521144901
0,349889316564698
0,354930677035942
0,35434404185803
0,355931522869193
0,352833771139107
0,345102641536437
0,354640109839706
0,353394577295874
0,346193152566818
0,347962039533318
0,356699632133708
0,360855868953291
0,35812216785368
0,36016163812428
0,358701717388717
0,362370609002598
0,364936647854695
0,365776579398271
0,366981003330504
0,366161869918801
0,368435077661443
0,372613516901448
0,372419501767625
0,378325202573128
0,375655542073018
0,377827633048521
0,377633149677368
0,386909100594831
0,382274649073756
0,381940282125915
0,38670370736833
0,386266466974738
0,391308217021234
0,388602169188664
0,397436422806613
0,403119581201805
0,399196140832137
0,400387573965323
0,401818771973678
0,399716445477136
0,406897484546951
0,412023182841437
0,402703031179675
0,411992199959267
0,419215629219278
0,417876970908987
0,417596548708672
0,418526790042037
0,418736069826775
0,430630537587444
0,427983640699638
0,434929551863832
0,430039906213505
0,436915072505163
0,429155169307829
0,439308363502055
0,451657676729526
0,449686919623169
0,447618429256622
0,451740635038166
0,445358863931949
0,453806175435767
0,455846674012587
0,466543006492035
0,456586034079751
0,463884871905846
0,456061066491639
0,472593147712445
0,472568793467095
0,47928558944665
0,479277900435176
0,483227177593322
0,485989855364855
0,493220672476233
0,49434150361838
0,503882410115054
0,4972140181637
0,514268708442035
0,509290873097841
0,534402497348685
0,519885752690942
0,52420451379937
0,528550847838982
0,533344648858272
0,527303582551366
0,536608881926447
0,531552252751663
0,552763195910944
0,541181943565659
0,552751177536888
0,54478756446023
0,566416732583044
0,558351385894729
0,568209274100337
0,562713607128907
0,580726769916207
0,56640252941665
0,571038541083921
0,564766114721455
0,58721128578487
0,586429554155651
0,594701956650791
0,600907179513725
0,614645343066299
0,604415203075158
0,611355152151485
0,594829678039123
0,605973157237611
0,597480186081957
0,631952742925384
0,621436308150997
0,626258836591988
0,629278504369213
0,649835441791285
0,638138574349897
0,642926399593158
0,646436304628131
0,656578703223288
0,647790717069712
0,675299564449094
0,648380097660212
0,66268566610533
0,665339316294178
0,692486984660369
0,674789235958857
0,679374482769278
0,688992002946245
0,690061960342799
0,674053297380277
0,684913380409534
0,682299067299822
0,723532051754171
0,723139707276287
0,718373501468887
0,729959931041113
0,739839427173628
0,708622615549578
0,731815231196554
0,757124198397518
0,738307131115428
0,748634956808087
0,772472904183139
0,747208979750887
0,786267201946979
0,747527180466808
0,754490885724245
0,751661652003358
0,745405114732062
0,74809930545566
0,80563358258792
0,783472479843349
0,791133497317152
0,77619645594885
0,827877936476864
0,811124538942923
0,787630017699069
0,828944213580084
0,839882847764496
0,780527075991929
0,844072483951895
0,811118800090061
0,82233411869008
0,81773784837741
0,842603503878989
0,82087170452711
0,861966664824395
0,852055417227458
0,885973631993523
0,830030254647995
0,869888612350042
0,861791928475107
0,855047233905847
0,848561729276702
0,898449746006037
0,900139210614773
0,897713119602832
0,917041537065144
0,918347114214404
0,923605825413638
0,918141193723657
0,925162415568222
0,976385417395354
0,936564902681125
0,93756564259244
0,914861075019316
0,955335857296096
0,968905312069871
0,974050562984952
0,939687236806692
0,965895947200499
1,00119120049356
1,06834299752654
0,93954854159438
1,05101618294481
1,00100545334338
0,953820143406954
0,968295049249973
1,00801243140414
1,04313883489565
1,01160031356265
1,01050712408873
1,00655446881999
0,978268947075719
1,07036721288449
1,00643941353213
1,04227113872631
1,04569975795661
1,21638781418664
1,01855850440005
1,02141381040732
1,0673325781175
1,2240414057649
1,07982861302983
1,19962459325
0,96909886102885
1,05590050681581
1,11460935473805
1,09426428164363
1,09090748593221
1,28132311247963
1,09737342222661
1,23971367390038
1,04699101348171
1,15922449273022
1,13848184350993
1,17109570271296
1,03596930037933
1,18044212755085
1,19262170087837
1,33217732382524
1,00918277794884
1,14648122229848
1,11818628232089
1,50403701285454
1,05031832426614
1,1739938914339
1,09147435397928
1,2577652764911
1,24138937249588
1,26108945674674
1,25413609891259
1,17215543161647
0,999055069430231
1,34468088871339
1,22335991132936
1,16075267946939
1,07674285251887
1,52589512644302
1,12367410696823
1,29087982614537
1,24529236092534
1,2326716017489
1,17775191217611
1,63886965563988
1,21602891142806
1,16838355378519
1,15737746140352
1,68973576120421
1,27785971296766
1,45881306926724
1,25120003386829
1,81155379745874
1,16721223198709
1,14827098616468
1,50500117516271
2,27057718910129
1,5473944098102
1,48888783000256
1,14421541019667
1,34410846427901
1,28654492742983
1,1876422864734
1,44927842264768
1,41837705956348
1,56971865135999
1,40847821960369
1,30274265757835
5
1,18240563083586
1,5462793102917
1,37341616135793
5
1,3626046323611
1,1914465791424
1,78125714256452
1,47000578013757
1,15149252432124
1,73745172373014
1,29242911021265
2,45588720913549
1,77099626824693
1,57161521050509
1,31590204284269
2,45487198568373
1,15359448220467
1,6995215792814
1,27879401725046
1,72292066287821
1,58711133122872
5
1,05728910448332
1,15891411793394
1,30090764400055
5
1,73351911625761
5
1,26250780230492
1,99266035395452
1,65095981138404
1,48270878227496
2,09837642606242
5
1,01414530476864
1,5646800930217
1,14419245345559
1,74284436832858
1,94471240207332
5
1,19741240346856
1,60858776621405
1,08130899317342
2,02682323662507
1,13781557788273
5
0,584073365705822
1,53329460103886
5
5
5
5
5
5
1,4481271889292
0,926180575505781
5
1,64328257369446
1,07469683414863
5
5
5
1,62876365718715
5
0,711301069411232
5
