3596
4000,36533379555
650,420452594757
1
2
2
0,036414298680492
0,0518326018232974
0,0285022091321489
0,041475423379314
0,0260130198894744
0,0401887163706468
0,031129563668145
0,0530657670893181
0,0292499735096829
0,0473648335087291
0,027063016591011
0,0509686928968993
0,0277205566172795
0,0507926440763595
0,0310015373981821
0,0441802443201953
0,0335380259667417
0,0459050122779874
0,0332677639579137
0,0400090926879905
0,033583679172649
0,0420669126357969
0,0243010766427927
0,0461688599394528
0,0283003947345807
0,0367592593979351
0,0291691063702558
0,0398631745500699
0,0219059883183205
0,0428747923126067
0,0284783031665811
0,0376579410575424
0,0386815346501002
0,0480533641681716
0,0297686711838129
0,0445414862575343
0,0280184828257333
0,0549857396992246
0,0357180583787593
0,0465481349153012
0,0338236995007719
0,0436823164537499
0,0343941061094052
0,049315318747583
0,0299763768638436
0,0423273790245596
0,0239109642372537
0,0440184057163948
0,0298858523887612
0,0469120837226068
0,0390506170494369
0,0500532457781424
0,0251305091381919
0,0576243501913788
0,0241984899558202
0,0500792511460058
0,0359047873625514
0,04045755760279
0,0312244672344506
0,0374680090379333
0,0322479357624502
0,0510389126462974
0,0371494036813279
0,037641843899217
0,0383696312155391
0,0482460259046544
0,0381391970477715
0,0406265870246057
0,0303820039050004
0,0450510651505356
0,0275201140940678
0,0507706749183122
0,0338195927071674
0,0469629147360094
0,0333321198290643
0,0458811278382455
0,0292199490602969
0,042582066347963
0,0126225067904917
0,0357310058484357
0,0385330163647381
0,0449774308458469
0,0243006259239883
0,0375999973620753
0,0233835595177925
0,059425587730114
0,0143714157799484
0,0314274132980379
0,0316909187483076
0,0455170071733083
0,0263760641092358
0,0528020030548229
0,0299671063574534
0,0491188439790052
0,0231704814842036
0,0489087808052812
0,0246774403566895
0,0423592693055338
0,0238688757731363
0,0441743980723669
0,0149386860086239
0,067989353179699
0,043849276324749
0,0371016330061233
0,0501051993513096
0,0437908726212661
0,0114657126645551
0,0616504449222642
0,0414263894600412
0,0439542458662032
0,0221907178482847
0,0423875861260472
0,0271490408203659
0,0411341576787979
0,0134019214902819
0,0441491068694674
0,043452860802367
0,0517249707181738
0,0342715414195032
0,0441479597766633
0,00590882649340647
0,0640738791547283
0,0533257151039703
0,0574483817349492
0,0216222122425379
0,0347024833561589
0,015503062486439
0,0607249057469572
0,0404925704009984
0,0479785429470396
0,0218801882798197
0,0463662799173199
0,0159870316883605
0,0311749399436732
0,0354249566932079
0,0500518821832679
0,0217190150631441
0,0244360841243539
0,0263149981533894
0,071306126841054
0,0392529702256063
0,0449868133132068
0,00778827205715611
0,0378084465002119
0,0490976091790601
0,0483857697872433
0,00824656279347941
0,0546266729739985
0,0307516937628951
0,0401880338015388
0,0227785255994529
0,0207689553936311
0,019768158710909
0,0362704012409939
-0,017630543972391
0,051516438268342
0,0444066442909021
0,0775620174204943
0,0595828111560444
0,0554488313035768
0,0268250277052174
0,0513694093072225
0,0251811673983746
0,0398736988010063
0,0279864193848043
0,0237829600009897
0,0386422772141623
0,0619733140162939
0,0193137827943181
0,0365784780967406
0,0484235375992627
0,0371763129644403
-0,00658879813201741
0,079319910996938
0,0332646820299034
0,0264206948786006
0,0477041447275716
0,0471454126623545
0,00442319688891392
0,0391200087151766
0,0455135223593921
0,0493988002579814
0,0283601318182055
0,0371817683920669
0,0208063578509071
0,0492447161452293
0,030054546740891
0,0455888815528551
0,0185881855506123
0,0237600982490906
0,00695845140663949
0,0806275580345925
0,0469581369399901
0,0531844892581465
0,0190620783615242
0,0152664291361016
0,0289053128511042
0,0665806298825201
0,0235926608583564
0,0402463750249615
0,0209296413879861
0,0371859806313281
0,0164722064628034
0,0465954370353166
0,0140968873124536
0,014396008809828
0,042456317627764
0,0600636926900572
0,0271381784565058
0,0361344247286888
0,010643596649639
0,00819333906497053
0,0439004423805091
0,0730085333485833
0,0320826857342905
0,0413389768091422
0,0197043526754855
0,0517942238874047
0,035740361229086
0,0399878282644058
0,0300223699870888
0,0321747426845626
0,0207436160049355
0,0328527853296498
0,0229765500871212
0,0389109025441849
0,0204214780904953
0,0376470279306394
0,0233355792759317
0,0393628612918159
0,0320229955536486
0,0461103667315685
0,0284893784038537
0,0383530728679387
0,0183425789567984
0,0375086834811139
0,035082589795257
0,0433599409179672
0,0298837083385788
0,0391774141231032
0,0257043932839854
0,0397060251621575
0,0296004516174224
0,0412857783977681
0,00782139485348965
0,0284469209082668
0,0402155124918356
0,0543846781412077
0,0265123014085131
0,0330672276954441
0,0302606180706859
0,0517075585875133
0,0325115237304008
0,0419276154962792
0,0341241492755137
0,0287093237605263
0,0124235845557509
0,0635815513883903
0,0392014710790991
0,0255296086909858
0,0264570903192524
0,0499445800876601
0,0338313756254699
0,017083502832696
-0,00973537587383069
0,0865408949194304
0,0381270475773042
0,0311546712349552
0,0610887304678203
0,0555222959016956
0,0439538738994894
0,0279339829927785
-0,0280335634226568
0,0782567032841716
0,0705844756608852
0,0443857508831699
0,0254643230210403
0,0427782352939499
0,0280133352376542
0,0386763063939496
0,0202422718709461
0,0523894579550541
0,0333689597542835
0,0768578430763527
0,0500666013592465
0,0324422821260131
0,0248412271563129
0,0623656732024773
0,0336156471691682
0,0465213386886158
0,0240686088553158
0,0306178977373652
0,0322995177198906
0,0438323394207664
0,0422019658707711
0,0430642541129972
0,0217617602650965
0,0517008661821997
0,0460411982366943
0,0320027167384058
0,0293268687546449
0,0515084513951373
0,0321975815321653
0,0470377532658701
0,027040512402167
0,0534490935632638
0,0144553501154469
0,0242110050293872
0,0611504800603463
0,0554685423751314
0,0328671891359471
0,0736737426840141
0,0442956747802655
0,0502417471995557
0,0332766292549192
0,0395098087398014
0,0310576620998049
0,0355268252668191
0,0226949324319656
0,0607110355832813
0,0383310733518546
0,0449641483052503
0,0415825697689862
0,0480897985525578
0,0339730305545464
0,0527016617054373
0,0310364142846473
0,0497979373129939
0,0419258819556819
0,0307589134646643
0,0433680251910361
0,0667292201863587
0,0169281136106711
0,0658630861411551
0,0745526292532921
0,0590344197864103
0,0404761886772765
0,0492293703013024
0,0347431913925341
0,0475359517283189
0,0420853446116903
0,0465419900992888
0,0429107860998952
0,0678181449268842
0,0435560062889211
0,0477955363936829
0,0186504454666043
0,104535064652322
0,0751692017938805
0,0870895220151883
0,0601891313716371
0,0431807176384213
0,0636495513952718
0,0706328140200943
0,0553757702328312
0,0950488083875026
0,0633478845837731
0,0751016998866427
0,0564979901334783
0,0677020324908262
0,0652434746453079
0,0789708050261603
0,0619160918928669
0,0728051346439739
0,0615509768881246
0,0826698784480153
0,0603880297665577
0,0731657724615396
0,0941252324082959
0,0927724849693343
0,0762687211810241
0,0897367101136775
0,0654424307005735
0,096561048633246
0,0846836947811835
0,128082797532561
0,0804893680064395
0,115035758692835
0,105175202300698
0,110647480312051
0,0901320813257459
0,107172431153979
0,0892094576851106
0,112580302776909
0,0898844302203337
0,109544915694489
0,098621266144759
0,129256126592456
0,0966436246804555
0,1206532735879
0,0947192565291797
0,128858594095568
0,122946640735084
0,135110319987484
0,113485286538837
0,114883437954214
0,103362721769171
0,17881834080363
0,160090524738427
0,144806394882972
0,123598613230633
0,150930578495603
0,133559078488254
0,136114702957337
0,125204615954813
0,141747670120496
0,128353628606556
0,1703806443845
0,140277208860259
0,176456440363129
0,15497296355732
0,154293155837301
0,157855128562318
0,162344175925361
0,157676453586563
0,195692553151989
0,15994073167193
0,153371689866323
0,165368938576615
0,190076203838742
0,174825414317466
0,18633432963806
0,16635219208492
0,187922965934562
0,158788265139167
0,192531686558605
0,170259493650667
0,208150328267047
0,174210274970156
0,207471886514258
0,19147258437128
0,206484999291998
0,175320720146351
0,220467872359667
0,200548999941993
0,228698595416582
0,205851113312227
0,226068949878029
0,200037680585738
0,216767166948276
0,212680186161066
0,257615768256848
0,234405644926706
0,249506540752076
0,220751610561073
0,246228263491004
0,214085666288496
0,252704446691121
0,22467969296314
0,247538957910975
0,236684170234212
0,251155661812724
0,239924188031476
0,271786520924593
0,234635553864471
0,273969386078012
0,251087518264488
0,289017575895642
0,260226768395527
0,273388165848451
0,266966127590833
0,285728594489723
0,274345676131307
0,305862152880257
0,292792087914427
0,316740411537172
0,253712252734469
0,313161323952631
0,291818357547235
0,28838903603705
0,286535174297374
0,322019421846478
0,28396891990681
0,344314418982889
0,305788722403941
0,332391312421972
0,32071686598237
0,356547282065658
0,320672704261817
0,346172766633095
0,316655594195138
0,346238935238198
0,322815544885523
0,334058750210801
0,336432004875043
0,355887985636278
0,335913912470893
0,364701133033145
0,348043448344804
0,371119064757364
0,340322467197807
0,386824553420595
0,355931850111658
0,412992982682016
0,366866990553488
0,375903595822207
0,355157239251372
0,415153242075736
0,386834082440876
0,411861974352452
0,38735311166547
0,421400653085325
0,367998316503506
0,42875581345073
0,399807439411424
0,435044111847684
0,384914093715165
0,400692293882463
0,402871005757355
0,427671305754685
0,398723712257742
0,463733779216629
0,428020848806437
0,478708185012964
0,42365688374885
0,462324117144855
0,42920447633586
0,454427785663696
0,426141743243133
0,482587678617548
0,446221386547337
0,499187573815751
0,449128354641175
0,500847329602932
0,45539608249914
0,519806065770229
0,484390567442873
0,502301580089138
0,455923976437221
0,518878099377324
0,484727493121789
0,517089151736558
0,448907878185314
0,546419801579989
0,488338796220846
0,554763008169245
0,497516939089368
0,519876128369735
0,486960766342872
0,545486960925916
0,509449422770219
0,536321160836203
0,518255024558719
0,557496399734139
0,520029044515398
0,567213041698383
0,53199765494522
0,554626274592073
0,545716308202647
0,618556989979644
0,545220534514644
0,610364245703323
0,546570354778635
0,612100198140474
0,571718592140792
0,649724313725099
0,555078295884838
0,622211332639795
0,602379961109884
0,626981614846558
0,571216463554447
0,618050824661129
0,580222603579515
0,607983314374172
0,597652628078563
0,606875120873519
0,59013080594439
0,626914156664789
0,605315002895733
0,636156728644381
0,62402604635953
0,691494095582672
0,617892736142406
0,694679035377988
0,601950201419618
0,680226195615545
0,611018560917989
0,64738246272803
0,638976888990051
0,698457177553856
0,644877366966778
0,671633129292428
0,677286584898697
0,742783224405851
0,689141149918143
0,682076978463703
0,683735492146458
0,716734778032373
0,660468052704993
0,698718285383377
0,646302781272407
0,734238585772007
0,680458484455547
0,791792463073918
0,679467112901397
0,754749577067942
0,658057438864299
0,772412573082181
0,716242012055197
0,730017855420716
0,690084370727105
0,761508170805837
0,680595197502417
0,753186713709747
0,719538305252347
0,758104926828649
0,734966299871558
0,828275945799765
0,722003587090454
0,732365513072239
0,742541552797924
0,779274326808486
0,747319782640561
0,817043040766056
0,741146858311903
0,842154413437643
0,778557560735038
0,822562479479764
0,742398405922351
0,828668205339155
0,749078311546286
0,845559764384924
0,749009475561956
0,842988349583871
0,755453646094216
0,807119973779088
0,761794675653847
0,833167184253294
0,780725998733277
0,826577383093623
0,785382146846712
0,870117788354583
0,766233810620124
0,860032778372108
0,809824230331582
0,9052046033476
0,823641493642256
0,856163630706535
0,79903576605956
0,889186369186032
0,759356343740694
0,869992791738735
0,821376106155927
0,850782700923256
0,831420887798008
0,928065679675759
0,823765614570565
0,930589215593181
0,833518389291656
0,869283934439058
0,846016214157429
0,891598257079781
0,821912021175297
0,953487591920441
0,837138711429793
0,915583233203317
0,858819282035177
0,987932367533689
0,895546948520471
0,921046936993382
0,858106883345754
0,888818333389187
0,831517042688066
0,957047988257584
0,858795206307043
0,92808340087406
0,837126437274475
0,953601690046461
0,86248417763961
0,951655647776233
0,888632827021312
0,941277723089279
0,845540971737503
0,971483014293003
0,855219535688644
0,90949568724294
0,852206757952253
0,968193815381965
0,877758525566394
1,00512658162556
0,941708999791162
1,0212188439029
0,882400138595464
0,952309930639549
0,963388613135102
0,983182237677827
0,92426061948215
0,972821547200561
0,918385184082783
0,944977295558627
0,935519667846552
0,932842636759611
0,930073623092267
1,00311959431952
0,908449222043016
1,00531272738987
0,91018219277219
1,00964748759779
0,913277742153592
0,962046664377766
0,940713624966374
0,976846795706063
0,92343479091636
0,95525762944063
0,908855576369731
1,02302484732725
0,882087092259395
0,974659711266084
0,938811221696365
0,992253987232204
0,927206782901603
0,951939805749916
0,95340244890039
0,992772787954393
0,951721727829664
0,982541230829886
0,922919908361288
1,01949809800121
0,925036950157506
0,999759625895712
0,921338931903959
0,968884236680177
0,946393149632723
1,00540449914656
1,01540989792277
0,997001670668927
0,950261810557806
0,980636233342783
0,926843268019134
1,02961386746638
0,96588303858614
1,00502844868121
0,964848755443058
1,00584059558728
0,964909814605387
1,02817515208545
0,946818022469527
1,01041741683012
0,944227065148245
0,991810089221144
0,961578278565375
0,992022745849358
0,965701979981263
1,00844062327464
0,892790827624661
0,963268687798772
0,939348527134791
1,01112475079048
0,949029609346572
0,993245424035598
0,965079295840892
1,03856587994196
0,97346085894264
0,986232887432531
0,909751210739726
0,961344155500869
0,963405565386818
1,00095335983894
0,963982392674779
0,999869909709647
0,96141937483928
1,00429108470432
0,982819217268458
1,00748715359774
0,909297010887542
1,04074886352426
0,943175946124381
1,00522350014988
0,944176892347897
0,993241353504082
0,95039282915889
1,00086680477585
0,955493826414239
1,06847978590199
0,952130892506975
1,07568009031314
0,918671700376681
0,999782576302746
0,960049981210595
1,01239693386097
0,942781935847876
0,986765481605957
0,957100579267261
0,986939704578938
0,975256334807966
0,999563021114604
0,931561451681988
0,974951128345849
0,917554556327093
0,970610137661586
0,918201313767698
0,974059980896906
0,925198879493078
1,02019716633786
0,960104391714447
0,939297586034638
0,936902457920649
0,982569389754051
0,922475270074185
1,01872148841458
0,913542057658551
0,960351177376876
0,924017870922658
0,997479237506125
0,876745548155882
1,01756501435142
0,93318785479634
0,969981284763852
0,932518865116924
0,940962823722176
0,887500914448283
0,956209605276747
0,904743454486711
0,958418513384481
0,871334608484774
1,0016715194668
0,894894311651174
0,979626618414026
0,903451794451192
0,929818605374029
0,902155324124778
0,946996785649469
0,913611332223742
0,962956542627162
0,89027178753637
0,942483135263373
0,86704252696064
0,908953156994531
0,911630939720876
0,902664674693031
0,896056199868303
0,938582412221804
0,900150384143293
0,897349031401227
0,879429858133633
0,893670951872545
0,867809414558709
0,932996112111929
0,883137704883322
0,895068232030182
0,88269748488532
0,908804680929812
0,844397698243216
0,891295457046366
0,821214734480644
0,924363629918221
0,851108371946814
0,894746007894809
0,840187385051688
0,882016192011149
0,860495382172986
0,871720609767251
0,835953211218557
0,860883638813061
0,808864115240193
0,874661603594376
0,83315327547856
0,844910301223544
0,799486075401929
0,850780377271437
0,832745789184217
0,844227950224849
0,809636773644117
0,835844974907739
0,813223077079059
0,830898577960777
0,826885797237987
0,802626209553835
0,769665782403297
0,804867573143546
0,757196783765152
0,815746224369908
0,7581259782338
0,810486761659398
0,779671112246286
0,843631624109671
0,763979138229994
0,776331626242248
0,757096431712202
0,800327716054562
0,75706356104587
0,774879246228806
0,75469811218653
0,804964299629556
0,735734200742726
0,779608092763339
0,754458681515926
0,747832537799159
0,729802030516984
0,74581032301316
0,720424130843744
0,753858459733032
0,723124776779676
0,754770878546976
0,72532585334624
0,74486301530285
0,702772362555201
0,735669500527067
0,699248525324198
0,724539930650845
0,702149341776187
0,73073137307562
0,699528667828818
0,711422140553571
0,665990821594544
0,70805701481353
0,682452265302367
0,686112941785563
0,660875438725281
0,703060644348548
0,663808074288581
0,68710887791422
0,675720838380648
0,687003968209686
0,642622457964134
0,666123035768542
0,647042325877125
0,652753676402915
0,636763078034593
0,648483266150196
0,632813871601577
0,640571601039083
0,616313406124423
0,636370359386698
0,630936652071538
0,63645188383446
0,619394665291822
0,656062566979547
0,607796971069375
0,645085615149648
0,604428509522808
0,62383969181256
0,584062857204436
0,62099439707982
0,588347106234416
0,615060606496641
0,571673827378433
0,617208342498274
0,566518729123871
0,588797801748215
0,573350150664008
0,584398872466578
0,567440861583454
0,579159897932278
0,558297731386382
0,574430183044301
0,55043842042656
0,562769316025001
0,538306214770458
0,576305709846508
0,552536699308954
0,565901457659875
0,540239713258582
0,551728611726129
0,528131275574876
0,540793711161911
0,532904797642637
0,560888600371673
0,532973474845815
0,53887701426129
0,51918098468289
0,531336070019118
0,523888231372052
0,51626435812621
0,518824602996758
0,536872899109296
0,500380854541214
0,53602568933913
0,507930884804016
0,507752531151391
0,495897416519519
0,501396343527981
0,480354494196626
0,501693597027285
0,487833831310118
0,502238886390288
0,479505253904453
0,489199164378201
0,47464424608539
0,492788425162137
0,474336241714521
0,496763830804237
0,461013004965396
0,487803915802309
0,470075971524599
0,481906149000478
0,45475540397395
0,468574344634994
0,457095964520676
0,460677691364667
0,446857042415969
0,467987563817264
0,447250950953889
0,463491964976516
0,440138121110285
0,456396765618458
0,43708190582503
0,447148622864508
0,428229612378224
0,440837789719783
0,426658240003864
0,437947868955233
0,42478193815961
0,439389426578746
0,421039862201914
0,431025971512778
0,411560803664734
0,427335515264778
0,414806246582869
0,43543374276161
0,409561902838365
0,421054249755663
0,415577592779356
0,422267486625655
0,3993621921609
0,409112529879767
0,398782043937323
0,412371234347533
0,391169378719984
0,407690731347565
0,394106079936371
0,404908026836412
0,387711818426209
0,396749978351134
0,379195436971537
0,393483251672635
0,378792742545218
0,385562784331741
0,369733094699908
0,383332200198537
0,36878388746787
0,397331379296279
0,374730627612486
0,371247419267588
0,364561453107084
0,378108280540702
0,368292803881248
0,371981842229896
0,35831713508627
0,363311832601143
0,356234258425948
0,371015168529782
0,352586305067463
0,359631928286902
0,355720342199366
0,360947692216142
0,349210260564351
0,35864677793364
0,347169026868848
0,350614924967866
0,342419776040488
0,344024285539942
0,333750887725511
0,345713574828154
0,334205997255385
0,343768411563925
0,333509189932766
0,343798111051726
0,327752902953208
0,339699790377327
0,330794425517554
0,337281484305168
0,325854510282956
0,336186930573317
0,319496572762198
0,334363018417785
0,316172371262592
0,330529566732381
0,319761560566267
0,327682055550677
0,319328043487681
0,327884627079127
0,319811890277905
0,333204275979668
0,320132782555706
0,322530106109379
0,311923449802465
0,334823940558021
0,317404151421336
0,324415286882068
0,313243679480277
0,326118580691255
0,315984006510529
0,324430365993944
0,319851349707172
0,327602081866642
0,314130954701545
0,322346674655595
0,314496396667952
0,328541542358184
0,313303676536744
0,335878927550108
0,309079686518425
0,336884886240396
0,322039625761205
0,326693230203301
0,321594363431557
0,329910003009596
0,324724393503221
0,3354034427578
0,322353325181451
0,341909014401023
0,336379363024245
0,337363399831135
0,327600162070256
0,343804619662182
0,337956555612684
0,344259846851003
0,334887187727643
0,345494173778594
0,331604875180442
0,347123486507895
0,340277466095032
0,349143937474484
0,339352156387923
0,352819009920531
0,337854350948509
0,360456642172562
0,341564182422965
0,365728708478602
0,355991657201329
0,363733952906166
0,348238403419568
0,362875592631488
0,354556687984012
0,374639684890187
0,362576020517777
0,371141263837302
0,365230623062234
0,386635917826224
0,370683895295234
0,382424936773914
0,37193063353989
0,393538488983961
0,378651252504975
0,400736642349686
0,384844334441688
0,400411076605935
0,391481206846229
0,410954129388517
0,401746115389415
0,410696806379491
0,400028490324569
0,413611879803475
0,397281639514905
0,425369668733471
0,410054310786308
0,418403877105124
0,41286135812128
0,427784334524505
0,404870945990415
0,422844688276974
0,404749053608475
0,420169702173158
0,409031845382923
0,427180446611162
0,407941507327716
0,42227482256337
0,405305874961763
0,41783390720904
0,397338993200064
0,413593566958519
0,40700181448427
0,418997634111463
0,403467934443884
0,413226573790731
0,406294385983099
0,414644795335934
0,408810901237554
0,411126089608085
0,401968795962738
0,40514444556739
0,404514099844955
0,405860904637518
0,395809480505431
0,407592700419688
0,398457171216567
0,406116697809908
0,397752512004049
0,406780613157919
0,397760180774975
0,402944940792007
0,38368369189468
0,412870484026491
0,385384184520163
0,414338451484858
0,397651359628283
0,411374899949043
0,396124670563529
0,408978591071538
0,391214061230195
0,414412986750257
0,397770489136602
0,408451495835947
0,38586170746328
0,403217721279545
0,393212900458018
0,399565243097532
0,389399832548857
0,399241265922925
0,388068949448965
0,398744974068762
0,383287044689355
0,390817717467382
0,379163495051562
0,397184556218041
0,380398593517686
0,390060992621688
0,378626396783036
0,394829691220723
0,377559558454247
0,384694664694245
0,365956431346699
0,382267398123075
0,361056076553601
0,377134494978617
0,356297029362002
0,370002546748809
0,358090744976921
0,365933767238365
0,348960770528349
0,360047002859672
0,344303158973808
0,359826959041077
0,344895371092392
0,358417078960514
0,340361598917169
0,350357586813185
0,335579127622787
0,342444715069691
0,327039031477734
0,350555864378365
0,340845962931238
0,334579668381731
0,321691744867932
0,334921437273591
0,322311491271084
0,327530277081925
0,318060753117578
0,317660947954855
0,306302916931769
0,319167103770418
0,310774903669613
0,319149347831977
0,306388018658893
0,310808475937927
0,297329398884152
0,313492863193989
0,302801032201636
0,31339028397117
0,290237467124752
0,307470984907855
0,298865758690123
0,30470121262625
0,288450810942328
0,296526127349509
0,286213196218608
0,298295921484625
0,286787563562
0,294856708664026
0,284119460687681
0,291978217760379
0,273068059276856
0,281675452716253
0,280850324779205
0,289561955221927
0,279517014081527
0,282247472316762
0,280423541408468
0,278399507617434
0,26849117306443
0,281512438318756
0,268785129459828
0,28136793963929
0,266361397299026
0,274611981702864
0,262564469313583
0,270813618434176
0,2598644841571
0,269695551847433
0,258810029945274
0,270386085172052
0,259459788714025
0,263180261676206
0,262520278655394
0,262368360189188
0,256357271117481
0,261869346518507
0,245625201282382
0,257164786837747
0,250364323745556
0,259610810086728
0,24400036398096
0,249396360110815
0,245083522481016
0,255184499870534
0,248419326302047
0,248990139913496
0,24461714805691
0,248035547268042
0,248112792245693
0,248973926774952
0,241084398306112
0,24633681177739
0,237825669794283
0,24214495074462
0,241511341781464
0,24448637501574
0,238346410519065
0,244222243558347
0,238185064506077
0,242530511829314
0,233310677336247
0,244382546904762
0,240754299162085
0,240242266273524
0,228949896550546
0,239971244357066
0,229893049001478
0,238433036215466
0,233670693863404
0,235928973681083
0,231019729572028
0,236489893041739
0,229665479195838
0,233455199010281
0,22796123728632
0,233654814850444
0,226597920303096
0,237068843498045
0,220120116671414
0,228697691654888
0,219634946295507
0,227412429880914
0,221707694519303
0,226455849910552
0,2213164377421
0,223562285560617
0,218561308126017
0,227987293728723
0,219983649223663
0,224676223173128
0,211885256560613
0,222697589370671
0,217085247160704
0,225621087977802
0,211050302178799
0,221671204125533
0,215139566964513
0,216701490600449
0,213819010902405
0,218744879294716
0,211296355950858
0,219665565625457
0,20821806037077
0,221692863726694
0,213609004382681
0,221204792215042
0,211462016697796
0,214126222862292
0,207718125973877
0,215525444518318
0,210766202345826
0,212614863402947
0,210362272486676
0,213429404916657
0,205410817070239
0,214837022093321
0,203721291538881
0,215199362703765
0,20569971904897
0,213167030606731
0,206346112023881
0,20994284843568
0,203826280020818
0,210264405981627
0,205879909583089
0,207947057216852
0,196829810740707
0,206059895637939
0,199283833776676
0,208269048120364
0,204836421506679
0,208970074962711
0,201398671859797
0,204604058279309
0,195304853520919
0,206156475563549
0,197626322650023
0,200858373465419
0,202115085010121
0,204983439203516
0,196735183288485
0,201254575112395
0,190904261230391
0,198871337247982
0,195747357993008
0,199421901952964
0,190149896241357
0,197520152852694
0,191289802266145
0,198615034034079
0,187997912816439
0,196535129101837
0,189025605297614
0,196235238580438
0,184174458381563
0,19512064424887
0,186930287784416
0,192484962466314
0,186415672232508
0,190164329165768
0,185146989024554
0,190436331089169
0,183358555154431
0,185892352408433
0,18003413151498
0,188827301151577
0,179844876399604
0,188164170367796
0,183154437148736
0,182900706314793
0,175859668877041
0,182644277705815
0,178169989146855
0,178972923076207
0,173059798276859
0,181885075989254
0,172540943968109
0,1815774756042
0,175833709724722
0,177405525493699
0,168083974255868
0,180239555802093
0,172676300643056
0,175446087963123
0,170611396066058
0,17934127928714
0,170891456412152
0,173514866627522
0,169307597222007
0,174018741783383
0,167673049476275
0,172071710503908
0,1706565744324
0,172192506325486
0,16563958558985
0,167956656069365
0,165203111127466
0,171562406893324
0,160343788478143
0,166022433633601
0,156493763413606
0,16204665095677
0,155218424599337
0,162159210259174
0,160444568316321
0,162471949624151
0,15560402621779
0,155952429997419
0,150594570704583
0,156412027411587
0,152408653769821
0,151779650480976
0,149227474617716
0,153762824391717
0,148259283433585
0,15134589316707
0,144479836002653
0,154211176973938
0,146033685265712
0,149076800608897
0,142735578768348
0,148171840914375
0,139830524456664
0,147896937870265
0,139671939803253
0,147469171413664
0,143932884748893
0,144097956234817
0,138136031451218
0,142741959088711
0,135825793257907
0,143821151691399
0,138875294747609
0,137963843865431
0,138520804582254
0,140925610185729
0,134469363064952
0,13951969021834
0,137615786542119
0,140229611281455
0,132833441018671
0,136393153772485
0,131392575678816
0,135597213130619
0,128750244859867
0,13551788441003
0,131011516787685
0,134346397331276
0,130881931502472
0,134927383062063
0,13117277831411
0,132386291907806
0,124508707466487
0,131746192278767
0,127056731093189
0,13189572906362
0,124295945345165
0,129868702174813
0,126979583783567
0,132067533865634
0,122908894704247
0,130195183307263
0,121162608904272
0,127842350684177
0,12036225061447
0,128522083006648
0,121192822148342
0,126390001441212
0,123981563898451
0,125942207812796
0,120251267115353
0,124316841488797
0,120004172993469
0,124951103298181
0,117422866835296
0,122688622231473
0,12026237534897
0,119865638947821
0,115505459345304
0,12099115242509
0,11662762640507
0,118362268040522
0,112571924894701
0,121438793590885
0,113625404627782
0,119507198436143
0,116222333080894
0,119727872244112
0,114616697346741
0,1176034615395
0,110394202840684
0,117737838766275
0,112067425858138
0,11762856350323
0,112339408987144
0,114709454356056
0,110834176470156
0,113822390355741
0,109736480225411
0,117717144338326
0,111897493015042
0,115509346196185
0,110525619585236
0,112592389681456
0,114847513446
0,115226931255268
0,10877048374305
0,111844532795155
0,105623400478136
0,111745086927249
0,111312269583314
0,111754093648066
0,108080609098476
0,113394830179385
0,105785677091825
0,112417095619756
0,107499598547291
0,112389404997384
0,105248673891506
0,108386283201501
0,104205734580863
0,106429460014514
0,104897128664879
0,109620759142548
0,101293208162341
0,108059862593449
0,101361804132812
0,106657285686468
0,0999157052942059
0,108654903002781
0,103074798995613
0,106892724125651
0,10106336056779
0,103152003135914
0,102117284935746
0,106239627249975
0,100152665116683
0,105546554368619
0,0951645409166115
0,101421538734751
0,100285451493202
0,10246801196675
0,0927658347736608
0,102893787008283
0,096554901370103
0,102331071180021
0,0939960354701017
0,100741476311328
0,0936081371147245
0,097737516147981
0,100191943307518
0,10052029533477
0,0932389547893649
0,0984692288582924
0,0957075043675724
0,102799970467435
0,0962943518557056
0,0975536406589927
0,095120738232803
0,101072283227964
0,0922595977422753
0,0973124385894723
0,095197230150166
0,099989301618419
0,0947363411736126
0,0969607725034479
0,0934440491865862
0,0975447282387878
0,091143769640295
0,0973229939322381
0,091317554472057
0,0957182298330673
0,0899420393464458
0,0924034524946678
0,0914690510807103
0,0972047551765545
0,0913304286816113
0,0936648652436369
0,0907863390340255
0,092957295168138
0,0860600321645886
0,0913138190091395
0,0882617881870077
0,0888157915453975
0,0851561733341516
0,0932212696874875
0,0851558523321758
0,0889720255938377
0,0865014581391478
0,089949383500865
0,0846308380777391
0,0881370657332325
0,0850444923711681
0,0886915154176885
0,0807607990379503
0,0883453355522053
0,0804940843138377
0,0875761143170316
0,0792253088356202
0,0879552935355899
0,0789889560146616
0,080668608804338
0,0786831632652816
0,080439777992311
0,0770038128447763
0,0852085081991801
0,0789862800961452
0,0796698741780059
0,0795317943389218
0,0815737634954197
0,0766961158883019
0,0811762395574046
0,0774629285099256
0,0806082122617225
0,0769587881830959
0,0805506090635948
0,0764146128291204
0,0776011322554021
0,0765704546690013
0,0758647252303531
0,07292023424419
0,0782437143956557
0,0751006229559252
0,076924495978817
0,0717055147908784
0,0761938981377272
0,0730308393389809
0,0783617855434213
0,0705218196873494
0,0714482177722822
0,0707550228784873
0,0757358100259307
0,0720306687835692
0,0740389272167546
0,0693400053021084
0,0757120528100756
0,0703427232523104
0,0718149028126276
0,0689407220946099
0,0702097044093206
0,0662164108971827
0,0752513039994493
0,0671505539306228
0,0729817686414118
0,0675278523441165
0,0711063282578053
0,0667560501382494
0,0697658599194893
0,0679922525321667
0,0722326658637327
0,0621262578148186
0,0669103785239399
0,0638660700125502
0,0662299484366408
0,0644717278994521
0,0686408378988054
0,0626716262600131
0,065225646946247
0,0614827615195691
0,0663694777925744
0,0656492978461306
0,0650781880273196
0,0591447736531145
0,0652952566548924
0,063213824790078
0,0659622712796491
0,061648751996103
0,0629736276758614
0,058380043505882
0,0641602893262192
0,0597377869871279
0,0637347819877515
0,0596845109002923
0,0613783214494158
0,0610023874283247
0,0644687078485585
0,0602718996610572
0,0654349689195029
0,061809446376486
0,0645573003875571
0,0585070200453674
0,0610634702947309
0,0587486686567711
0,0625297565906583
0,0594091058510484
0,0646445915248893
0,0594685769291333
0,0614493970374065
0,0582810762901262
0,0668201605845796
0,0618708295718616
0,0652874664883743
0,0641076401712001
0,0654861048214572
0,062298198633556
0,0714849169834997
0,0627931037814043
0,0643243143057883
0,0521082808844338
0,0570079531748832
0,0532692200774463
0,0652876080151739
0,0542161097222376
0,0629529869381401
0,050531719347874
0,0623520495653656
0,0529563572250221
0,0647720435311515
0,0592114296928724
0,0626834982121059
0,0581035301276392
0,0635253136440293
0,0537781659638671
0,0598349278747544
0,0582783660696169
0,0693086345388133
0,0528371684474571
0,0619401061339646
0,0590672835665286
0,0641997926040638
0,0528195220229253
0,0641107604688012
0,0524857138927912
0,0565352205763413
0,0531377833612559
0,05669501371836
0,0501592736613129
0,0563989483650799
0,0509949448441969
0,0570482099044754
0,056844956829765
0,0612298844088433
0,0625918731251618
0,0583640491183882
0,059948946214004
0,0494078824943308
0,0573825616058315
0,0426637122686087
0,0644960162782492
0,0499589508247392
0,0699246939349278
0,0441547469231897
0,0659874030999156
0,0353356109407685
0,0769002328707318
0,0434972049632955
0,0723096240203462
0,0256470774373345
0,0849609667914923
0,0406966567376553
0,0783718179146153
0,0271340199574969
0,0824306079123596
0,0433068346249897
0,0726369335012306
0,0435421377491344
0,0691490170981108
0,0506272341763783
0,053570710944519
0,0570450720340579
0,0477918332401121
0,0637495231357276
0,0431643976144238
0,065101332055985
0,0457414591206215
0,0626248787841098
0,0493683799931385
0,0575213484087022
0,0520898476537167
0,052881238514505
0,057888155386878
0,0508343372151716
0,0544115664473797
0,0541010835168774
0,0519350802864794
0,057717704697747
0,0537549113214549
0,0581226850207019
0,0502497300283383
0,0528588118670321
0,0521597344458528
0,0538094927128706
0,0514069997753093
0,0530687784626027
0,0517309195234941
0,0540407403685342
0,0517145949695986
0,05451848105592
0,0508720151153662
0,0557181565853173
0,0515930517244147
0,0537697401262529
0,0493140221280599
0,0525124362809586
0,0502814538668789
0,0551785669536625
0,0491635637031503
0,0555582363033774
0,0501950583315721
0,0537921556527007
0,0494497656462811
0,0535669788514262
0,0495015425326854
0,0538774904661868
0,051460598036005
0,0541133268172476
0,0540586344068153
0,0524645509343924
0,0523997652329371
0,0565071746321103
0,0540087752882438
0,0545543130590115
0,0513341378966342
0,0567698828783107
0,0511781904480905
0,0551195080773249
0,052644616403219
0,053925564201183
0,0518617265281121
0,0546353635548915
0,0549958593914521
0,0557663423389328
0,0524874672460778
0,0551940823309568
0,0534805077681293
0,0558519866757418
0,0527397321953894
0,0577653603564425
0,0521256005769731
0,0551339147823356
0,051647883251026
0,0575882166993664
0,0526728282051438
0,0528764610431147
0,0532766716394415
0,0552017253148773
0,0558961627907908
0,0560910378478936
0,0536296813115485
0,0564414113851941
0,0522101907318744
0,055478328392071
0,0522992097525138
0,0593223322182974
0,0513937567605
0,0532446549449422
0,0520136919241184
0,0567336439566832
0,0540160706165206
0,0541577864727111
0,0505506774324175
0,0597029772234562
0,0515695709181043
0,0540413031869456
0,0536290579272725
0,0558494249154031
0,0522925189261563
0,0566145236473628
0,0531840054868896
0,0572213101841469
0,0551034384376467
0,0571123180910151
0,0561404504592126
0,0561832638935521
0,055673182651738
0,0587699755609358
0,0554657199882376
0,0595338968037137
0,0577914931264099
0,0580359745483013
0,0550490632967187
0,0602781729097388
0,0551005597964422
0,0586304551282469
0,0586021462245371
0,0599099830967
0,0551263136920742
0,0616901360438709
0,0555796253692697
0,0591658679699287
0,0578721631272625
0,0610229868325056
0,0570317176271472
0,0614207488052932
0,0566111477962056
0,0601611354752362
0,0566416670390273
0,0583869495077391
0,0583703781386694
0,063082945022222
0,0582264560456775
0,0611372679509053
0,057697332614545
0,0620781520305512
0,0591797681662974
0,0604818068962938
0,0577253213993544
0,0623394214269304
0,057997093578055
0,0602214007227452
0,0598641171285549
0,0583192420998776
0,0589836786470094
0,0598276296392673
0,0587003890088441
0,0608850900363715
0,0584269351867735
0,0630749621014743
0,0601741392817381
0,0629626402433953
0,0588477403787106
0,0633159304532239
0,0600755294804926
0,0644949724001073
0,0598063087956982
0,0622416832600323
0,0579423842184651
0,0606075602865499
0,0617468197729517
0,0656462099329562
0,061799725425691
0,0658732980863687
0,0606999697040202
0,0661295045123829
0,0644911238613722
0,0651548388542817
0,0634050738937841
0,065829503720506
0,0625091167262294
0,0621980052636836
0,0606834406343513
0,0644525628447692
0,0637297307358594
0,0649941060594313
0,0640116654691475
0,06502942039771
0,0616578113851327
0,0636641717894706
0,0629224800839942
0,0638439335416173
0,0612011184387559
0,0632840631235544
0,0621636197225156
0,0648362416251472
0,0596457028990176
0,0655092833585233
0,0627955089824323
0,0633558760774988
0,060183320662289
0,0635567271422032
0,060415761047945
0,0634383464514005
0,0616079373531372
0,0623028474255027
0,0572858276289225
0,0635212756469726
0,0615331970258927
0,0628856019273988
0,0614707089099621
0,0628666835476545
0,0572440631362616
0,0621944133965637
0,0627376568582322
0,0618839918667899
0,0594993172420738
0,0618869498244852
0,0614341033797688
0,0630616774689998
0,0606398483596066
0,0626309776473701
0,0582007802397285
0,0634814401256864
0,0555363974434976
0,0598768346901577
0,0599342237666005
0,0637676469296093
0,0595113978287119
0,0613680152858002
0,0582596404031836
0,0603092334045495
0,0611202237775869
0,0632610582499854
0,0586442930435277
0,059953569354061
0,0573558343134382
0,0604726453013798
0,0580774142264579
0,0625534248176718
0,0598704964163054
0,0627616394601732
0,0553708371486618
0,0618918352839504
0,059183397122247
0,0610025280653079
0,0585641153647382
0,0583066512680794
0,0575259990042351
0,0611073851129677
0,0592355894336555
0,0590631680670864
0,0598291456858832
0,0587328721009925
0,056899403186514
0,0615322659047036
0,0576789550237435
0,0624027467511144
0,056524141121607
0,0605402986900628
0,0570874609969769
0,0610088683518515
0,0573887291938069
0,0584951385124116
0,0566673017481702
0,0615020836433667
0,0580476233291509
0,0603511799902057
0,056381057138786
0,0577738471677188
0,0567789616130656
0,059324433501791
0,0552551200475868
0,0583144753710384
0,0561840587633042
0,0583347940497647
0,0573948755956443
0,0594485153640892
0,0563659342129555
0,0570959089788468
0,0565636369617548
0,0585981719320726
0,0564992593458533
0,0574918686546843
0,0575500749002008
0,0570033311600269
0,0552559188376929
0,0567377989913988
0,0550212124363001
0,0562219984031212
0,0583699987420903
0,0602895141830016
0,0546788429236994
0,0589270163312839
0,0557130734833012
0,0580765987581315
0,0542751780624632
0,0583267577984868
0,0547990223198171
0,0578634134649599
0,0555693392350029
0,0549443430094655
0,0530095524361162
0,0586583272208658
0,0552966883947221
0,0575209179925483
0,0543346345575014
0,0590346428961523
0,0534256118632314
0,0539564619266522
0,0517172905116622
0,0565057868895441
0,0498781041154476
0,0537396673129832
0,0538872922513349
0,0536022000651704
0,0520420954439079
0,053889127631976
0,0510148640529789
0,0544279251848746
0,0519114459708855
0,0543002736536281
0,0508698069608201
0,0555833734957848
0,0525307737776203
0,0511253097332462
0,046477082398283
0,0548704454902661
0,048265119754736
0,0537759512276922
0,0484904443838632
0,0510451494012762
0,0479906385269869
0,0518233442210394
0,047947389761873
0,0494258810504841
0,0459706705366088
0,0512010786201174
0,0478324484660138
0,0509251775892597
0,0457721663408219
0,0498659920566276
0,0461623518942043
0,0512892757136359
0,046191230491614
0,0487486702969543
0,0444402673426763
0,047409143510032
0,0467078127808948
0,0486864596918329
0,0450781889756476
0,0499366261816283
0,040980983478441
0,0493124819764027
0,0432415592183904
0,0557747682747545
0,04964961383181
0,0436421369070176
0,0478288391054658
0,0467071540765646
0,0458474064721021
0,0472209661850657
0,0451996427046667
0,0470941274333587
0,0471368396186655
0,0453697836040086
0,0448436162777817
0,0465793601691403
0,0435817082283759
0,0457221154558916
0,0441749074167957
0,048540646874769
0,0438181647509783
0,0467549386370193
0,0427375909369153
0,0462108929906814
0,0439937018366638
0,0442729959276291
0,0425765731907632
0,0462669174246425
0,043036575880426
0,0455146657348284
0,0487189273502522
0,0454981997676682
0,0464585187064507
0,0467636980743519
0,0464276446469253
0,0447363896838901
0,0443955297887089
0,0418508919451382
0,0425683896062682
0,0430045407904689
0,0432208139462898
0,0449887321242324
0,0424623737341291
0,0442271981121422
0,0414272024527647
0,0443670981555442
0,0435429885843519
0,0445382700836969
0,0458514299162862
0,0434247166702698
0,0425027564944116
0,0437257444934053
0,0400829321347568
0,041754474859098
0,0423304683437409
0,0400945709805711
0,048249407191382
0,0489083915872976
0,0416140985267631
0,0467208524324296
0,0409632657280666
0,046757157049263
0,0409074883403276
0,045015216137341
0,0399444430281303
0,045082542165005
0,0405408503328092
0,0459481173388027
0,0430850476744096
0,0438388003001547
0,0403408778279502
0,0446732134213152
0,0405210135243566
0,0453281292851996
0,0410133780147488
0,046344228555824
0,0389810420140278
0,0474554352365724
0,0452992880585352
0,0430607527607166
0,0382910142123056
0,0419237814756561
0,0320458087477866
0,0582391872988506
0,0341163658287944
0,0483079391190984
0,0387900524865845
0,0464771452410156
0,0376715560929809
0,0448040788881003
0,0390260947929486
0,0467125812606601
0,0411447364189702
0,0424459867025886
0,0451017490872883
0,0439388557200455
0,0408080199450501
0,0429613025233688
0,0395087551724122
0,0403671054209271
0,0380502758329564
0,044880511536598
0,0391738837774761
0,0437014059979356
0,03908976473124
0,0447880621138749
0,0391720860311163
0,0460952415511057
0,0402752846039065
0,0450998000012687
0,0373494130871695
0,0421511469981115
0,0365831971649462
0,0506777268748945
0,0472142665681072
0,0396364702651844
0,0433361534185349
0,0402837304333816
0,042186821519359
0,0421919724057427
0,0421392983930096
0,0424265024493607
0,0424362722553062
0,0419450086419669
0,0423718060529223
0,0398835516072832
0,0438957669967724
0,0431870522640015
0,0418406417959546
0,0427511896223141
0,0407840095475089
0,0435660101164555
0,0419586499767404
0,044207013648051
0,0365457892161767
0,0585188647439101
0,0412082863396883
0,0495552549335091
0,0422888853786486
0,0422626270748551
0,0411192488322302
0,0432650123712241
0,043052581969573
0,046204662851863
0,0392969849141841
0,0404051543862363
0,043749075970508
0,0405524630116064
0,0401477031160851
0,0437693265467361
0,0429991406022561
0,0416907247692936
0,042600636767908
0,0410004260182349
0,04583886101022
0,03843893292768
0,0455019851966026
0,0387268845498609
0,0504403046808626
0,0353809302531375
0,0463455165546312
0,0289028703206857
0,0698255365498145
0,0436739529703324
0,0441272539653488
0,0433731972932567
0,0406633452146213
0,0454195917568418
0,0413675645124512
0,0462692598089375
0,0417993450633331
0,0402237116389814
0,0412639679826881
0,0449291384712758
0,0411169867787157
0,0424103203682241
0,0349823952840257
0,0545100638986415
0,0556306447673385
0,0412142467545027
0,0442043277646509
0,0366798119292367
0,0500448207566262
0,0577123341798886
0,038552151158325
0,0499485835847195
0,0424013744420065
0,0508163770330073
0,0418010815552534
0,0491464496963388
0,0441821310728265
0,0499059582108451
0,0436761414828407
0,0435608791556884
0,0451619661527565
0,0446003565906741
0,0458941474380231
0,0497140951119241
0,0517054332617833
0,0506725680639749
0,043268602545997
0,0524320870731708
0,0460861574864204
0,0483675214283386
0,0449630287678087
0,0508400940124383
0,0453514411781642
0,0560565134607379
0,0498243572059585
0,0498965603629677
0,0550305550813133
0,0496295165540241
0,043338334468289
0,0556189879292852
0,0436799157359697
0,0577635689837086
0,0311266448881379
0,062969288110625
0,0613006595838365
0,0511804029764675
0,0594630237780357
0,0404587060574911
0,0583066130767248
0,0429525670803055
0,0536170550845786
0,0391686506613416
0,0665978995042398
0,0365959117688023
0,0599172100293761
0,0410241463876331
0,0660565946063219
0,0523910460808514
0,0571408324287877
0,0536014305083037
0,054318907692517
0,047390323924063
0,0608753370140342
0,0465921344049309
0,0473888976067476
0,0802483686122744
0,0550732109992862
0,0669010380123783
0,0542014885200041
0,0621947441395268
0,0732535061208232
0,0486744321742712
0,0625246911901427
0,0505630153227642
0,0583521629342002
0,0468758095246414
0,0665512110146585
0,0745323371636373
0,0542858244546642
0,0611104693772381
0,0597295020907719
0,0521450979001357
0,0793783965705524
0,056433791938046
0,0671665505411882
0,0538501559310181
0,068489416482801
0,0404173689890302
0,0989181350687732
0,0574894743897385
0,0845488100756317
0,0745887923261321
0,0724898903700697
0,071636268651729
0,0700126164210892
0,0694284385620388
0,0738141869361393
0,0749007023507562
0,0694935463394576
0,0617938909286801
0,0845466811613881
0,085513261119186
0,0680803750760556
0,0831336135781068
0,0618250585148721
0,0722980223368199
0,106744384892748
0,0974746807886035
0,0844180545828753
0,084348107283894
0,0829968910891245
0,0973641072797717
0,0823387532921156
0,0888796161234022
0,0852899241556737
0,0868511021814091
0,089532089457966
0,0880490060155951
0,0982308082066726
0,0890327614088738
0,0928609439339317
0,0862093836732951
0,0943294817909893
0,11490084380951
0,107608736933581
0,117601073792408
0,0907328560045169
0,128657743425163
0,0967910481627043
0,108919545838761
0,100465650739377
0,113430964259026
0,105757896347782
0,10945719543674
0,111623872265876
0,107541604716233
0,12451798092297
0,116469349639049
0,129339236954842
0,129372666102732
0,103742993704101
0,130614739346761
0,0910005394049477
0,188672489002939
0,111373547479023
0,156097610559855
0,106982609203461
0,194874902910428
0,158929958502011
0,152990321291072
0,153656665950172
0,158794449345832
0,153623018479465
0,176652854088823
0,167647757646211
0,181272566968364
0,178401145795381
0,186121248648096
0,147896492235211
0,249932600256201
0,22555063356713
0,227592505894162
0,209833495378603
0,220714681593566
0,224557141581203
0,235920482936709
0,217045531822445
0,237450399800053
0,213427069675259
0,265085279833224
0,268390240385315
0,247712198359085
0,271888742066769
0,255790116171696
0,290729164506767
0,244881442314619
0,324937420473228
0,275408445839991
0,305837567035656
0,291883203382483
0,305914164243894
0,306274543834144
0,309084557650771
0,338337442630489
0,320137609365998
0,330827263139448
0,330161566311273
0,336583186215343
0,343989576209209
0,341135936155278
0,345764774728987
0,33536103246338
0,389175471624997
0,368591447742846
0,412132102990723
0,355430548131011
0,35968462089114
0,361029669040638
0,364690365988663
0,389206347942508
0,357049641887471
0,408394033392098
0,368715282076257
0,368206186866546
0,370100189365633
0,366139526325686
0,378035776947678
0,358710558700144
0,377323388783074
0,351055338796666
0,39732365790946
0,320414417294032
0,411545140717327
0,380528674903584
0,360097771499145
0,361094440833044
0,361544978082608
0,358559591678246
0,359559858860093
0,350661002389517
0,354848163463252
0,360925890208234
0,336221430324256
0,354499563376103
0,332865893662178
0,363041983806368
0,333703552803075
0,336783262206683
0,327376171981293
0,316536183440009
0,322346183435959
0,290858564138481
0,339570789251585
0,329386709681158
0,298400274009081
0,311057814310886
0,290449111142132
0,303470669442678
0,284983166345265
0,288032969738173
0,290062141683389
0,283829642392549
0,272886696147329
0,285355601025411
0,270889787647829
0,276728335152388
0,265865563442069
0,274311731304771
0,26090999081153
0,270251636775223
0,262577964054852
0,264755624384448
0,256213865021062
0,26251723062601
0,258010041134253
0,262440199124331
0,254349673378874
0,258677975136783
0,24494102137698
0,257169595460194
0,245593909806065
0,254012809730696
0,245068570699255
0,250624646765542
0,247147440818899
0,253543087410914
0,240913220937485
0,24846213188387
0,238300668580142
0,242560320584119
0,238930953214181
0,243763946592864
0,242395399393497
0,234474735454057
0,242397711117309
0,21559020730246
0,275428651715839
0,239260366549509
0,240518969517458
0,241093216848915
0,230940468465784
0,237642151569977
0,218208862369585
0,265297737776747
0,233525327141218
0,234579109726365
0,230046351935377
0,230202008821761
0,240926094152735
0,241594135057607
0,215036161145157
0,238447706954714
0,177337394447914
0,312640696645191
0,194374612576938
0,287327017994464
0,241460518898672
0,226544287928483
0,217356941272885
0,252859116103609
0,248032150429368
0,215142019820643
0,240834057293116
0,217537120476452
0,244590377621267
0,225634759805212
0,224022824587073
0,22352046340693
0,217520250988228
0,235159346701052
0,231339163150791
0,214748526508329
0,246400103889556
0,229844637019126
0,199606598313776
0,256163359734101
0,23773958038526
0,226765168794712
0,205519284994849
0,216130280425531
0,204439587332484
0,213542151100732
0,226141117487653
0,200350837723013
0,20898144499881
0,191978572187984
0,200646226633941
0,210859254142067
0,205528782573778
0,203092188856857
0,189153374541969
0,215982882440302
0,163667748729287
0,221008454719659
0,183880013295221
0,236918509971979
0,19299447907309
0,196954410739423
0,183270839037176
0,211121291897562
0,196399183893275
0,186041812692993
0,190419805885508
0,182493170135726
0,183273848755907
0,189722752747879
0,160732439406471
0,185272486195891
0,180807938051927
0,182802983579317
0,199678579407588
0,19497256726354
0,182668334596471
0,173471155522347
0,162181351042498
0,179146782611769
0,158329274071056
0,184819133377156
0,147327073340243
0,187374951325095
0,162456129044869
0,173127088430963
0,186713065937202
0,171200423352301
0,173266536736964
0,17659369210968
0,169839592391671
0,192416609785445
0,191276667810186
0,199463873434101
0,17279187453357
0,191447044775614
0,193240037975336
0,183519554349214
0,190631942995342
0,192738434628463
0,197301006394801
0,196973930811289
0,206245917115885
0,209485788694529
0,208600209358753
0,222301090775918
0,220204247064634
0,230689623582911
0,24100740601038
0,210091913275144
0,268335324142351
0,234372291719459
0,27534964549943
0,247367723858236
0,256294200444002
0,263210211757925
0,2668095093962
0,273741455790455
0,271956128864847
0,288266111254768
0,297498939710616
0,279008006620076
0,300828739866067
0,285679105747072
0,307543033909125
0,280341682960948
0,33282355451722
0,281660451630102
0,343574768504078
0,317081866456705
0,31638101745499
0,3170545619127
0,312189181924987
0,32649830299052
0,312804870237905
0,316897866947521
0,311760979697615
0,323454064095407
0,339155227376852
0,316338021310853
0,326529479783201
0,325781630786265
0,330585161155348
0,33144378577572
0,333830301006796
0,335819476110746
0,335382934821307
0,33462605712091
0,331360722620693
0,345171881431254
0,378635189237596
0,33627863458745
0,357850212568419
0,343475598946338
0,355940815210948
0,346752616577945
0,351023172402168
0,369507876836503
0,35777846015402
0,362795415623752
0,366033205673945
0,360984843510604
0,377173839458723
0,367248956673706
0,387527717523652
0,356833553868215
0,390335394289022
0,342906616071927
0,41249166397647
0,391328552971653
0,382879142777053
0,390169737432846
0,379473838570671
0,383600741888503
0,381736515271649
0,388730303678322
0,377356551358071
0,387879919984187
0,385256271185418
0,390778487338001
0,384122985150822
0,382923823742041
0,3831061513821
0,381735885512649
0,395062769914205
0,376991325469586
0,377615867433196
0,375767419862485
0,381253293472138
0,373725288863026
0,398055629599868
0,377703871783231
0,374028599207901
0,372782477431202
0,381623446428703
0,389901653663969
0,377097046042638
0,369887829452113
0,380719462435704
0,368143153447389
0,379367762541569
0,367348212470332
0,388347556399174
0,389751273297096
0,379091300062725
0,383855248448787
0,380008910760853
0,393790719971846
0,385627029699124
0,394024033581654
0,392044835011752
0,399599791320816
0,400140720684952
0,40738059951226
0,401733241521996
0,405925115944132
0,400927985595531
0,412132760039736
0,408909035994807
0,402554791015371
0,406763909914826
0,404045202925751
0,4041923395827
0,404658189747884
0,402667251917448
0,40180230836729
0,395852944005137
0,406935354808718
0,393385868468608
0,410217367028156
0,382486933093408
0,398612104743108
0,381378744036388
0,385690697660333
0,380810647094386
0,382797542484424
0,37785699938273
0,377880097564138
0,376442449851225
0,372280225753874
0,370293496082802
0,371691716867802
0,367952192232301
0,370143120832445
0,370475914253921
0,372824646100044
0,371185732331222
0,371811095007401
0,364791069030213
0,368736616851998
0,363874583181086
0,366004951288563
0,361891583628796
0,378588586494844
0,367921411961734
0,370344747452391
0,365037342022297
0,368488974958191
0,360684245675823
0,363905093470818
0,36237991713642
0,358370674915977
0,359481467114588
0,360077105397201
0,364768579580499
0,357357094802269
0,361959288404156
0,3607878653574
0,358360027651139
0,353630379023722
0,357551665473706
0,351045208670445
0,351240715817537
0,349565174116893
0,352029322061738
0,34909528868023
0,349758787089234
0,347339193043272
0,348619781081272
0,348261199939208
0,348815660504274
0,348323541596766
0,344640015130434
0,351599207814859
0,342516924360504
0,340224314240491
0,346733953962582
0,346260974231346
0,341154071212563
0,339680090383305
0,341612529827622
0,339138230212327
0,338693122926309
0,339015954154883
0,336648485396511
0,329059838872708
0,33093635529778
0,325585589510181
0,325387466148375
0,327188150299159
0,319539951560295
0,315131827453928
0,316250303136832
0,315950166398787
0,308560678292258
0,309491245135945
0,308618007124856
0,304124059714898
0,29937844299085
0,302075738715202
0,304045649721396
0,302971861533339
0,298331258384022
0,297446075929503
0,29474373247962
0,299064929980099
0,298180516413338
0,296010625578661
0,297190359488096
0,297187425524568
0,296412625341074
0,296844784534424
0,300635861277867
0,301161530688068
0,300613901220478
0,302480810130218
0,301179722798198
0,302589815537784
0,303316310980074
0,307343747564179
0,304014111491319
0,306595845019316
0,306366454286266
0,309462848147245
0,312513171203316
0,311893213793774
0,309365780668244
0,314080619961473
0,312205775374281
0,312411926601508
0,312356536858496
0,315485900720301
0,315379462675028
0,312646336961844
0,314698324857582
0,315537433989083
0,313194960156221
0,311788863192886
0,314783682389625
0,314491157456448
0,31406421730586
0,313681984995109
0,310153447333308
0,310999900662094
0,308880279723609
0,307200137999315
0,308939574827449
0,3078615072953
0,30489688008289
0,303876009927712
0,303182378617705
0,305177140805555
0,300894309085502
0,299891540041561
0,300456377371311
0,299890101944796
0,298594550893223
0,296911736153465
0,295900019688321
0,296199261568197
0,291324199741392
0,291821366683341
0,290505765164975
0,287822577922735
0,28452538726264
0,285979921076798
0,283513955847491
0,282892244536326
0,282813280623312
0,281655708932156
0,27529851961448
0,275389123330026
0,274047815326779
0,271615574197968
0,271344616527656
0,267295509533305
0,266826804942208
0,264427844296685
0,261348935616944
0,261709364116939
0,258836213083993
0,25846849531339
0,25905135163922
0,258117306328465
0,256665860861728
0,255080879820437
0,254111589012718
0,254277270772149
0,257372227847849
0,254742045339132
0,252857492133631
0,25564518023432
0,254178585268952
0,250886860762597
0,249074287031566
0,24737102947472
0,248772438988356
0,245093011340095
0,23872938023396
0,240122508266643
0,234854576557427
0,230441994201734
0,228822847145256
0,225108660576587
0,219961963775269
0,217833413634341
0,214870272164853
0,214205405038782
0,213927601338221
0,215672824781045
0,214176680217106
0,218072170593258
0,218748743897634
0,220505265678049
0,226023125636261
0,230921966400993
0,236980582738658
0,242805912304392
0,251689993559344
0,260205918963097
0,269341272351927
0,276841942589205
0,289493971578663
0,3006529437911
0,31077770077959
0,321490197300774
0,33139686801373
0,345174035224835
0,357745061907078
0,370123657641206
0,38577984449705
0,402066668243815
0,416706442759257
0,430649011748785
0,446372823142272
0,464057273917875
0,474621931745149
0,492538495064389
0,500358756050786
0,515039129002801
0,525161009094911
0,539608515964988
0,549091085011823
0,555536507163537
0,563227121173284
0,570959674467507
0,57232501147611
0,580038098275282
0,585982580818622
0,57995743161191
0,58167728615777
0,575746784715193
0,57453474394927
0,571427594100803
0,564024448715407
0,56194126646068
0,565323405396216
0,559660704927015
0,551331510903824
0,550301601112747
0,546360444448314
0,551233308209204
0,549019703004867
0,547896242696442
0,545639041075802
0,546550425881726
0,5468664632829
0,550723642790351
0,554521033296671
0,561201040613301
0,56601018211783
0,572989817952169
0,576590276281372
0,583099636511048
0,591806582176806
0,60168196673094
0,610497581147859
0,613750816584696
0,621046663075651
0,631100394441101
0,633512525882676
0,636750369300574
0,638837940109368
0,639731041950803
0,644558149002165
0,643100608612819
0,645900134203761
0,654662848822726
0,654923339733873
0,654113280781267
0,652922873558086
0,650255937779298
0,650197634487236
0,654098417262691
0,655704080541752
0,65964390794504
0,663141882437654
0,664391420978264
0,674702555636153
0,684711797807673
0,683087889611586
0,695954448196391
0,695637718702384
0,706285627525081
0,714820127707574
0,722825473376404
0,728799264966784
0,736499870878796
0,73734527977111
0,751760938483942
0,760882801702064
0,774495598388194
0,787527979922141
0,800570103161248
0,81167150586228
0,830830026760549
0,84228567652328
0,854383391674183
0,889102393602809
0,908923946854801
0,922944297970339
0,946218640719986
0,971383775073996
0,99945116693978
1,00051149651846
1,00976017783737
1,01369920500486
1,03815047382233
1,03528039106146
1,04816823867716
1,05182850813816
1,04069139994675
1,0558689729345
1,06902707962292
1,02791928447692
1,04017349645883
1,03343861450172
1,03137904551753
1,02273424869918
1,0340049982721
1,03643712973595
1,01835565365512
1,01378202526871
1,02515067673011
1,02860765158316
1,03409381496458
1,05326862527639
1,05960496180057
1,03339672827872
1,05719828568439
1,069100685321
1,07246684300009
1,08594952815922
1,1121173717274
1,12373508766575
1,12882364728978
1,12542275628521
1,13973501133911
1,19356389618817
1,21239684691031
1,20377126836875
1,25591297859912
1,26416297769967
1,23672470462389
1,23687050479659
1,27501266016564
1,27119666960422
1,33118949490495
1,3098812155153
1,30170282216899
1,33884097560882
1,37764644118798
1,35816748413175
1,3629775487321
1,3951614587298
1,40965441256424
1,42908630590843
1,45258450710657
1,49825349363255
1,45234605514046
1,45695595573647
1,5379499365037
1,56530556582606
1,51736082066383
1,51499677833392
1,55313346144474
1,57918495368538
1,58676575029276
1,52843185786948
1,58639736854494
1,537435344487
1,53710498976668
1,55270586703012
1,50889759876983
1,46837003965146
1,48115760828725
1,41619375491575
1,4740223421758
1,42798454781448
1,36419972351915
1,36332922534594
1,35804031344714
1,28316616255434
1,22676587989901
1,22870171387669
1,25126062871991
1,17831392310752
1,20285567542842
1,16938625000972
1,16037002960666
1,16092753304311
1,15170351887518
1,13726018202907
1,13423532506847
1,10086041867129
1,08148566321349
1,07656413416521
1,04730941113901
1,01139305410017
1,00139625220948
0,988073307815696
0,955861185111516
0,916016689159471
0,892218856590623
0,851387149774069
0,819878728926139
0,787323050618744
0,743209563106511
0,716835359470582
0,675580075914679
0,643751140508337
0,613719283712816
0,580988583486511
0,561330375550557
0,526493833788581
0,504349618729175
0,478101275413048
0,460151748168447
0,44763242946918
0,432184424736633
0,40406315706773
0,40029646137741
0,38634911344669
0,375326865370556
0,364986042590886
0,351851264631011
0,339656415905533
0,335146839460329
0,324146962996175
0,32371532557755
0,321992540047654
0,315607183127226
0,31543182167726
0,306521710375482
0,301387740939659
0,300163725069483
0,306184614828577
0,303270040842358
0,303453993578966
0,306948797269115
0,305030391517215
0,306758684247416
0,307675444416712
0,308681327899453
0,310825566196973
0,316412161234669
0,314172719896696
0,321622823595071
0,320665571239477
0,325805107281816
0,330403738229583
0,325446721341796
0,325047301285167
0,327707359484781
0,331556632175005
0,331949784229557
0,330905966828804
0,328743558542315
0,332650333598963
0,329441484479686
0,333645835696882
0,33419662942854
0,330509346669332
0,330392500721468
0,338398203748807
0,33939072685666
0,337582084650275
0,340183629309914
0,342278507692519
0,342916851010885
0,340869920480505
0,333936769661247
0,334585577961728
0,337608016130295
0,33628766740942
0,338142039672164
0,333542525425947
0,328965336642456
0,329696709111331
0,335140150705298
0,334211236633102
0,331811727829501
0,327723679795199
0,334326794220286
0,329245539449722
0,330558305636802
0,324193120475021
0,332174176377521
0,330908211052138
0,331076654634408
0,329233572949508
0,332074304550578
0,347276056473998
0,352897227239055
0,355269494654728
0,355396914047061
0,366437581777463
0,373136894541738
0,37464108870016
0,385618574718737
0,38640810618913
0,389985863852865
0,388452428850891
0,388684840536486
0,387852343981858
0,384632785200957
0,374667308276354
0,383452337016206
0,365767795453711
0,361304395673221
0,355947647821768
0,360134598218352
0,350434621297908
0,34711460188945
0,347614326327418
0,356419470223889
0,354727274742064
0,350304491708114
0,345470645385947
0,351867773915593
0,351320193513299
0,362654281776824
0,364283594027248
0,362691357118667
0,352995058181553
0,357021712251793
0,343562126812846
0,340387174178591
0,346849898234555
0,342809178499572
0,341836344492381
0,354695634098296
0,354624047967208
0,347842194508073
0,349495767070352
0,346425532695031
0,346636824118759
0,35519731946662
0,357622010761066
0,350878755757445
0,341861395559032
0,348432445555619
0,3433083027506
0,345889774213977
0,342736543588476
0,34635633185272
0,345613895131498
0,337808600428359
0,338005731270786
0,344702301539896
0,335044080729594
0,340060709862088
0,33486699182475
0,348399391700108
0,344602368033867
0,347822059586374
0,340503217087481
0,339221771105198
0,322947700374315
0,328183031034497
0,338939772022717
0,32829644057489
0,330573073411995
0,3223819806969
0,327037145599561
0,330453411177761
0,309040889279167
0,321023455728386
0,309427434358752
0,312351125179083
0,323639571734747
0,320944033751304
0,313422120233557
0,317136410642043
0,308118780230609
0,315697019009872
0,321050868753821
0,334483456837253
0,330281448835285
0,329714128456033
0,316565224549282
0,323908838464912
0,31722055552923
0,329930129157365
0,347565071598112
0,33483198184446
0,328656567912834
0,328606458195829
0,337603797378138
0,341463473536154
0,351586542062851
0,3411836051092
0,350815241390065
0,335419545998742
0,353501446702262
0,364747118113131
0,351718028074256
0,369675763459375
0,365113101360997
0,374911810808357
0,356860554972687
0,378654319031356
0,369989906569293
0,386416452837564
0,377132708249274
0,398199511538903
0,394873787334385
0,409871420399478
0,423453179463839
0,43637189916193
0,42129839849594
0,431986702257552
0,440620370530452
0,458805869950623
0,467048719104808
0,480116303067161
0,485010046986089
0,481379912388235
0,490103762566054
0,50560441967313
0,503388671857357
0,526628494959516
0,53021011533384
0,520300927709484
0,493845663643679
0,514434255586312
0,499488853821257
0,507088558842414
0,501041677459746
0,528148341568759
0,512653354663987
0,507144269172417
0,502940773757202
0,522196710382051
0,496482117051545
0,517331311886375
0,515008751788471
0,521072535938628
0,509250629618822
0,509213771987957
0,491535291304122
0,530088450095681
0,516498188599482
0,525923844023148
0,477223050840149
0,531789129648486
0,515173747048171
0,514805436820309
0,500919681782062
0,52582145488387
0,485327110246609
0,532575743810852
0,515786927866148
0,532466113929351
0,469021424277866
0,495035666809303
0,500210192215329
0,505362159978242
0,454151083533506
0,490966722943005
0,475954641585109
0,492226742090754
0,492411305450719
0,484217072002082
0,474948173815757
0,484468905345637
0,466970958116768
0,452184624038251
0,517851957308588
0,513973096401792
0,499447030483447
0,488052996298046
0,473581886941995
0,528738502913512
0,443173079257577
0,485553872362137
0,52781958592238
0,500596141833437
0,511518676920267
0,520137561516032
0,485928296080225
0,520806256560912
0,509659200907024
0,543465318104056
0,527987207251926
0,567127497936
0,549546033070404
0,56271913215426
0,553019530353232
0,571933896765094
0,521584962644906
0,565069430736019
0,567844991880226
0,651097112158341
0,57268274453489
0,635034257057342
0,57557895480876
0,619075272468048
0,589555579881295
0,682761290600657
0,562818607561954
0,685585499961992
0,608796735844133
0,612789521351785
0,602460837054528
0,636601558456037
0,713525668106702
0,717900763639035
0,682579778335571
0,678893551944926
0,649291758667803
0,719874755770445
0,554934473130747
0,702614929728316
0,579904453508048
0,748488848019734
0,671451643300395
0,653904312485869
0,526523005440487
0,623226404640191
0,602953312551726
0,595409672949721
0,731198884717869
0,649004570387497
0,486009121380177
0,623964850107947
0,561064936204608
0,597067760831043
0,594432782470043
0,511780273609942
0,558814599904399
0,779046052023394
0,739727064880472
0,712991803849009
0,532800093678963
0,734077061696024
0,518212518246557
0,850066820059857
0,638357843098573
0,758246502006298
0,550415924100182
1,07812413114345
0,601814873308671
0,839044242831515
0,288502702169557
1,2020328121359
0,62430397166414
0,91064282835691
1,07831744716016
0,533961183235606
0,592179646966234
0,94900959794162
0,703028285964828
0,700976775449796
0,596706762013347
0,584881149306963
0,539611369126095
1,09612459633066
0,528705282094902
0,713764801112856
0,858710462393342
0,715469943491402
0,350046179744652
0,473490351691837
