3596
4000,36533379555
650,420452594757
1
2
2
0,056614050813463
0,0692504491093633
0,052111645544278
0,0641932389244695
0,0502696839758822
0,0703409310807726
0,0477069278579366
0,0608489484248853
0,0443425165138063
0,061528298651366
0,053254328491452
0,0657457800665184
0,0474611308300243
0,0618490798990534
0,0471327653552029
0,0624421523255023
0,0578020736921136
0,0630605183041187
0,0536693743987134
0,0595959734769036
0,0506888163279781
0,0543563856502256
0,0410855601777232
0,0654565736485741
0,0503966144193849
0,0496622888456905
0,0477329508788196
0,0575926148985078
0,0422308334133126
0,0571862397823967
0,0517587388003602
0,0634474594618349
0,0530863619621727
0,0618682506525323
0,0509984356409799
0,0600990454126668
0,0445462358354674
0,0656288735881226
0,055214961549585
0,0692175818781445
0,0505717612069003
0,0603596420360924
0,0507107956366925
0,0637473860712707
0,0451346824062472
0,0595181211770324
0,0504815354850777
0,0568287166817219
0,0469836627208801
0,0648305108582959
0,0503483774611153
0,0577298746941121
0,0425597777588965
0,0727371254600022
0,0498028964027242
0,0656118126928801
0,0516543512653924
0,0646757580839343
0,0469904214997518
0,0492661765467238
0,0513021110049578
0,0650833760441877
0,053267989103715
0,0559850196664577
0,0558834365125932
0,0683597751559098
0,0589076291853796
0,0633281657320985
0,0461124713649293
0,06036762766328
0,0461356733725339
0,0685921011580412
0,0576957035346875
0,0624017858532429
0,0535382756738934
0,0645288487955327
0,0413573443119936
0,0541921124463397
0,0354057446937314
0,0506947792925517
0,0563984464395529
0,0547356331791689
0,0438248940487267
0,0448830187521434
0,0457577551813261
0,06497932095468
0,0392181427041259
0,0497043682990951
0,0502481567984606
0,0661358255823995
0,0475693970294707
0,0599914952900293
0,0447720584198798
0,0617865200340788
0,0447933818016895
0,0643603346865576
0,0429391776584361
0,0519699978705776
0,0494948706531158
0,0530663188996122
0,038577221169762
0,0793108456511379
0,0559185396268806
0,0578617031974929
0,0622506842422804
0,0707476863193713
0,0247278252277484
0,0720910649088161
0,0604384724339706
0,0553369952534165
0,0362011666169133
0,050334484299183
0,0452549194764121
0,0436538347094018
0,0354127510023342
0,0594754232664609
0,0601144926641642
0,0634144635775822
0,0521461948626204
0,0496657674856694
0,0267851471832804
0,0716244356615264
0,0722470241475981
0,0677556825036621
0,0515534455301465
0,0577242039098966
0,031988686534957
0,0808701082176242
0,0556696214082218
0,0601684729449189
0,0328916755315333
0,0593763299710787
0,0360242757747877
0,0481008799429453
0,0578090843094112
0,0671340186395103
0,0341288992088983
0,0475744320680246
0,0360438104883501
0,0911353233573328
0,0609579264046679
0,0548924370829684
0,0205734730039865
0,038869400023626
0,0694092763286296
0,0614718267615444
0,0299539569870976
0,0715330775338046
0,0435577118305629
0,0470160249648315
0,0334771743556502
0,0410532517518125
0,0495791903344179
0,0523930997336411
0,002048874964473
0,070736930576744
0,0675436843138928
0,101215434171319
0,0699174838387117
0,0666544275329073
0,0386662503129856
0,0576072245635745
0,0317632847640669
0,0574889908117141
0,0416608154210294
0,0430583559250073
0,0500756060456232
0,0763073901306861
0,0377729612023318
0,0580054471159605
0,0633076318398202
0,0465210408797863
0,0215925022183454
0,0897463512196591
0,0517994590008347
0,0444846570598492
0,0624037761558713
0,062744851134179
0,0243113750562187
0,0519058080535985
0,0586525886741989
0,0591841469436977
0,0431155068236804
0,0567228839942346
0,0353354543373315
0,056075819313409
0,0417160096352293
0,0570495872582758
0,0351065163541087
0,0378462322305992
0,0195802171251874
0,0933976810397292
0,0590746346351049
0,0655685152300202
0,0364798041613361
0,0371613316410561
0,0272939791605459
0,0822606896982598
0,0416923746833879
0,0567194272771256
0,0400446474573438
0,0501376591560832
0,0399125335485759
0,0638524847304918
0,021739337148878
0,0332177456849293
0,0523035728986847
0,0753317655875107
0,0370523597495874
0,0527809144497858
0,0228044532140205
0,0334657452845643
0,0664351184484646
0,0858954705148346
0,0489024971912247
0,0540999085333314
0,0380967028862597
0,0672298405841381
0,0469089593289749
0,0519401704080314
0,0419460037907042
0,050313196574327
0,0297662946059811
0,0549552075826072
0,0415434259835048
0,0499458577435334
0,0420575374535781
0,0513269088480446
0,0352289137499598
0,0552128680000601
0,0508770746039601
0,0588079765479802
0,0468962840307339
0,0540918992513619
0,0287520095512192
0,056837118373529
0,0566427130690927
0,0603298007386244
0,0499801159970257
0,0594581453127182
0,0381843815446216
0,0569427640946626
0,0461180512056728
0,0601807025390091
0,0295895227265887
0,0498693110456474
0,0530823318372917
0,0692959210504914
0,0431385527145035
0,0525526660343633
0,0469103590076359
0,0694901690762918
0,0412643096587045
0,0537187228250225
0,0457188269976712
0,0509818469558289
0,0355973578980176
0,07765504420954
0,0506571459188099
0,0545218031035739
0,0530113938576465
0,064036371041405
0,0494667495168186
0,0364873757080601
0,0190175691243375
0,101569537614191
0,0616253152442407
0,0415332669012946
0,0682362212202542
0,0856694470320818
0,0493984344020821
0,0428762336525623
0,00428033112354454
0,0913848161622682
0,108013448650126
0,0658334222005857
0,0487753145776779
0,067459635546216
0,0499455188625692
0,0554396815416184
0,0415614806812096
0,0677510580591986
0,0628063684822664
0,107383894892708
0,0750102866386777
0,0646107909377333
0,0423114501314995
0,0796900559163626
0,0530626003746096
0,0616580534070715
0,0433508257379733
0,0578060263926185
0,054820859985336
0,0711748705010092
0,0605396047672098
0,0626171639249387
0,0522228545528026
0,075406043078321
0,0675411483271945
0,0604975836729609
0,0592367523052032
0,0757167446419445
0,0602642315767995
0,0640167964328894
0,0569487008196958
0,0789816365205861
0,0474857046083332
0,0562085131143441
0,0890435747171432
0,0773143500424229
0,0665142263003023
0,10048163533122
0,0724476028263532
0,0799514203857799
0,059515596663437
0,0658878147529642
0,0619932326123145
0,0629387204093022
0,0544373650840732
0,0836547951186634
0,0715121745094422
0,073777312559758
0,0643373902761913
0,06881546907442
0,0669908117764837
0,0753399283103249
0,0664809652977652
0,0853948015365316
0,0714939832537482
0,0763027941410525
0,0694325593647411
0,095859147694836
0,0674094735073102
0,0972972997685991
0,100320564356551
0,0853918828402519
0,0621786443299002
0,0849068347422452
0,070944148270422
0,081357572830398
0,0732524455694766
0,0825827218105196
0,0811031644128653
0,10546297573597
0,076867208895916
0,0874495629073802
0,0621142808634844
0,145965332799192
0,117889590567374
0,122115989900632
0,0801033111090761
0,0912213793208185
0,0917297584215111
0,118335305617415
0,107887455462591
0,129029841339427
0,110362561932455
0,104712487317769
0,102481997304608
0,108778157729177
0,10357493054861
0,10668643826812
0,104962544328752
0,114982304729148
0,110942366241609
0,123763167227785
0,103837256563739
0,121225774060291
0,13648359376544
0,145182290785028
0,112700295652309
0,134162170974956
0,119617257752173
0,135723008794707
0,142978271776901
0,180672871231809
0,126223950283118
0,167624520023444
0,150638628489839
0,171177686881136
0,139102904639722
0,143617477231993
0,136195916512913
0,171084122243382
0,145407076113336
0,160866969253372
0,158015546467365
0,178539454737255
0,153432655318836
0,174633913085071
0,153111166627954
0,178601269112407
0,176575041996285
0,188670878997979
0,165825577085057
0,184778197902633
0,146462958870127
0,243045402818408
0,19973645789188
0,219208027200818
0,197167773661993
0,209261014339882
0,196567049678576
0,204720324072373
0,190927406775276
0,217936808702585
0,192792637874324
0,239930656049006
0,209976692663758
0,23771519274948
0,224039734433607
0,238385930335297
0,225676368437668
0,238126253763135
0,232765687271511
0,29050084318042
0,236450484394994
0,23144298479802
0,240835760313857
0,274853536274817
0,258896954536024
0,272509367054469
0,253561828153036
0,25996321330602
0,259103613507701
0,275655169204253
0,254683837214698
0,286438238561007
0,265489765257689
0,303939777040464
0,286474676413824
0,295747026424812
0,273549824725726
0,303991337895859
0,282883315752992
0,328510735461416
0,296289257420641
0,314204124677022
0,298580317388497
0,323275115287625
0,306182186544219
0,34709640970828
0,327482476041664
0,359176781665242
0,32318165817354
0,339009217794367
0,331049445152735
0,351925939386012
0,333867401777517
0,372351438277089
0,333144598117706
0,352003748963794
0,33574582921186
0,377076735235854
0,359094405948759
0,401921697995688
0,361979743179476
0,39185437128944
0,367284863597725
0,383970115510071
0,389416554709097
0,42369817606668
0,414401968597023
0,437636869913627
0,427022040784019
0,454287464237459
0,410617319428875
0,42655999862991
0,409630146473904
0,417870833887131
0,404029008184069
0,480534440991997
0,427724381647222
0,454741921379813
0,432677455378295
0,461365433819484
0,451586884549121
0,467333621546875
0,453007936449545
0,499240345359292
0,463636526371094
0,504809951594528
0,444556348904023
0,498924844552215
0,469950019285023
0,491197083615793
0,4589775290184
0,498479730498683
0,46701798194765
0,516396578809553
0,494459378900691
0,559847606561931
0,522848556265732
0,545065120594133
0,518240217093548
0,560263533429732
0,533741439631011
0,588309997521924
0,538022943885422
0,584142031971028
0,539929277444686
0,58162383678272
0,542919074921664
0,571228432587815
0,548974692089996
0,584939777961827
0,570981234317358
0,58631395050507
0,547665602040653
0,601334346661699
0,550064706646588
0,639526879444432
0,559340752455176
0,6245216532347
0,591567561569168
0,615127902048061
0,577971500711004
0,667002915486315
0,610901288080919
0,668441487428188
0,606151290874853
0,668503151820942
0,619474857768726
0,691943245873792
0,623176671927899
0,698514856649977
0,621851938474551
0,703974285084881
0,634906913866388
0,660778700815445
0,654194957155614
0,712214612304789
0,646720156977764
0,710978514382263
0,655960126352054
0,753710591166722
0,67432363911056
0,736552891483616
0,691355190446911
0,754863325517873
0,721568993887192
0,739999393286194
0,709204648932768
0,732767922950595
0,705891682790387
0,761672115136751
0,730011652223208
0,76592001062288
0,725401912887777
0,771232177186424
0,728642426579231
0,824157398751962
0,740582809877408
0,790846428829198
0,763769512154215
0,823618589399215
0,779127194021852
0,780758790500789
0,73130964934704
0,79995412108397
0,776092746088865
0,825791270000923
0,801565489470965
0,862234593168341
0,766488759700324
0,813420825699684
0,780701643708806
0,871906592451672
0,788955600474239
0,847847032788055
0,832480959396364
0,830832857907253
0,820793751403292
0,929304579078771
0,860071908930603
0,88464707151576
0,820231791125532
0,898256333386267
0,817574742166148
0,870628164545623
0,794676284018031
0,980099211672004
0,85377464287079
0,928390812843629
0,820046686502375
0,959340832407684
0,871572753086002
0,908510775516527
0,879445544863443
0,994219806485258
0,890047719648673
0,954982449267023
0,879103968928486
0,958734709228501
0,960166989579561
1,00730196016441
0,920306988950702
0,983340235075818
0,890942182292834
0,946480368030772
0,875589483705564
0,977516098043704
0,933023105147672
0,89215976644198
0,96773293567136
1,0000183859715
1,01232396167733
1,04050932040022
1,02802491461414
0,98528587680658
0,987456068012355
0,985443993913192
0,967521757100197
1,09766865758641
0,965439780295436
0,998289695674122
1,02482669106749
1,07308537664713
0,99682959015053
1,03151871747126
1,04561330581243
1,05431135180049
0,963485007965099
1,09965875203258
1,01362738410912
1,14792647738128
1,01129187292428
1,0696842386573
1,05343998997795
1,09646348131005
0,999469613224272
1,11843437417221
1,02268111235215
1,08579004739228
1,07596910432867
1,19450435859327
1,0810956824093
1,13772739756465
1,014132287657
1,11506629904542
1,02390363646336
1,20225566631962
1,08907910145069
1,17812522978728
1,06492797549749
1,08800796465927
1,07562639867864
1,0700324029653
1,11677604980311
1,17758687445962
1,0183856171665
1,16648237693192
1,06907661129204
1,17576482219417
1,08179578167159
1,24465080312482
1,09262990310966
1,263606205507
1,09675915863902
1,21304304075074
1,02801766090864
1,18817945815011
1,14207749348017
1,14360542896976
1,09554629305425
1,37014273880764
1,13700471049266
1,26213068852938
1,1783930872467
1,27166629939674
1,08039792063619
1,19127198473774
1,06063240817325
1,21158472436878
1,06525419281181
1,2857431539091
1,08682373343574
1,28014875080869
1,13622927402341
1,16815764828842
1,12994853095055
1,26980348229436
1,19407422684842
1,31247174587743
1,12192001037096
1,20235123617429
1,19498275438952
1,30966631925403
1,17496468725475
1,39848746077331
1,17675233636903
1,32688751557831
1,21505797971961
1,27490327061758
1,13920979042892
1,23125023231571
1,21440879884403
1,27510627032322
1,25091466299791
1,2505301454858
1,21149691141953
1,24284682814357
1,12475746153028
1,21900554363222
1,19173513208375
1,22807043591681
1,18694799118711
1,22439450250466
1,28048186974101
1,31929450535718
1,24151397144119
1,44546213155594
1,25530782896738
1,2622204500736
1,18595644517703
1,25414473120176
1,15418513997726
1,22677688891377
1,17332931201189
1,29558656362864
1,17866752679551
1,18984513530451
1,22702849607535
1,28374744104556
1,29792022533966
1,21928280179583
1,23122226145926
1,29932335349646
1,19291494992837
1,20133817818312
1,18018912416824
1,24167083527611
1,26319530353404
1,37073163845805
1,1943104236047
1,37494503181869
1,19298672352588
1,37008974124452
1,20160147421713
1,27959505780293
1,2052216179276
1,36385962069061
1,22221275946946
1,3166465700567
1,19299903042719
1,3566915810896
1,23900616908011
1,26205472696973
1,23453521863335
1,33727611578106
1,2544763065768
1,2901617151934
1,20476670372402
1,31521023815679
1,18071566458871
1,33550792696538
1,27473985912292
1,29622484495148
1,19441504429301
1,22635461505441
1,21475678037056
1,30808208615305
1,15829984218616
1,41621930879215
1,18132037667251
1,45989293344007
1,29130698381018
1,33667320286107
1,2166349982212
1,39310166383191
1,27507997231233
1,2738729849036
1,24183292128197
1,25065129211549
1,23480454857101
1,23934664579034
1,27512463287529
1,30372918633598
1,22758581011326
1,31722069032197
1,21312327273952
1,2568046375409
1,24770909856687
1,29976020964458
1,15799159256527
1,25587523894119
1,30519349517774
1,30762293264851
1,22837279028858
1,24494560440146
1,28916420130778
1,29440011407394
1,27442659246024
1,22460106792737
1,20728120012959
1,36325866228264
1,20432330060533
1,3159310121044
1,13064648548995
1,31354060186816
1,24026658684429
1,33398660862967
1,22134607590186
1,2706881888456
1,2291618142201
1,33798704187622
1,18938897338192
1,24716283768324
1,21572214259831
1,24224006878156
1,18987797801392
1,30537943334114
1,17563412347134
1,27650164640535
1,18831653692578
1,25172815025962
1,20933888458571
1,27752409471052
1,21736390153193
1,22720131497814
1,15191619412676
1,19814671545407
1,17044870525503
1,28245129841071
1,20107921627027
1,24199757188499
1,23638822194009
1,29421643397839
1,09840264546866
1,27735081667328
1,14163049664757
1,19188472774173
1,17166571931419
1,23994934230751
1,10876950575607
1,29210357391732
1,13829858018429
1,24295672683237
1,17927974978461
1,27297238967615
1,16485994780003
1,22189697814709
1,08996104127052
1,23247833513573
1,19486625520572
1,2372953547646
1,12694133133946
1,18955190630299
1,09398933656926
1,16770797970301
1,08890025440517
1,11329003003713
1,06925996041069
1,14527454197841
1,07770166810602
1,19432275483556
1,14678193827218
1,15787981735124
1,13477904562848
1,19067519431449
1,06650417122032
1,13710726032452
1,07627437266751
1,16977906659949
1,08857395882187
1,11257858124185
1,05274216691155
1,10348180747799
1,0898368140721
1,07450452076255
1,05724614617644
1,08519552305007
1,04451417854396
1,07311659007651
1,0256050246085
1,08892806123922
1,0092739822425
1,0627165751602
1,01479266826484
1,06943482413835
1,0137842642594
1,06263279757588
1,01280826797585
1,05502847768482
0,968364464135914
1,0108530286831
1,00631248471291
1,0352793424664
0,986395730768266
1,03025874753239
0,986614400465096
1,02545618538263
0,976894809241248
0,998060572830399
0,957456682777787
0,998484924734187
0,950775558320255
0,981298083744308
0,942432168195281
0,981279847969513
0,906186958570221
0,970086852457141
0,909591034602409
0,954660843688198
0,898869683233426
0,979820469437515
0,902642437006565
0,935387113982209
0,930961664553036
0,933059290624223
0,907382591851163
0,918444360763395
0,858051444000492
0,945491743868446
0,862056791328723
0,928074373623478
0,878381025494645
0,899216259427557
0,874398618359191
0,937166550619038
0,84497509259218
0,888260355163731
0,843905980248961
0,869880865879832
0,850409199305054
0,871079408188796
0,806210349552397
0,881322558949763
0,83048906410531
0,838911339255461
0,813406825466616
0,822936404823018
0,781887419330465
0,840809401215837
0,804956690006959
0,809686695691302
0,779851251096903
0,820559682566358
0,801945779017928
0,799769207830869
0,750598131946181
0,777116520552141
0,744349545012149
0,804638478505583
0,746465657530138
0,771974051063315
0,736180882752101
0,76507238709002
0,743016607330761
0,77078631978674
0,743157336610686
0,75213357508491
0,724579023549919
0,74114783015755
0,701650898011443
0,743370952791874
0,692411344745406
0,725201686734386
0,685094132332118
0,731323059316834
0,692843690973301
0,711586336258479
0,690917839443109
0,734366379456157
0,681868350141022
0,682531579611161
0,677830455692545
0,705681072106843
0,672403184915126
0,691327399788256
0,666885894029225
0,676072223102247
0,655091536542489
0,649591371400535
0,64432806417668
0,665895298206891
0,619328773156192
0,64925904164472
0,622940761161128
0,639081773465575
0,629868346652752
0,634935807746182
0,605265371574249
0,635495715932139
0,610820496442704
0,632463839786639
0,609740647099666
0,627024061213668
0,597943077671412
0,614271697557548
0,590051155808195
0,619718269603671
0,587101534976901
0,603987279058607
0,572930786287347
0,597683710017111
0,560824326014345
0,588212806845949
0,567647957632504
0,577268696635584
0,559655975437877
0,566946901635659
0,558854720761462
0,581013490699298
0,547023217363359
0,565608910276067
0,553181255076241
0,56756830366495
0,524453520289912
0,55630477508636
0,519074312497809
0,544621052690396
0,511355804231556
0,546129449069567
0,51805152866159
0,524775594672967
0,513471864514866
0,529377583198603
0,495625884940959
0,511742770001602
0,492952987209095
0,508449738757226
0,493581364389791
0,513775227495678
0,484243961313522
0,505323650945923
0,470851326986049
0,50558766217359
0,478126893569029
0,484720447760838
0,471194118733938
0,496385594385626
0,460573014802934
0,481448719685117
0,468683611708114
0,474530926442484
0,463493583789918
0,471100540769514
0,44603561849392
0,467529525112035
0,455592265059798
0,462365474677666
0,436016529983187
0,460215118418405
0,445354560611035
0,451578441300388
0,428913106154865
0,449012952841977
0,436111472550897
0,442473545485013
0,432521092099441
0,434843754716648
0,42148411904468
0,438780178463391
0,416927855804899
0,426688154019417
0,418204248933306
0,423665059206989
0,410566706611042
0,424150896788854
0,415633634625452
0,423686853890223
0,401870399930378
0,418898408991453
0,39822853293411
0,417102698846185
0,395033554602197
0,406530031427702
0,399024768942142
0,423082529797078
0,39405540773967
0,405856919856481
0,393824410732952
0,404221623950687
0,395146594390343
0,397714794274141
0,393933084422067
0,402084610276102
0,395717897569662
0,393263288894482
0,388012201531914
0,4043847627662
0,382711941315539
0,404694792248417
0,392604895520151
0,409307704111913
0,379687465475306
0,399727304827189
0,393462682403875
0,407493475367837
0,385122914237907
0,394394804011256
0,393062278217243
0,405553502435418
0,382883671941531
0,404586341484505
0,388180100103993
0,410234950418688
0,391634173720646
0,402874890098127
0,389853557105543
0,404042161665709
0,402977068996584
0,412588593295463
0,404607626898057
0,413056745521463
0,40246580794135
0,418895542289299
0,404285308279588
0,422669956949484
0,395750851009376
0,418927523576556
0,395847007003507
0,414044072035852
0,404764606126768
0,42465214188093
0,414795743756962
0,428312051655242
0,410844818958247
0,433005740783087
0,427329907002936
0,432696696485094
0,420137546137498
0,439755873711062
0,437148390068997
0,44775165236979
0,433540145830862
0,454120537411724
0,443452222925591
0,45371865382894
0,446563651488642
0,471789049628281
0,465186597657893
0,475991670116325
0,461775600819226
0,489861449864445
0,470149619582169
0,482946098465815
0,467744882794692
0,487958322667395
0,480696229989897
0,492861744792305
0,485025829005367
0,504180458637727
0,488940287521848
0,504454800253195
0,492285500624615
0,499692686574127
0,487389674999162
0,512407748695621
0,498696118242596
0,50866066708008
0,480967321232181
0,503899995284119
0,498508231118996
0,504721675054328
0,485506882578113
0,5047897245392
0,480022449365672
0,501289272959285
0,477416954260363
0,49081421421968
0,473582348414694
0,498591350137137
0,471460297731411
0,497537488999862
0,468989433075932
0,484071652841804
0,465929715870397
0,494852619710844
0,468741255284214
0,482289599255884
0,478087995690773
0,493113047470936
0,459696796480471
0,479782860716723
0,469463483733057
0,487330206798791
0,462118347897079
0,47966568903878
0,46493082861505
0,488206636529608
0,469535127963454
0,468456580504862
0,461033325123118
0,473331319162523
0,464799912351782
0,478824921992946
0,460253487205175
0,476895755890625
0,466736666929241
0,476419457439132
0,455979255570195
0,470742256788763
0,455106975237937
0,482441935690245
0,449785296825099
0,459298421189818
0,459633660441068
0,474552323682601
0,447715081805787
0,465611009505064
0,443063237437032
0,451510208853597
0,447892249757145
0,461179333463688
0,442261899094807
0,44853085962726
0,43080924007222
0,44826036286577
0,43316893536053
0,438265261786665
0,427044358065251
0,433083481199362
0,416285105490526
0,431094784667228
0,419409654113237
0,423177794860712
0,415161842271042
0,41685507627026
0,405481711318016
0,415306679403391
0,397989386529308
0,415477297431286
0,391880942422002
0,411458469559473
0,384671808836134
0,406639638816906
0,385464772909457
0,391213879389088
0,381928180347234
0,389387630555837
0,382325002335781
0,389679940601642
0,367298497288239
0,378565520528882
0,370183370409887
0,375752349191507
0,360087215554425
0,378766636162537
0,355212649988088
0,366059597852813
0,352689926732821
0,36300983205247
0,353100673148362
0,356295793678498
0,346231553051795
0,35013275148638
0,348152647901767
0,358696673199538
0,34515069191388
0,341116561671977
0,338825032112035
0,347643518195219
0,334030725750227
0,345800278034811
0,325597690428864
0,336701647986184
0,32789896644733
0,33760243022351
0,329165721782302
0,334307631716387
0,330103435150521
0,32691876971126
0,322820934581142
0,328298802694235
0,313681784815191
0,329122443655364
0,322469691939364
0,324128199596303
0,316197035133526
0,322836943970148
0,310155894231807
0,320725960087075
0,30697040748784
0,316033697476119
0,302251327900317
0,315504490971209
0,301175933291893
0,316068043452388
0,295185275929041
0,311142215685416
0,29916490211105
0,302137750949958
0,295146712772095
0,304480982624212
0,300159345676372
0,30204069294248
0,291798880803488
0,302534467727879
0,28591519899471
0,299393193770945
0,289366655196528
0,295352239246536
0,281681973834028
0,293362840688887
0,281765803664323
0,292795537951273
0,28050638452264
0,287063771216789
0,28218580272389
0,290240335847535
0,279821911899927
0,280376489273493
0,279496365621877
0,287271351404531
0,273990413874277
0,285362864859636
0,277269934135103
0,280628505013577
0,273665536330113
0,282362529261025
0,271491216380064
0,275425117132567
0,274345248711882
0,279624245450679
0,272718065667329
0,27865414774979
0,263735523403987
0,271080550367478
0,268092102544972
0,27674460954461
0,268284342620232
0,272684066057918
0,266700668503139
0,277197571890757
0,266314518502958
0,265760234332333
0,262530035981111
0,274133100169145
0,261572407760985
0,272095207752295
0,262819225170708
0,264881204131183
0,256038885986772
0,266249170374475
0,257902787044214
0,260403494923962
0,25374800253602
0,272183705772358
0,25281793163115
0,261675979087935
0,250221611718969
0,265688981669263
0,251854148118064
0,263261914836039
0,252162557715707
0,259799377648847
0,248547391158615
0,262508161638379
0,24900429880433
0,260634225969799
0,24494338398674
0,258044271063696
0,246930513928724
0,261189599531627
0,248338158894966
0,25430192190537
0,247701170412779
0,252175991566809
0,242647827558409
0,251885239584599
0,246683201675164
0,248810035618456
0,241630910401864
0,25243549855753
0,244549985947357
0,247777918383894
0,240903376371609
0,249756953746273
0,240806247610593
0,25245115482671
0,242486413702119
0,249329641278548
0,235616166736149
0,247554360381635
0,2364927824173
0,246326013405095
0,233058595492801
0,24551677057148
0,237293989101306
0,246837286454057
0,235478566575202
0,24221107686375
0,234032586170384
0,241569633058542
0,233040609242985
0,242185569283722
0,233769443392765
0,23995786430851
0,231203941109095
0,238504760514184
0,229921391840998
0,238759398822109
0,228769705007404
0,239579177015938
0,226911063028916
0,234765699736969
0,227360773814633
0,230426286994214
0,228041190989529
0,232383030891712
0,224756891719832
0,229043930181899
0,223955427175211
0,233129946556753
0,218133444995829
0,232201995333346
0,221436243860233
0,227041021168143
0,223427881578557
0,227560674781219
0,218795016572875
0,228852829041239
0,213986390623258
0,220790695248839
0,212293039396155
0,222986633895382
0,213084730026526
0,222391778213976
0,21563041920693
0,218081379430941
0,209570386062666
0,215462578047488
0,209219214532787
0,214134182925666
0,209964817629092
0,209938318431599
0,208916617327139
0,217330509791926
0,207374662473559
0,210903504778732
0,203038445720496
0,215789697672784
0,208831351013621
0,209697559956872
0,202834678347582
0,209754114688691
0,206907279288136
0,210336771948553
0,201127577995229
0,212392231363879
0,202398661454005
0,207555503385566
0,202226573818006
0,207543517083792
0,196020827484505
0,197685278776081
0,199097505696421
0,204582363505978
0,192765942634539
0,199365711753193
0,191922751151888
0,199098973024642
0,191474874244109
0,195934700061294
0,192646350462213
0,193083869431561
0,189555207306388
0,195828461777868
0,183553801651988
0,188596363837313
0,184528750903267
0,189276031040781
0,183058996786161
0,190399176065458
0,180892779870424
0,187680999981099
0,179747990048776
0,184674214355396
0,179551150560371
0,182225401263752
0,179591694608751
0,18307299685866
0,177225181280272
0,185165549417076
0,174616696764229
0,18237579248437
0,172585408938515
0,176894545158385
0,170960038775256
0,17620100948316
0,171172289114644
0,175885307516874
0,169616939716764
0,176034429234888
0,167675270161856
0,176511764951458
0,170616529658241
0,175625299899061
0,168042766210517
0,17581933372799
0,163434743021756
0,16918932698194
0,167213499078569
0,170385277422764
0,159808798563881
0,173165563594165
0,164181117171691
0,166340996798249
0,165961465545526
0,168038690058227
0,160668927440014
0,170683565381232
0,159732526015654
0,168994454909675
0,159068429029148
0,168762800576246
0,158865961492256
0,16231796488495
0,158857608749172
0,163303246051641
0,153954779670795
0,165497003362874
0,155690045641495
0,162289121928172
0,15692779542472
0,162058499341659
0,156903999814715
0,158207238142096
0,152044263561777
0,161359895711408
0,155487980314362
0,157572621589753
0,147911735447825
0,15786485649697
0,152965540658985
0,160075103276051
0,154495765178831
0,15246072094572
0,151362106137885
0,156776790884197
0,14914428008829
0,155427455432719
0,148018310329538
0,158120228374451
0,149776355923756
0,152165783897285
0,149782920294843
0,151918258956937
0,147142390066302
0,152851504163874
0,14697326332888
0,149325149784009
0,146391362047636
0,152961784374727
0,149466803354541
0,149199597680236
0,148045980823249
0,150038201581751
0,146463212598003
0,149589201939638
0,144054473475688
0,151929605400833
0,144939803606247
0,153446955322636
0,144624413190539
0,148035354848722
0,142591306556321
0,149817704303877
0,13809498017574
0,146927425762668
0,14524522303564
0,146262757465285
0,141794691287347
0,150166130086578
0,141231918775445
0,147520104709199
0,138386941020425
0,147748313173695
0,138094960577463
0,14536662284027
0,137191806833938
0,142524970075966
0,138236791427575
0,143168194263697
0,136328742338844
0,144949405530052
0,136145712777112
0,140952558475283
0,137627845918152
0,144733393791444
0,134785946072467
0,139900357468594
0,135534881749307
0,13944923468397
0,132702535654726
0,13937790575828
0,134008404898659
0,141272314148239
0,13164490725489
0,135195583443192
0,13179480633284
0,138436452890416
0,127054940517003
0,14035750597622
0,132535578975277
0,134903196990698
0,129302594883672
0,141740433784372
0,129616444984356
0,135447175712378
0,133200456555438
0,137310341774824
0,12821942730244
0,131620298051256
0,128125751086014
0,137612995989305
0,131154457841628
0,135120124881491
0,126740879035957
0,134084170605841
0,13073734693037
0,136193875750111
0,131416593097848
0,136867071412934
0,129683925878927
0,128882446073851
0,124969198211002
0,134100009191038
0,12172313240053
0,133146528828152
0,124297970519535
0,13422585024647
0,126001734334442
0,127895412797942
0,124362204554127
0,133968125520832
0,127533414683083
0,128418439415135
0,128105349852076
0,130116139310797
0,123459547430352
0,131802405471076
0,125101041113207
0,126403801374678
0,120612929460341
0,125783036127952
0,121160512148154
0,125493218568154
0,124485002215672
0,126842914761744
0,118862383482563
0,122913518268555
0,119655513906677
0,127359676522117
0,11751102856748
0,121918583645511
0,117663348415029
0,123727658711097
0,114913682505498
0,122354075239332
0,11802190957908
0,12097707062569
0,115087810481763
0,116984334608676
0,115674046990656
0,121921060809222
0,114738816399139
0,120519504372937
0,112601562781042
0,11890595770179
0,117166374163811
0,118683571823739
0,112169214307101
0,11749365764834
0,111387795502673
0,11860372032605
0,113342050231163
0,115963657330773
0,11253270610808
0,114310607186799
0,112045009547709
0,116480200688101
0,112186688276056
0,11570114591862
0,11026851186134
0,112766815485394
0,107044870000179
0,116130365788432
0,110640030024509
0,112772449522594
0,106637403647691
0,114558590916105
0,107959965832305
0,115165598260061
0,105354817659751
0,109666160081039
0,107117739189728
0,113169105529782
0,107862928576762
0,108614921499418
0,104989912580313
0,110332189383592
0,101991574544452
0,109995669887665
0,104912857109242
0,110142618803886
0,102775707727512
0,107002536951341
0,104565645615975
0,110230757586296
0,102373057337479
0,109198564469003
0,10170010534125
0,104868715045781
0,102403011523989
0,106324555184445
0,100081624648416
0,103685319368849
0,0979637549905547
0,104924991939169
0,102027219261726
0,106271806827757
0,0992214253848605
0,108421649370578
0,099882620686303
0,102271855490778
0,0997645662256698
0,104172532421212
0,0968342606012531
0,104870509336209
0,0961567767269162
0,103313663717786
0,0973999689044623
0,0996860061225799
0,0972799696589078
0,103273851362911
0,09592603424593
0,102360341250395
0,10002767388851
0,10200902681547
0,0970280935409063
0,101438750023699
0,099019819673512
0,102661924895541
0,0973959688658214
0,104720243233629
0,0958462738837046
0,102783401442818
0,0980945865952545
0,106640648414176
0,101258037790321
0,105054738411595
0,10061747117322
0,104805798040615
0,0992194206760483
0,108729247857113
0,100518668907468
0,109322382322725
0,0941642421824477
0,0945618448405546
0,0881535966239728
0,104861173182224
0,097732516435248
0,104167303407003
0,0833191423476364
0,104289181711911
0,0924332338518523
0,102505713604151
0,0938043524430588
0,0989865172816738
0,0944050451887378
0,100571470380909
0,0895450326583203
0,105977963126834
0,0938909332592719
0,110094606031038
0,0881852060120226
0,100899979872154
0,0945369124406278
0,102315538380884
0,0918812301663262
0,101177004397033
0,0904169231173154
0,0980827745373375
0,0876622405739576
0,0985465153037273
0,0847161531828794
0,0972949193179166
0,0864626633426624
0,0992981030806575
0,0897525509619077
0,101133929379562
0,0955533638867195
0,100406741586154
0,0946683923211225
0,094318318022385
0,0917943586143058
0,0837592314276219
0,0943787701249115
0,0996214990223776
0,102025619144172
0,0904618482179428
0,0983559616950486
0,0788142080318935
0,111292231630602
0,0930066060290331
0,108456843544926
0,0720655919370939
0,115117047752803
0,0887642090308394
0,112728894114894
0,0691012393354789
0,119633709325766
0,0860799505214249
0,113899494909765
0,0823360549870882
0,111459960311919
0,0880656149649274
0,100130319683
0,0943344774397847
0,0937800631663928
0,0988527480047793
0,089601606170216
0,104080344585184
0,0861446926308124
0,101899177129752
0,0902495356333034
0,0974497450610839
0,095619420945334
0,0951518735950743
0,0938789124675612
0,0942110811289442
0,0973085038777448
0,0949980788855209
0,094893044159446
0,0982558838922829
0,0940198365400549
0,0975305471003275
0,0922025183495993
0,0936690264834298
0,0914266414231261
0,0944994786088936
0,0924759400745434
0,0938561912789193
0,0944592093970257
0,0953149541337349
0,0917268361435411
0,0956191257561714
0,0909346226719807
0,0932258356841581
0,0937330944696849
0,0945948786394032
0,0929937487521408
0,0970054888722895
0,0935085792422166
0,0956966186839702
0,0904910465248676
0,0969397708742407
0,0930785451823841
0,0980632978844174
0,0924457357044385
0,0984331337953515
0,0965623900657146
0,0971292304594135
0,0927570984921757
0,0979857282769873
0,0960616480343905
0,0951740248125431
0,0941757896014487
0,098872981044332
0,0956222002480791
0,0980619813495718
0,0966452318696195
0,0976598423300072
0,0957940039754146
0,098542579101949
0,0988114743667253
0,0969902386703393
0,0953032224721162
0,0969815496799217
0,0954183594098025
0,0995440805063897
0,096367601751348
0,100730249143859
0,0971564665102123
0,0980837868748286
0,0964963451449075
0,099410745187324
0,0976287394928017
0,100053111977113
0,0955515266514223
0,102578963638897
0,0948918761830798
0,0987189863264186
0,0990956451294245
0,10000580105201
0,09867615598689
0,100631180015891
0,0976614322426533
0,0995330427910399
0,095220047365686
0,0985473603157868
0,0974008474676343
0,101809343385729
0,0969053581146065
0,0985623076532734
0,0973736660212111
0,0997908284433035
0,099373906875355
0,098399919651965
0,0984022569670732
0,102149014094951
0,0980423896218522
0,101820112655123
0,0969958792803298
0,0993829118591072
0,0979828559048507
0,102118356409841
0,100243602013724
0,104789691963447
0,0986336089628006
0,100881665947078
0,101492078339037
0,102074132792286
0,10109919356428
0,102396621421156
0,100825789368273
0,103350845434909
0,101915412217011
0,102566206419373
0,0995050086909079
0,105727394499162
0,102945149598135
0,102609869911952
0,102014700686204
0,106090171842313
0,100682034251483
0,105195347843843
0,104277016046941
0,107487463973087
0,104181308373324
0,107721631902723
0,101574212383919
0,109545002765302
0,103536256066133
0,105104691065154
0,102010805751546
0,108004513145843
0,107002947561897
0,108633214168373
0,104028105717271
0,108919794489128
0,104446944492103
0,109366635743824
0,106093697078277
0,108967682765084
0,104622446594334
0,109624428316733
0,105946045368016
0,107116178870008
0,105613267671638
0,105268045436748
0,105781114122892
0,109680977025411
0,107375936517646
0,107095256880448
0,103887991592119
0,110525289063569
0,103931576318131
0,107392894770894
0,108145620537048
0,109742239877676
0,107897179843126
0,109202083606299
0,107832883475225
0,11082995630003
0,105632430644637
0,112268045830862
0,109256165521639
0,112586464425131
0,110455305067086
0,111887194131086
0,109177071516042
0,112776770735048
0,110006245055493
0,112038945723118
0,111902069462556
0,112539280203084
0,111637904096305
0,110320255979069
0,109201048361983
0,114521039637947
0,11176547924696
0,115469197586242
0,112597329133431
0,113742319008709
0,110459929652361
0,114047414655588
0,112336532795675
0,112572629016426
0,110436747255137
0,112620700203696
0,111671511553989
0,11371269980168
0,109916975147076
0,114188694693954
0,108234633643932
0,111101254946463
0,109053806406557
0,111205328939508
0,107690784063081
0,112517104630183
0,110015738365268
0,110964993892883
0,105593381711998
0,111570602971218
0,109856507082367
0,112721091683279
0,108314519330653
0,110626149328636
0,106911219626711
0,108859315093078
0,109416420647254
0,111771051290048
0,109478145978729
0,111362808661583
0,109001285584452
0,11092987143463
0,107898446960136
0,109818439853042
0,106492355730691
0,110478901892457
0,105000933927697
0,109994959245823
0,106574717712619
0,111516526363118
0,109080600107429
0,108310160011751
0,104526261791988
0,108158135139206
0,108089023092328
0,111028149220174
0,107563619021168
0,110107819614492
0,105400855850297
0,110003299018597
0,105394331535092
0,11100271904372
0,106391168565436
0,111206867876853
0,105744163062257
0,108641962016538
0,106460295936723
0,10954285860299
0,106418628398927
0,108287055568808
0,103679252625215
0,107819580406613
0,106640312444657
0,105515567556845
0,105290033088472
0,107172546840365
0,103519514660233
0,109699483952442
0,102818435002104
0,10836748482471
0,102864430490472
0,104351579336116
0,102474677326123
0,10807995335473
0,10358369405363
0,105960587585174
0,102711106588046
0,106878255430297
0,105273641674787
0,106779219835647
0,10260974005737
0,105949865046485
0,102859878573045
0,106507938898744
0,100556714942258
0,104567268898092
0,102821351716573
0,105557788152759
0,10637316473823
0,104780535815094
0,101405721416785
0,103289730192908
0,101384765105077
0,106399757285652
0,102121813931445
0,101875952560629
0,101858115926536
0,103210278531354
0,097909713144974
0,100538029608499
0,100988273081016
0,103041937124731
0,101713626705473
0,104522318626584
0,0990753944591595
0,10194958725655
0,0990855259475946
0,0998604435501795
0,0973251332916923
0,103994802269682
0,100929134873776
0,103338031559579
0,100596016472155
0,101866728446681
0,0975872004723594
0,100705744081341
0,0980597651558282
0,10233710278267
0,0950899985281415
0,0988447829474152
0,0958158676994473
0,0985305673363229
0,0970360725329718
0,0988630186676842
0,0929571586296043
0,094640018057745
0,0940404061632431
0,097073422762752
0,0947879054585656
0,0963557736065825
0,0921338873882081
0,0955126895291959
0,0923035313759452
0,095346817336252
0,0909519108803972
0,0954149801143566
0,0928976513895732
0,0945897726918767
0,0882353200044326
0,0933177306495095
0,0918346727108004
0,0930865944581642
0,0881977263044954
0,0923239416543233
0,0859415092560028
0,0898852074259084
0,0856270050327477
0,0893384518015815
0,0866653044587127
0,0903734431702144
0,0861488149567732
0,0913326849661059
0,0859156642721093
0,0892730377168329
0,0831581705087782
0,0871612278633902
0,0831204290556523
0,0876201496879974
0,0829340339010077
0,0865697762053206
0,0844870166727325
0,0864682715258703
0,0824685227610911
0,0874722824969211
0,079496073458286
0,0862769756781116
0,0784352872489159
0,0898238793779702
0,0839033430319733
0,0809588281392992
0,0841112664880579
0,0866740144094021
0,0810373914838101
0,0826099926383621
0,0809564832311886
0,0808509029504471
0,0816949658604783
0,0812302226829025
0,0801599267898401
0,0820646650195444
0,0783948432238869
0,0832257775272428
0,0796999530351898
0,0847346107188544
0,079600765038945
0,0787931683303768
0,0757839340835796
0,0807219046109823
0,0798408593780656
0,0807780322235438
0,0761274763291808
0,0813309542160434
0,0767835777952045
0,0811377939579321
0,0819025799964841
0,0788892265068882
0,080572587372539
0,0799844082165537
0,078767434885309
0,0777287256530827
0,0776210142377631
0,0772293592668352
0,0761642278865085
0,077924466134783
0,076993977137385
0,0775339708917941
0,0772530164842321
0,0790633068642599
0,070922376524534
0,0743339621396977
0,0758111119853305
0,0761663610842864
0,0773721143355909
0,0760716779433984
0,0713112484048804
0,0748554512932997
0,073251843672674
0,0725949677538197
0,0753596963062344
0,0722982514736118
0,0827283697998593
0,0781582408774076
0,0736332093657061
0,0771136638864657
0,0703373046198749
0,0772707192933362
0,07211019779881
0,0765695511026859
0,0720296830332384
0,0763939151929221
0,0704049405230596
0,0763047480960979
0,0724349149791582
0,0742836602882449
0,0711707589528482
0,0759786429310591
0,0717557119802962
0,0753917635342178
0,0692790163233431
0,0750097347991913
0,06979064773113
0,0781861598218529
0,0759209024117706
0,0723837034811263
0,068985967659575
0,0727176703863151
0,0657006626127285
0,0880762344814546
0,0635620867727784
0,0771906562004896
0,0651634075013205
0,0757120169577112
0,06761879987194
0,0755746687915303
0,0686304474548228
0,077340271896106
0,0702688735327912
0,0741762143781269
0,0723032531407583
0,0721547136026726
0,0682941029204707
0,0680061574599667
0,0676539947176983
0,0707677173370523
0,0678070484169366
0,0720042640275511
0,0651649426615966
0,0724123655966447
0,0671655618583136
0,0727794141820413
0,0670999353430843
0,0773349994424123
0,0694973040628623
0,0740737572671326
0,0665425856031389
0,0693589216709611
0,0627393411298079
0,081486043980359
0,0701417261760887
0,0658865066701461
0,0680050191589398
0,0677343986885249
0,0702389984059998
0,0693891298393639
0,0691203438988456
0,0676714610511014
0,0689649013134584
0,0696173030828843
0,0672123394912306
0,0673113893634495
0,069087922377007
0,0706903747360332
0,0710920907443025
0,069829876517988
0,0675861769257198
0,0712638574736565
0,0696598931012713
0,072606479611551
0,0653828925349967
0,0857554138152377
0,0664391675869103
0,0801031376016893
0,0683385672025293
0,0701174294672319
0,0667203249430511
0,0707045095311437
0,0694862369023513
0,0724752748966805
0,0670137819648293
0,0705293891675698
0,0696998124181976
0,0693645853554082
0,0675880350278471
0,0719182975365078
0,0694155631663231
0,0714873987930076
0,0677043961977954
0,0672918311908473
0,0691747511150875
0,0651503814066376
0,0706563944248181
0,0664067247381222
0,0788925582025207
0,0654267838050814
0,0712782787092187
0,0568790687707784
0,0974688320913718
0,0697946561298728
0,0730696640460708
0,0706549180707911
0,0660503388845911
0,0698174423712029
0,0692316133316109
0,0755478608615233
0,0699967024492737
0,068095218909039
0,0688144932676025
0,0707334184301105
0,0679813878661092
0,0700666733236396
0,0627760225748467
0,0846422252289687
0,0815572961269039
0,0690425491677459
0,0720232034569119
0,0631268255312476
0,0789368706890011
0,084070137808941
0,0697894274146342
0,0786485237794482
0,0687922111567267
0,0779459795142469
0,0694864360164072
0,0767016836872523
0,0702116959456947
0,0759845015084358
0,0690692637760708
0,0730624467877788
0,0731210492717843
0,0731157113845764
0,0729046528271725
0,0779724644931882
0,0789692019839623
0,0766377524833075
0,0694698104337499
0,0818193806082296
0,0713566411251717
0,075769492373048
0,0748110202401291
0,0802195654697107
0,0733389751749546
0,0858217828973389
0,0782596811281734
0,0804387352878804
0,0858334632107631
0,0792381130086503
0,0720797054275538
0,0835012238822334
0,072647560763967
0,0870865515624349
0,0604377938733775
0,0948958556427506
0,0844791076886969
0,0838060540181777
0,0868274180698005
0,073305299204031
0,0852005999379975
0,0752598906110167
0,0828214024120114
0,069640016961013
0,0948445877945236
0,0664746595855397
0,0881701292270223
0,0702192502256275
0,0948774515867906
0,0795847832702187
0,0835722854314599
0,0812700681063385
0,0851413447056253
0,0781055811608713
0,0922800164618308
0,0746856228954865
0,0797004085106217
0,108749073757054
0,0841109192690988
0,0998752850498791
0,0811441679930506
0,098988114750018
0,10215151266438
0,0793430273396357
0,0963121073571382
0,0811607770830833
0,0911884046464042
0,0773743532558623
0,0989988379185845
0,104060115875484
0,0840038289736061
0,0975420743661582
0,0872786871686455
0,0871317692092782
0,112903640207847
0,0878698477219235
0,0988505984598489
0,0860249129440408
0,0980011402928491
0,0756762888211221
0,132604801993608
0,0854148215480192
0,118114294117352
0,104063894815705
0,108362446878232
0,10723853507413
0,104866463220957
0,102023025563231
0,110275368648736
0,107396125060527
0,103224971838453
0,100305599154707
0,127945696007065
0,11581830186831
0,103606554557435
0,118564477154085
0,0971004704147255
0,110163221109964
0,151232173254707
0,135703317455567
0,121261612167458
0,121215243197263
0,127700491042323
0,133945859227535
0,119834284959312
0,130390629579135
0,124030548002176
0,127856645197702
0,131344936448773
0,132671215016728
0,138858184879672
0,129177573436794
0,140547683969401
0,12754194725039
0,140522372367403
0,16505634743198
0,157360621934042
0,160609833569172
0,142389311758184
0,179821521139648
0,147218893784815
0,160949289153758
0,150406654071221
0,165455464536768
0,154604535309448
0,160247769879445
0,161929063815474
0,162391672676545
0,186694549200484
0,169921648358739
0,191339393839534
0,182300158023004
0,163031969048012
0,183122891727112
0,169898130596755
0,249626412344005
0,170536524090723
0,216339800991375
0,154851368192005
0,259461115163165
0,219513698943274
0,212383192720703
0,211243800346736
0,221563845372855
0,215367984337178
0,235917125874541
0,229804183574698
0,24623836233233
0,23828902470974
0,249943362723582
0,214183030698281
0,314273716791093
0,285214378061486
0,29059877572107
0,269215595222035
0,283464658429536
0,287421012079698
0,29968790314698
0,282017814275936
0,305125779230379
0,278102222343119
0,354699039107855
0,334423437489317
0,313957882742302
0,334120601344466
0,330842672874283
0,361580937246575
0,326389480187788
0,408408689247026
0,345378404346236
0,372899671093855
0,367287279043334
0,385878622697886
0,373980588310015
0,390038251910921
0,414853993003331
0,39498232012353
0,407602503978211
0,406341730535691
0,418505398977623
0,42057355590573
0,421183655862074
0,419594035312777
0,417089845205249
0,474522737036583
0,482490818632826
0,496774625511584
0,439947367192068
0,450028995765099
0,434587326977749
0,452269623383887
0,475730940339212
0,441674976778173
0,495776020244381
0,446740088583375
0,464271319732267
0,460823785327439
0,453964571362105
0,473950813536788
0,454739350848286
0,466734053125451
0,445457418422251
0,485399876087497
0,410582202333946
0,529885436755646
0,471954143022295
0,452330556653565
0,451872532529915
0,458609677416366
0,45229213649247
0,448577396040052
0,434348833901008
0,445887288374842
0,448659919030395
0,428737856094522
0,440187443801727
0,412646771641508
0,456687686382668
0,420588760783607
0,417494776117067
0,41033064923052
0,401701570251716
0,398313390601521
0,354317107510189
0,429384254635371
0,408662237688104
0,369062018350884
0,386387046188274
0,36474439633687
0,374903366313717
0,359986998538556
0,370613311451996
0,367941048813915
0,346403115452833
0,346507530411947
0,36111304257053
0,338063237207911
0,342686211637227
0,329524947669454
0,338183929061272
0,322607359145956
0,332352941281884
0,319637232565724
0,321464707371601
0,317279983421425
0,318509760604052
0,312448896859025
0,31707094968416
0,311648781099332
0,312834247766829
0,29529172901564
0,307058803302216
0,293468331683221
0,299777414924248
0,290190755092827
0,297584995036774
0,291176162345706
0,299191026047097
0,283676464775757
0,291625512740478
0,2810955086689
0,284375755577047
0,277692946429006
0,282829961629579
0,28076854961549
0,274137703729035
0,270881068835601
0,259595313258947
0,316072934531152
0,268682489336817
0,27754514265485
0,26976392716527
0,264343261361237
0,265808688848013
0,251891507167737
0,298518532447513
0,26231213669703
0,26432853883566
0,258892115368521
0,258646589342311
0,26621401039021
0,266761621702339
0,243236525013516
0,261316642158925
0,204324296528383
0,354156632894609
0,220147296649798
0,3164600507207
0,257641508853701
0,245214909962559
0,231823327059052
0,269538813319915
0,255250399680915
0,233369184728501
0,253923693164088
0,236511347359088
0,260836653965808
0,229049114914797
0,232014804172062
0,233443891312597
0,226941132527138
0,246838548920488
0,24078565809251
0,224114317935938
0,260671234341805
0,24146408296006
0,225036463100413
0,274072037225246
0,243668945797016
0,22932376388342
0,217608624722193
0,227517540524383
0,211101483054175
0,232483555784231
0,242964726272525
0,220750080775913
0,227363702003653
0,208596555266746
0,217331454229813
0,220125552317478
0,222388520904265
0,212002727941621
0,207228541873493
0,232045880553999
0,181976951071231
0,244961694652482
0,202815137624013
0,257476522193951
0,210892487396959
0,214351955474545
0,201699356476159
0,23781776043795
0,215568623729857
0,208615099473439
0,213302684360361
0,208205187574565
0,210429130027516
0,218871876344286
0,194492096215917
0,217580922751146
0,20544036532982
0,214655419051223
0,227476956812207
0,236540285293458
0,220316277732564
0,205627238087245
0,197521021556064
0,217136511060517
0,198333378512062
0,221186132896271
0,184094896882991
0,231211736042286
0,200334094289498
0,222913898241538
0,227849042882491
0,20921752307577
0,216956271408886
0,220862792310523
0,215259575405626
0,244665031325787
0,237294455700287
0,246054176468197
0,216815515465257
0,24815459376432
0,240903698258987
0,238108073029047
0,24459535322041
0,243177690289015
0,247628180700374
0,2500909951151
0,258245007951715
0,260952802116121
0,259807380136927
0,275442111700188
0,270559555904202
0,291574173163871
0,296614130966125
0,275229886138105
0,335527593249346
0,304585025376465
0,33846912615368
0,311279414765149
0,321495109361983
0,327862851835908
0,328669570260881
0,340560611931028
0,33231918683477
0,361011110527779
0,365362982155453
0,348182917401711
0,373502622808127
0,361488274925912
0,379160234991352
0,360869781972566
0,413505805832446
0,351553118627406
0,432630659868542
0,393893832000817
0,39602044433092
0,39293124920697
0,387207560120318
0,404899425281515
0,393047824829584
0,398706582351976
0,393271377630479
0,409934878550561
0,417205095256188
0,394806845535671
0,408575362876148
0,402098781125028
0,407790270934868
0,408250570688315
0,410116778786441
0,41051907861304
0,411067143387938
0,416515262337765
0,409196755453924
0,430536327359007
0,463498680500716
0,41534435122874
0,438189787950546
0,43131415376718
0,443762059782634
0,429954501786809
0,434604721878992
0,457380855495343
0,442684189463746
0,44851674816151
0,449673537784622
0,439140661528435
0,461989363152427
0,457161616087233
0,475991560125138
0,442517189413125
0,469537873136484
0,422962457385462
0,512283623446292
0,467102576958884
0,472133236901591
0,484633452784963
0,465528799448621
0,470427781149555
0,465293880232275
0,472257386546043
0,466768414244159
0,473099019804955
0,465450817665431
0,475161438533848
0,466171992430246
0,458118907520536
0,46082272022867
0,467078664975802
0,470405328670485
0,447519012401418
0,460801805865699
0,450029123706532
0,453751608978663
0,459738211564244
0,475719448514615
0,44676175516072
0,449789299901895
0,446458514531433
0,456425185623299
0,457037798637551
0,44455506165242
0,443781269560833
0,454320683074315
0,440566660081317
0,454963776989995
0,439679410154654
0,460387345420542
0,463717703578948
0,458132312022998
0,461925618041758
0,462013160759981
0,473392248659469
0,467304282015925
0,480267671497431
0,475566267288574
0,481668913391722
0,48263602109606
0,489251423714908
0,489075896347597
0,500816675534706
0,492680789699393
0,499806015552398
0,501732257886739
0,496863996529443
0,502818602801122
0,502800526570133
0,506544893111365
0,504277929236102
0,499864898035604
0,50099051079038
0,493116035869264
0,50021620662369
0,5110392819778
0,510542514150151
0,473508311272793
0,504177608137386
0,485444107288288
0,494644258130612
0,485658429216295
0,486981012687895
0,481706310491514
0,485653520738291
0,480983699467513
0,477720885464389
0,477757550900524
0,475934210541057
0,472397835776988
0,474321704786303
0,476965976753772
0,470151604000538
0,469457545084941
0,471658305736657
0,468979631234366
0,474585406799463
0,466230251337974
0,477036452348874
0,464973871261792
0,479155771846107
0,468593416554067
0,472957674124896
0,463830642349691
0,470205514310432
0,466454261477588
0,46126756715975
0,458105259982347
0,461874238362976
0,461728452696592
0,453153688759228
0,456197596647878
0,451876383929381
0,455195983047507
0,453290494513773
0,454810671020524
0,447774096006297
0,446406426921474
0,446940589552538
0,443776147064374
0,438548727425653
0,442817768846515
0,442745680948122
0,440829397275715
0,434201666612326
0,434734269211153
0,433188076584929
0,432919679136554
0,434628301922119
0,428413331414927
0,433984198109233
0,427377036510832
0,425612802146358
0,424622631415677
0,433302236495235
0,427523439983544
0,426312207420972
0,426638471353151
0,422194772921286
0,4204280127248
0,422088415523487
0,420876147174871
0,411908004846651
0,41162294433249
0,409292923783529
0,407186399885981
0,408192135447587
0,400998723631181
0,395099970620451
0,396741684841238
0,393298024554745
0,393360340924692
0,3907518828878
0,384635926996825
0,384581975362589
0,384475827157431
0,384214637123713
0,382548386452706
0,382912620197531
0,377330276365288
0,375663040956353
0,374785664326432
0,374940631749842
0,369754776568617
0,374579560343697
0,376621651928607
0,373501977508058
0,373313914675912
0,375204104261291
0,376753349778198
0,376613933167691
0,376280921717735
0,379372882609805
0,381133948249138
0,381529490288822
0,38025572571671
0,383363138675469
0,381626851021282
0,382168569749273
0,383378196287739
0,387071266287339
0,385751230074097
0,392952988592379
0,388427012115148
0,390003529265709
0,390290616428366
0,392547327087197
0,392630119360505
0,388953072935967
0,391136013393306
0,390714520503564
0,389595462304789
0,393130332453889
0,39164353499248
0,389870166243083
0,392912724570209
0,387708320489924
0,386419413661358
0,391445344443256
0,385233251749932
0,388391003631582
0,388550824764301
0,388288198740046
0,384575462817368
0,386974106706746
0,384539660592495
0,380910114769406
0,378446091882265
0,378452451913563
0,381234050543202
0,378216586236058
0,3784624311723
0,378926260752283
0,379321114852473
0,376566522374898
0,375303359571232
0,370001077281762
0,367269689576376
0,365987351627124
0,364337693380699
0,361557235556501
0,361122374785465
0,361666588404362
0,35420634344699
0,354025005295089
0,349874787604002
0,349529838086021
0,347325868852294
0,346008654830097
0,341395594852647
0,341479129156639
0,341072439108102
0,336688794108834
0,335316948222121
0,335147910968919
0,331874967288577
0,332946424342583
0,3306377888639
0,330657425553528
0,330300036174396
0,330364550963889
0,331684501979384
0,331218216036641
0,330337628599193
0,33219428803776
0,33329185827581
0,330666255356141
0,329274518079624
0,329458577230809
0,325754858410238
0,3248788059327
0,32274064311444
0,320614749756466
0,319555130104143
0,311964538224133
0,308356422115303
0,30965640309113
0,300735088724821
0,298327816139566
0,292965046387573
0,290154989977623
0,285137077381345
0,280961572059117
0,279066982315655
0,277532543219349
0,278214937329295
0,278186372964909
0,274832511563039
0,27749867372373
0,28181401062653
0,283264642718002
0,285670053814745
0,290052930778646
0,294952379084107
0,303254210991375
0,312076592967575
0,320593354020066
0,329178972358205
0,338659020614306
0,350068216211468
0,364952379815185
0,373946230903674
0,387360707044852
0,403644241101104
0,419678767808285
0,437977144547295
0,454851873774393
0,476494621332935
0,498096092748986
0,516353385951116
0,540016364580922
0,565233621926013
0,581713623171198
0,608313261935087
0,632710792050669
0,641570307339401
0,667028549363169
0,68743651406097
0,705581326974908
0,722445256279046
0,732472992042649
0,744219482588486
0,760517651053615
0,763728673281925
0,767199056969952
0,76529856374763
0,766743270689422
0,761845930810796
0,759443469298324
0,758187280175925
0,758828507635984
0,746365576253526
0,73937829704197
0,731251756024508
0,721627964766701
0,714262854297896
0,703230697200914
0,693306439634061
0,693913226601438
0,690325110958585
0,693242584356896
0,686363385322239
0,683174555350445
0,687772005363636
0,68664737450973
0,686951198506173
0,693482177064431
0,701496983632983
0,70843103652209
0,711099791592366
0,723135028735291
0,731469343420938
0,737444392426467
0,741382459447842
0,746861851935526
0,760226810633271
0,770928841127795
0,772859023262912
0,772682805248681
0,778693922715464
0,789737223444408
0,786362741689499
0,790786488790265
0,801847825044821
0,799928868054177
0,80174155085148
0,805480405304986
0,801902078178399
0,81008316423337
0,812753914271056
0,814088150373944
0,819566338959506
0,832135632959849
0,832177721683299
0,84162908529573
0,831687779332801
0,832880888941617
0,8403940001935
0,84496956772773
0,854169324587092
0,848668304881309
0,850473198443621
0,859018288736178
0,866385392658964
0,876074590817854
0,881136017693095
0,888027425216083
0,902225798629081
0,911336956704938
0,918980239200074
0,945890042317662
0,951245668232645
0,992775117214845
1,01138984862253
1,03669226832844
1,06989692751557
1,1044168807806
1,12154720023922
1,14209921160413
1,17033240734618
1,18690477478088
1,20669760457766
1,23993254626786
1,24739932753185
1,25142347390104
1,25311187539248
1,25907814058781
1,23557650942024
1,23185774133866
1,2556358646992
1,21350909465446
1,19353684961608
1,18795512448648
1,16797358803688
1,17947759855161
1,16551151209165
1,17169808304186
1,15311722591562
1,17992796992041
1,15520360737879
1,16264888198577
1,17269185436408
1,19642643110453
1,20895983541177
1,22725451765352
1,23018673313011
1,25732179826124
1,28198929529713
1,27979057689633
1,30263951149714
1,3090602516873
1,32508586195243
1,38199160446346
1,33696439329165
1,36909051608702
1,36583909479578
1,39574198177361
1,45569452620029
1,47862568017116
1,4539000649783
1,53250659867301
1,51565725985854
1,54712863843585
1,50715384789445
1,53813000759804
1,56530303082092
1,60839138132569
1,61961781263685
1,67433488240204
1,65827857734415
1,66939075377805
1,66380893047225
1,66953813657941
1,79465868355595
1,78260213759989
1,77475610602341
1,82811634245022
1,80210755640975
1,81718102447572
1,80003264070651
1,83628494730711
1,88237093424719
1,92504508846964
1,85320317030546
1,97807152117547
1,81764117337533
1,9333691151785
1,89655306765611
1,94229589691566
1,86268615019424
1,89916094917779
1,96700113343015
2,01150131564908
1,81479794918668
1,81839520137851
1,78966665059965
1,74837771253175
1,66111798664241
1,78323220093621
1,69036972065346
1,68464586214397
1,63833405927138
1,6310570815241
1,62687394739117
1,64951251347621
1,56985050532324
1,55653200365912
1,50435355273262
1,57952129154357
1,55162394422681
1,58489190466165
1,47991100325033
1,47169261682214
1,45806288847649
1,44267152482732
1,39983757820257
1,44329008725005
1,40866515044547
1,35699292265196
1,3321151333038
1,30643831410189
1,21927361547994
1,20862154611104
1,17303081799345
1,13733810505713
1,050473379814
1,03636491231289
0,967616106317106
0,940830025409491
0,890022306169599
0,861732896310765
0,829999499112212
0,787356960982724
0,748999118775319
0,719435422239444
0,699561468838191
0,680938723290234
0,639895417487216
0,626204716129251
0,616026704622442
0,595477295804627
0,583862068040968
0,562141446141176
0,552279525339183
0,543804784040747
0,530618931663254
0,519109595409012
0,526359009061028
0,51736921086756
0,506463850331072
0,498128263960468
0,49888698560012
0,498550199639138
0,494141047590966
0,488320163988971
0,485949669713624
0,490090366449977
0,485139883069514
0,492030684030921
0,48938474703627
0,488177765727443
0,501674335463448
0,509466274416655
0,503367772048153
0,522181148260817
0,521674329654394
0,52411026669009
0,5226031541594
0,529634307218701
0,528471534119626
0,535224070948322
0,538587378679661
0,540847114168299
0,537203835547199
0,548353934197501
0,55198363905811
0,546870126280477
0,541498504905618
0,549684922279127
0,546431469448267
0,546378076464408
0,550467123857358
0,546220173257475
0,55570708251177
0,554359829116064
0,550769938740184
0,550863422009413
0,551427110350675
0,555220557992284
0,547389164610546
0,55905471780723
0,552145435830389
0,544608363410296
0,544039368566141
0,543413091097011
0,531177761564604
0,545908121415766
0,536754653092292
0,523711751514319
0,529426816115608
0,527918445012276
0,519960147707611
0,530697534495745
0,519394034126152
0,515331533237252
0,522239430738387
0,526403797241171
0,515589017118039
0,522832542139433
0,526660315232962
0,522182250502254
0,536738532130269
0,541581950654528
0,542872146576049
0,54838966131746
0,562475164607709
0,571213267339692
0,570180961208815
0,585172798184353
0,559090958937193
0,57342746073626
0,562843340970354
0,560136036782639
0,553020818189153
0,556156517459521
0,541719392285491
0,542021259638795
0,52365058193376
0,524450678385013
0,517392391315732
0,532828336451958
0,529384654187901
0,531705069743846
0,521129689894327
0,518924899770197
0,519985525683832
0,52936953602654
0,528873747758367
0,535801920890182
0,525126918554403
0,529716271996735
0,525028489975321
0,546697658605851
0,53965356442279
0,540893171588814
0,547950829204675
0,549604528827254
0,544630860798954
0,562077914804348
0,548389857938206
0,558157884982114
0,540377624725718
0,562619981294852
0,55985745409111
0,567443876071245
0,566055786406448
0,577438694821845
0,566007621374874
0,557745670335209
0,571861852807141
0,579037942383139
0,564710232985904
0,573442727216526
0,57051447350849
0,574010745852295
0,570833779270234
0,577378520093575
0,559107262457504
0,576730681867213
0,581776740630223
0,57963298047289
0,566005727164357
0,585422365483119
0,58288293573772
0,572045708227715
0,557678152987268
0,558165614340539
0,563998658938956
0,576701981039064
0,550925866712911
0,563487106699965
0,553125753450911
0,556949394137605
0,551549310866262
0,546809609146492
0,540182587770116
0,545519980990876
0,542728430518673
0,556937582252327
0,540039575905961
0,56418253619803
0,544715121988679
0,565433760589556
0,543999774689518
0,565925723310349
0,559241430331438
0,563668938991758
0,548089803989493
0,568090408125311
0,558683525284777
0,582310247750127
0,568342850364498
0,58415109043054
0,584990931357107
0,594716347675584
0,572823603972666
0,59910917175716
0,574565779215971
0,569060709628262
0,583883998594061
0,591603318348634
0,601399760903702
0,605210814573952
0,597652321699947
0,59729069637934
0,602299606866179
0,655017196027085
0,607858223246862
0,606906282591325
0,622089408899369
0,664734810950438
0,626317460687562
0,653235783116141
0,650274483415409
0,673703239490813
0,643888190504635
0,70127299651509
0,679443322621311
0,695605225612668
0,727018755603102
0,688665948795025
0,710169816615212
0,760174827204926
0,755305450668767
0,803905588625884
0,754449763477925
0,762605737994884
0,751967987362442
0,782070045863742
0,79708918913385
0,801776885376257
0,719732822858
0,809178966944387
0,772513915167599
0,79346240914407
0,729071381019749
0,752068283009438
0,757777801188835
0,843937997445401
0,810738486537698
0,828659758239163
0,804485707904709
0,828326619492587
0,756850035978235
0,861872178465459
0,802581266174583
0,86362329672992
0,829650792932579
0,882010516209272
0,833629341410722
0,879680248773225
0,888731778072704
0,879387671725853
0,864963374753002
0,884330900902676
0,799711843354235
0,88695072243944
0,823410895910071
0,875469591749631
0,821944430091497
0,836716354218623
0,765567734484091
0,819742570679333
0,770955008420224
0,766129076037486
0,741945251599803
0,810508611248929
0,774382905062021
0,862456959892475
0,836137891145478
0,868276503157894
0,781079967314283
0,854404186494723
0,745680219645342
0,86234398886812
0,808592569020919
0,863465133093138
0,810489383026882
0,955145673120187
0,774365675133775
0,906953734776533
0,822443760617316
0,931871959647423
0,865717554809358
0,87909657484684
0,932605851620926
0,930834308626846
0,700905136639964
0,892762995571506
0,839108334947434
0,802949299833435
0,796845540497948
0,906024141526464
0,89515620677518
0,886767049904846
0,904923878032142
0,865266707150265
0,85829738855125
1,05899575387081
0,78089347177378
1,01211103383928
0,821307792730857
0,984253762011521
0,855993600243794
1,10146625712539
0,920203989598619
0,997087203308427
0,923650722593383
1,07981518929097
0,991090489406041
0,96314744493402
0,929823274410615
1,02852451017271
0,967654001262477
1,15849169020075
1,04268484566259
1,04685625124436
1,05102340772981
1,02779824166872
0,965503400234715
1,14115446697951
1,0147695468306
2,06868545037576
0,975835549911894
1,18438041581009
0,953527112885318
0,829974691245448
1,04220249372999
5
0,771518485986706
0,814710596751813
0,888300076074407
1,50670614332055
0,822095317120366
0,932457719468058
1,1962803939484
1,55987455316905
1,00829721152491
1,75639249588092
0,84575188407817
0,936768483046022
1,03111891807714
5
1,24546727137293
1,10156532596536
0,705935963948561
1,19922378853489
0,742512795555093
1,23697385972827
0,816300593865923
0,949207473354552
0,351247110655284
5
0,854344503063311
1,70523772247903
0,701505030139591
0,89015700146168
0,808311077928614
5
0,946567676862387
5
1,20926244867651
5
0,863646631667908
0,548106427805537
5
5
1,44816308289077
1,44833130735961
0,541468903571336
5
