3596
4000,36533379555
650,420452594757
1
2
2
0,0483110556967799
0,0466672167372423
0,0483872029628999
0,0464107321833404
0,0505427897194514
0,0464356707848923
0,0448473948736409
0,0481778641897397
0,0449732367142883
0,0504437638465523
0,0494780517481652
0,0531234173437107
0,0461757551367368
0,0499415456236344
0,040198559603827
0,0502581075026825
0,0497189142949127
0,0380418321292001
0,0412668965351788
0,0446311899882583
0,052472123478473
0,0455335756870757
0,0444964032827008
0,0465656974936023
0,0460006012843189
0,0372473922072967
0,0543520709284782
0,0321530452310083
0,0358884775164024
0,0364474227770642
0,046605287958511
0,0365522918918126
0,0505903216153772
0,0487910504744108
0,0423814882998645
0,0401519464629892
0,0426228362122846
0,0515557077085921
0,0428660584180365
0,0532615619160253
0,0514053306491132
0,0443343760316562
0,0463775077669452
0,0495003893794519
0,046552885210205
0,0385690725784104
0,0472150943930048
0,047067968789465
0,0466031528118226
0,0487239592937942
0,0480335409392111
0,0408422278674986
0,0503504113110839
0,0573253979222198
0,0450945766705869
0,0489701112193917
0,0500008758049729
0,046891415749893
0,048526983139206
0,0329710032399776
0,0497313166067949
0,0549785579546578
0,0535561924128081
0,0392570242405688
0,0469063077403178
0,0504420853083585
0,0508310697256438
0,0469237433789998
0,0394134928279431
0,0407376510637591
0,0383551974861667
0,0529253006070291
0,0587542868342565
0,0486645861971541
0,0514694059636812
0,0446466569647506
0,039183127306408
0,0517061929274414
0,0282453031880778
0,0491446675336889
0,055094139129367
0,0469520106195299
0,0515768423876317
0,0292878378712623
0,0514860104800929
0,0615054818745957
0,0285074310111337
0,0434377247728629
0,0531515248394027
0,0488775516651258
0,0409685554077887
0,0462175211606683
0,0418902803073636
0,0482410774726
0,0420837253588525
0,0420440901405766
0,0347894960420532
0,0467884895321238
0,0403412006083247
0,0429190174125936
0,0417332351518496
0,0477931236315946
0,0781528039389179
0,0239425938192201
0,0850675018733301
0,0657005868797916
0,0304375351327069
0,0755834401378446
0,0521311495966724
0,0543478908323695
0,0410506230484116
0,0390732704269557
0,0414194396012818
0,0509026325447287
0,0278664795388374
0,0525302101353069
0,0675411790909949
0,0594247799697218
0,0452466719401545
0,046260454055857
0,0226352377235889
0,0598379345019751
0,0894335728760097
0,0417953871042028
0,0446251901273833
0,043588319986841
0,033415769617385
0,0722606570983893
0,0688442499612375
0,0471224425213232
0,0428890590807547
0,0427245804936779
0,0369058191428216
0,0244376709308867
0,0714950952265769
0,0509615413782958
0,0440212514803198
0,0249472136805744
0,0490773365656845
0,103493047557506
0,0627534936296288
0,0429075238671451
0,0227299889536199
0,0288035546997755
0,0759967663858344
0,0557731142756018
0,0239081556490152
0,0582866851768561
0,0535566685143975
0,0405819384406962
0,0360385223494128
0,0243776442227031
0,0533464832669876
0,0428743358492854
-0,00661853531614178
0,045745060195996
0,100101758261742
0,0516008537046678
0,104459386537082
0,0425720426003106
0,0540794536605892
0,0475853126835988
0,043349885241571
0,0398420190671499
0,0475723152417951
0,028639769632373
0,0517618156936176
0,0733880523986197
0,0388486431503723
0,036314694308172
0,0748063900230018
0,0433798083241257
0,0160278272485552
0,0955690589769023
0,0572815334476432
0,0230190373211152
0,0693162408238224
0,048842429664305
0,0341393897130482
0,0336818444558925
0,0778079029236025
0,0468967643618844
0,048006860859682
0,0408083576209247
0,0370982640340453
0,0517084962049856
0,0492773230068105
0,0369340382269002
0,0417070486092462
0,0138071226710455
0,0475565538223736
0,090116588141822
0,0721326009900927
0,0475929856938803
0,0502741124807028
0,00493941482489543
0,0490342984971361
0,0858627250504477
0,0442030371327601
0,0449425851529013
0,0363615540158919
0,0393840739344892
0,0391929238357719
0,0501559607191004
0,0287351650540107
0,00386085350567719
0,0854690576942776
0,0623722103925077
0,0502913777287258
0,0333039470569199
0,0262189676010035
0,00420985961347298
0,0784518374092993
0,0797248256942255
0,0432254238473003
0,039927978608104
0,0297827861034419
0,0397702867260515
0,0630451544161173
0,0374318530314029
0,043798596988149
0,0314193473206886
0,0362971657750048
0,0415178986333061
0,0365909392697471
0,0415746119409511
0,0418002644901913
0,0410411510320494
0,0352815263097465
0,0387839392746852
0,0489303576415152
0,0474838219768709
0,0428212901821807
0,0407150883444109
0,030995590817989
0,0457365803991978
0,064077966380553
0,0370103757729868
0,0482371877094643
0,0382445311183016
0,0447394270859206
0,0385841185217864
0,0498196479567995
0,0353492317134082
0,0338854962687907
0,0169590140358472
0,0808931132722178
0,0530853002061132
0,0472332757310963
0,0254908428013042
0,0557297898135392
0,0520817584595935
0,0386677766683858
0,042918834957763
0,0459006813165066
0,0332624327177953
0,0209920713086647
0,0714241224114474
0,0519723521708342
0,0309594262201695
0,0572870252186359
0,0529374598748971
0,0350419249138057
0,0296440080424465
0,00628396058626101
0,111706586476994
0,0614313891786492
0,00841138052048302
0,0921748095409468
0,0630529297383975
0,0527921836086271
0,0287475634167773
-0,0217730731561086
0,129762683192823
0,117470777177694
0,0436675694121428
0,037961773097032
0,0583553238832537
0,0382420605338128
0,0462304168825744
0,0331842830361228
0,0424010272274759
0,06082837555526
0,0608511386806975
0,103628680507957
0,0277564619248368
0,0537048468845191
0,0624556722589643
0,047617468769548
0,0491740028399707
0,0363028563743571
0,0301793327819558
0,0547435670216028
0,0582981511823435
0,0579358671041152
0,0522313361719706
0,0287028710518941
0,069304322286851
0,0600721058521153
0,0380692985235047
0,0380235563401776
0,0586892247146604
0,0411824031349773
0,0489985708797164
0,0431351963862986
0,0521242598262912
0,0340445410165039
0,0110722425193763
0,100024788903297
0,0604851454895592
0,0446088527665324
0,0875230016072125
0,0518090481276359
0,0459297302863222
0,0403943540114646
0,0385328254523026
0,0462049367959891
0,0372644777331202
0,0273509175896533
0,0582645540083114
0,0561996977343385
0,0428592076484483
0,0461471828996498
0,040260355874706
0,043569427484117
0,0472354185023884
0,0424224224259258
0,0428129809243417
0,0569914693415391
0,0329903732791895
0,0492583573801049
0,0839106295687917
0,0278963045850881
0,072291272750886
0,101569656280694
0,0539770372562156
0,0539810680008735
0,0429246437623005
0,0503137763748869
0,0406936202791634
0,049419079746037
0,0461380423900661
0,0456786399873777
0,0656694260790992
0,0595544383850998
0,0442311429932149
0,0292186488063019
0,0987101690856702
0,124196709419489
0,0745741133546834
0,0582646448511052
0,0274046878734047
0,0686706803045287
0,0826798624188436
0,0667063222245658
0,102129636041441
0,0569569262094256
0,0712093713938429
0,0528797204374309
0,0654917653277655
0,059228760483321
0,0641742299265009
0,0582838510817623
0,0682863761982619
0,0617546723523361
0,0696662203575978
0,0535395261446984
0,0498825215953964
0,107992950840227
0,0874124311520681
0,0661386511674421
0,0789255996115317
0,0586559730605219
0,0756425618858432
0,0898721320629392
0,102210516315101
0,107559536735988
0,0822894380704696
0,136802249486143
0,0891323674041579
0,0874677559325958
0,0745404833154068
0,0785623059135655
0,0807594285215694
0,0896406541647014
0,0847103648312404
0,0940771844924284
0,0868618092163227
0,0927895236321928
0,0923269277765988
0,0912729136164777
0,0874423123549675
0,114515872151558
0,0982051823224469
0,105887956492778
0,0854908968408809
0,0902882832037516
0,155488669415687
0,162090899913621
0,12882627478398
0,111366052390187
0,125496169550868
0,112653881771304
0,113960145190806
0,102510397429634
0,118075509533086
0,0996873996869842
0,142255647498568
0,138983825115864
0,140086938950283
0,149122879069184
0,119210907010505
0,146121426184437
0,134834166546506
0,133723988634139
0,158408005186994
0,147144114353509
0,117877133423842
0,150577727580801
0,170916175236634
0,162965359741497
0,163610195052544
0,141524518966475
0,152507784074277
0,150435498278615
0,161016043322722
0,152609765990527
0,156721593671182
0,162227538335419
0,160762825719176
0,174862520673084
0,158890229344296
0,161831187475577
0,179168749223911
0,176599325335818
0,171861121631394
0,194978527041713
0,165076168654245
0,188093101292552
0,154785732917679
0,192352891384417
0,216392824245013
0,200758608786481
0,21851037244107
0,191096391399426
0,18759442167915
0,196294906965187
0,189365107148521
0,189170003040126
0,215169020589637
0,207967792367992
0,200539936000692
0,212641041871056
0,212816921998725
0,216023322049611
0,216455594587733
0,215144860110765
0,225711608487081
0,221681709682699
0,214945374549035
0,236324145145811
0,229609213716618
0,249788423960483
0,259267813316795
0,258072594959571
0,284293263313825
0,248994484340038
0,246953176951175
0,249750882641836
0,243545404060101
0,242039227173174
0,260533794588828
0,245072005936544
0,261168245949649
0,254819179748649
0,258647183479903
0,27584221571548
0,286365643177952
0,278458049101719
0,27392457679451
0,314651393666739
0,285400580047391
0,290994990922334
0,290838184902217
0,304952627002438
0,292104820297592
0,293380796879422
0,295179957795172
0,296923991828238
0,306085737733172
0,324143500662154
0,305407135306418
0,317934855635866
0,320389276280533
0,324156442821715
0,315888582319332
0,313845033820775
0,340374900559242
0,338436584324522
0,337609677640002
0,334902865016285
0,332238454771565
0,354226797747158
0,353230550985106
0,359654093504153
0,351443007012068
0,345666278228135
0,349499715568556
0,355478711797159
0,369496282148173
0,387672002483046
0,369614668114045
0,387678382066786
0,372534680607093
0,387026450692781
0,36916494086635
0,373858293700833
0,377201136780817
0,387760148959135
0,384885176977893
0,402377869405672
0,397982975838098
0,400435486728456
0,380811964552364
0,418144306700718
0,437639928446255
0,426128107298293
0,417334852578648
0,415613958778587
0,428710113105884
0,430995863571601
0,425162721466513
0,450772588144883
0,431190961997601
0,439999322068321
0,432717841833447
0,466277804995648
0,43679129448547
0,450256517775946
0,439127627896384
0,486253692314604
0,473495473885646
0,477055757316857
0,493852888509818
0,468972972557104
0,453219926190364
0,487652599654911
0,475753435066063
0,469338409618388
0,49244506564117
0,495472637648823
0,493946030952851
0,506990138503846
0,501712987226851
0,51562920874822
0,518127997930755
0,52069650817669
0,504321349822893
0,519275902073531
0,514997909772161
0,545121173133246
0,518937911384353
0,530091585632116
0,522835429911817
0,545265977990172
0,537505229222505
0,520764106612481
0,545702171175205
0,53916328187685
0,53114273999309
0,54807797810978
0,546527265696502
0,571076724896418
0,569130177310644
0,548385056644798
0,530670534000425
0,585556542426993
0,571011663825362
0,569673460032538
0,561826725887186
0,589976787275865
0,583533443018609
0,586312079192464
0,603411602205606
0,587929039033545
0,556337388454582
0,594026309805998
0,606900502641291
0,623288206371433
0,593189278829878
0,610553115125772
0,595005560896961
0,627959844248597
0,642741029832134
0,657324194861938
0,621452892314234
0,61538611594818
0,639799132440074
0,658909253090047
0,627649919053098
0,649498548435604
0,641810696400688
0,663785830638057
0,648823356675218
0,660616836033712
0,633616016879384
0,662560020000403
0,696127891363738
0,660544654563343
0,629188104842301
0,681813967349345
0,682756299767239
0,687090482534512
0,674028957763258
0,701657346761519
0,658955310644124
0,690978060152663
0,691655707831128
0,717746071962019
0,664852673530943
0,697172116327091
0,691433190709827
0,717910824326418
0,706993716416605
0,705282918592687
0,674500818877722
0,738706753948291
0,725191541318426
0,704098380189261
0,700464194762582
0,71234053509647
0,708503145605659
0,713916814494349
0,694018312826502
0,738698963760369
0,720881284526809
0,743602352690269
0,71405076025604
0,721085553943745
0,719221314104031
0,724918875303865
0,717476248990228
0,73242986542751
0,739091504109899
0,753759714869454
0,78757450957702
0,770733090248247
0,792418484503227
0,792709049864147
0,710913541690696
0,76660919493367
0,733934025328924
0,762575643450579
0,734266014528629
0,775001309161356
0,760267330771238
0,771573209124255
0,76754776232395
0,761034616182317
0,777995181647234
0,784217184771366
0,760614052269683
0,804946390653234
0,760128038688463
0,786029134612366
0,782085370486555
0,794841093017726
0,768650018072779
0,806806206252931
0,783493859854268
0,794872422140855
0,781384338876701
0,796374103891053
0,7949508087204
0,788960432659951
0,771255344652085
0,836634463579382
0,793483479053042
0,810133360851852
0,84534343143085
0,812533748787474
0,785172556325724
0,835325045280445
0,811826210794242
0,834568099413454
0,808799825457981
0,82065083447396
0,809162627580719
0,84190941948581
0,815931065175871
0,818831107871262
0,814758272126356
0,819870821298547
0,815156681378567
0,843492482393301
0,813056350757922
0,825007137448169
0,827840514577793
0,840802520056876
0,843379092384645
0,834040765481135
0,808752474302324
0,841252537530534
0,81065555862397
0,816721104322753
0,834330005873145
0,812351792014155
0,848543892516321
0,823149267213014
0,7958299064655
0,835139172951258
0,834288996561847
0,834856975951673
0,856891350244279
0,864823305675275
0,82554333372419
0,863589481351783
0,862670716520055
0,858444526713299
0,8444275136421
0,835715860583959
0,812555530939373
0,841968790683675
0,840013676590295
0,837385496990727
0,796539405825018
0,825632165105695
0,840152064753885
0,86290828491673
0,842424431113871
0,833844233490023
0,788203446109754
0,85558858287442
0,831028738439958
0,865181328199447
0,832248332294814
0,854328391954496
0,842907778513199
0,852005295197918
0,833082431896826
0,829289303250301
0,838835636031857
0,826769937854192
0,832305375073713
0,82971037179593
0,817730366869852
0,83942414179087
0,836535074186915
0,825776952361684
0,832157046527753
0,840625789009014
0,84015659643769
0,845169079950162
0,793798831351727
0,838669184246786
0,849286049963507
0,818328684349208
0,832169490502512
0,837141169183893
0,810753497318687
0,83332792718296
0,820221128299985
0,82932473724096
0,832108136311967
0,830027023419308
0,819584586806346
0,827085492568131
0,81518224007271
0,803800269594173
0,83402470218439
0,818855821123168
0,799258027421607
0,826801858719237
0,828425468689838
0,846605918206635
0,832595023877195
0,842430557617129
0,8116752374223
0,838472327109812
0,824239215785467
0,811816712245851
0,831559773102289
0,861791163436102
0,804480496940044
0,829362007319812
0,829414745907389
0,831710401246847
0,8103659860835
0,841650735687227
0,820038295191784
0,802158377491594
0,792350624335935
0,824299988034157
0,819380608673836
0,821695251889611
0,79730231552106
0,803412230614054
0,815240039927431
0,789349103872609
0,791424580504823
0,812501622496985
0,808024663059198
0,817696297645798
0,803257738469987
0,785242382357372
0,787250845275066
0,800864365698577
0,774260288417241
0,778162366465435
0,800849797868762
0,81873475268875
0,779765373330284
0,791209212947342
0,80009589340223
0,765742779171469
0,765799037089086
0,758751577408502
0,773437096732982
0,760440847546925
0,743660599686369
0,751213570179438
0,789209349903298
0,784685487201958
0,765537905288854
0,773167981954522
0,778759808455556
0,770474407783072
0,744988616949698
0,753432921138047
0,738882073756402
0,739513792697194
0,760924039895562
0,746226928482029
0,747890228092441
0,734171488674733
0,741658272742133
0,742017454709477
0,723730818768645
0,75743780551441
0,726270015205458
0,723153640060855
0,751655932892078
0,735753659630002
0,720493297121148
0,701379993211574
0,699534011344171
0,731024185675226
0,718594794567995
0,706398913705003
0,725276577216547
0,734416275148987
0,704357832887568
0,700372953045028
0,700406734592661
0,700317479297631
0,685796886108064
0,703503456395877
0,700305359028406
0,691077223460261
0,692079046186401
0,705619540968376
0,700647321260785
0,683994619049775
0,681636547075809
0,678675221947717
0,668358595412096
0,670450339354746
0,670987221597475
0,674612830401861
0,660690128780735
0,653584446918939
0,668264148861615
0,667803685046259
0,660196920544594
0,657867843747127
0,648804412022982
0,64845062233365
0,644699441877799
0,62759601720504
0,641093848886856
0,651126267646348
0,646269865467164
0,632875049900036
0,618655700643981
0,633046713750492
0,636299596478817
0,626367642112432
0,637190209086859
0,633800536880384
0,62483184799839
0,608171834813467
0,619001795022469
0,611469786271484
0,605441580044407
0,597128849975698
0,604599999937026
0,601065814186948
0,58303543798635
0,579826062801627
0,578895687924892
0,584694224561651
0,583708187618177
0,59536771924217
0,587607427495928
0,568978852850191
0,563725895882257
0,576511958344233
0,575872823552213
0,568821893042964
0,56437085435866
0,549266882837296
0,553603934772726
0,571515534982286
0,563565191099398
0,539937598175875
0,545191915328994
0,552181225596679
0,538440679719772
0,549117856612828
0,535216894350606
0,5329011147436
0,529431123292796
0,524281407612152
0,530324945087288
0,518794348467519
0,522462691264279
0,513911338620804
0,515157406695963
0,507424350385719
0,50748804473022
0,508504796708805
0,504102361296678
0,502250211892489
0,495786701684895
0,503276721534773
0,492757896302667
0,489504429930993
0,495728457777068
0,477963603405876
0,489694028531087
0,483123383471137
0,469401217405957
0,475067891893323
0,478842734173972
0,460405340243564
0,46990555222344
0,468144565153668
0,457490431500133
0,460721980169167
0,455857880780717
0,451530848033653
0,449167504830403
0,45001756127649
0,452552803224443
0,44179664651426
0,45797279082948
0,448483336041188
0,454647009817555
0,437193703125229
0,452783447320348
0,435476838493112
0,421451248512015
0,43122413039716
0,427386026650647
0,431410659927639
0,429444120891046
0,42162236782968
0,419698724018566
0,414814983203042
0,415704710533621
0,40792766666788
0,41061490729309
0,406049966183053
0,409127638141814
0,396848468115261
0,400807964801508
0,400692839042264
0,390411659528731
0,388333863986538
0,392208036506295
0,38798260334442
0,380201817196359
0,378193322984085
0,391255932315652
0,375664068595535
0,382954927164245
0,370244685786407
0,374041780423736
0,375198176880518
0,370282328674709
0,370972866756388
0,369338269790508
0,35934486103133
0,361023352288954
0,357268979760343
0,362398182946674
0,352922080084075
0,358247669328423
0,350636144355283
0,347302088695473
0,341162417948924
0,350039124888073
0,342624285976804
0,343235796729804
0,340881411927334
0,339886310567926
0,343939517946905
0,341098735089461
0,331253988320774
0,330670995561329
0,330446665106115
0,332696771909915
0,323164594015957
0,32440843010688
0,317456900902393
0,322963109998252
0,318453007586887
0,322088185533767
0,32089097443467
0,31592273805703
0,31286427800145
0,308132930558478
0,303419532175377
0,31093310804207
0,296272125961316
0,30038910165669
0,297863793127696
0,29808477664377
0,296030414778584
0,296765184476201
0,297734383082288
0,2906458126189
0,291948066887783
0,295284722683198
0,283167004114853
0,281870901173907
0,277509426352199
0,283698215363156
0,280953941512035
0,284181668130683
0,275464167972556
0,273170371952803
0,273683065211285
0,273237834379146
0,266876237204293
0,272679503609404
0,2733667786861
0,269031312912059
0,26072577014813
0,269349565143494
0,260346643679159
0,260103834499008
0,257853194931792
0,259285736936029
0,252073505651908
0,257749867018136
0,245900233945604
0,249094683175191
0,249698042543409
0,250368449857447
0,25361522983367
0,252583920414361
0,246170114979221
0,249274842173067
0,242213952485707
0,248483481735514
0,242172041230294
0,241916243980144
0,243275718072017
0,240688488156278
0,234899289892093
0,239038785889387
0,234726981033517
0,242333273859647
0,238298314183192
0,243810791991222
0,237046847914443
0,240895860007065
0,237284753701204
0,241342818812251
0,230683501369695
0,240213345064029
0,238472615447843
0,234603785062075
0,237230788883514
0,24284829316975
0,23693759543111
0,240669461958719
0,238485281153855
0,245025161956919
0,237679036643816
0,241172452637011
0,238225372582784
0,247934800532472
0,237795368821379
0,242308236114476
0,246244008221751
0,245933982049986
0,245860179723431
0,249330036248693
0,239669538859132
0,249068066222417
0,25069105229247
0,255196007230285
0,251677952298201
0,25941122744162
0,260561680684571
0,25602314799908
0,255522503383199
0,261415210819924
0,259412000841234
0,262323908801323
0,254667180713696
0,267181234184386
0,263395755738254
0,265899937584576
0,266826589396172
0,271476415340937
0,270574664337448
0,27145879409032
0,271840176888726
0,281404919087893
0,274316127856982
0,279622905660807
0,28193938479277
0,290766390141274
0,288729534198184
0,292097637411404
0,29264323094041
0,291004184527368
0,28917073439013
0,30491688651944
0,293245289714274
0,298903126975935
0,30280921539441
0,308512989200476
0,309560489915209
0,316762296203672
0,311977437935329
0,321775699768713
0,316159128927522
0,321253776089626
0,315115625736305
0,320497994241443
0,319776602186026
0,332804170150664
0,331124684726398
0,324096964811127
0,32736668167848
0,32582308588782
0,32134324170074
0,335866191001333
0,32931316745958
0,329782877161106
0,331971067157611
0,325908090587442
0,323301180696439
0,332220870804672
0,324477467565033
0,332283810030327
0,325118879350319
0,333652808745138
0,325881353487492
0,324637131181014
0,322828575309277
0,328645716544332
0,323554644153196
0,325024598546066
0,320914298405315
0,325406642231006
0,320222386106898
0,324209885524399
0,320498744603756
0,321556397625092
0,313820092339799
0,31810061022196
0,322353313018469
0,324294044993502
0,31754333924263
0,329097334859555
0,320433376811453
0,328507329090598
0,325191559960375
0,327918730048207
0,319610977639758
0,328074392725491
0,32051527337847
0,327525284177893
0,317958942870982
0,327315031445028
0,322839639681235
0,331373420229032
0,325732820590117
0,325879184465181
0,323108296009238
0,326817619317646
0,321721009015713
0,323965326722128
0,319360246638778
0,318971237753352
0,316212506840145
0,324836290507152
0,316049251558182
0,316679317350021
0,313674129918911
0,322384704461726
0,309100735315522
0,312882962316983
0,310114121649092
0,309663624128302
0,308262021263871
0,306509507716352
0,299692235312652
0,303643257238316
0,293760138592255
0,300468006813041
0,297975959380124
0,291562639453582
0,287626259454861
0,291133368977433
0,288651835293732
0,282971115806093
0,279984390484339
0,286329038428902
0,272058794321702
0,277720106578013
0,27087759924882
0,270401951927749
0,267659554910663
0,264315031499456
0,253178934257853
0,257083658134623
0,260804343369661
0,260382551002596
0,24771922878342
0,253208293729287
0,251209320222447
0,246956448533073
0,238809299018876
0,244962309182999
0,236345865616291
0,241033374459094
0,233006223359385
0,238771418545683
0,232513840406193
0,233029366838799
0,232978277857553
0,236743733383345
0,229997220652664
0,231146062551227
0,220563958734256
0,225466733544363
0,220193992901819
0,218698067267021
0,213448153303695
0,222394037127502
0,215047061201841
0,216142255181601
0,212288981057939
0,215777736699375
0,212245198791285
0,210682369749646
0,204926126598677
0,207859350306522
0,205654408919042
0,208076431004852
0,20016619060502
0,205199641871684
0,205036265226304
0,20096571606176
0,198090868150515
0,203026823637908
0,197632357221739
0,197579111009069
0,192222683401168
0,19604000090709
0,189746016959299
0,194498635505343
0,1900479914035
0,190750295795684
0,189696754173454
0,191060591969016
0,181851120765561
0,187339740520667
0,18890020487181
0,191039252018819
0,18388457482108
0,18690741484784
0,175326473407649
0,183840154618942
0,18031905447575
0,176779803761814
0,17753445365559
0,176036504842932
0,173584995237544
0,17943460373636
0,176196223788808
0,175749500779164
0,173011932173203
0,173728467589607
0,170073962862232
0,17424904084918
0,166706903919718
0,169235504958606
0,16801052488252
0,170343095765141
0,165757183128486
0,173570027456192
0,167465564564854
0,169843672045132
0,167936328270647
0,168984076741051
0,161307023166297
0,163178771612285
0,165604613837903
0,167605247490525
0,15980318612179
0,163720864659921
0,158933266831799
0,161562191703756
0,160309527986249
0,167441980835736
0,158035120291352
0,164788148634755
0,160286543602399
0,156859498674268
0,152623180379902
0,15806607917198
0,156501823007378
0,159555335071357
0,154529886049822
0,154640138805978
0,153076119188395
0,160558412056376
0,152262032390516
0,154510941935447
0,152209400699345
0,155721774947201
0,152521301986973
0,158110167156319
0,153462991867899
0,157559033783793
0,14722225975745
0,152499644020115
0,149067804599688
0,149331220726316
0,143594539932927
0,152675179630805
0,142493510325198
0,149150428859341
0,152131987846455
0,153470368018128
0,140918344690109
0,147795480798252
0,144938245685974
0,15048458665181
0,144394324592487
0,147495108680871
0,147408126923592
0,147302757763707
0,14099555137315
0,14485392019092
0,14263360032662
0,147318538818148
0,143481967451754
0,144668321112748
0,144511714632544
0,1478577936555
0,143399147764882
0,145934447340966
0,14174803701351
0,147665062149828
0,144155940658259
0,143119711179834
0,138898309554109
0,143471816214661
0,139272836752086
0,14373269218052
0,135122670530256
0,14013977082419
0,138044707992356
0,140740821793045
0,139665894004288
0,143222827493431
0,134123465953696
0,140662022977964
0,134968167213377
0,138360274472457
0,135415973430364
0,138065264122628
0,135123139413656
0,137513083573808
0,138019892316211
0,13748346544864
0,129906861230946
0,134465782388243
0,128830738429733
0,133982129756819
0,128405962555058
0,134649517737313
0,131044816777202
0,132073052019019
0,12904389008519
0,133229836721826
0,127866254185305
0,129765427154805
0,120499820205989
0,131345413361696
0,126586142744656
0,129432272273645
0,12791891518126
0,132764962399723
0,124837234156427
0,126394504205263
0,11723835262968
0,122487208598863
0,119967048426733
0,12593648009613
0,119088602433851
0,12290536470368
0,121377269541797
0,123179720681458
0,118428797232588
0,119987928977277
0,117207405604971
0,116264107748915
0,117260356432372
0,119582846509471
0,113693283479725
0,117643122173923
0,11736356504404
0,115879037827783
0,11260325817231
0,118819084827295
0,116640378676927
0,118616267229402
0,109535888723941
0,114280840147462
0,115619665069124
0,116699921444638
0,110325430646451
0,115715757033444
0,114462989158627
0,112403002489066
0,108673811024653
0,11177573537596
0,108040383268042
0,109801651806929
0,110704196267222
0,113828196495382
0,107151414083465
0,106027942550401
0,102177394087533
0,106380600307166
0,101903835029364
0,104295828516448
0,104160619232922
0,106523960110026
0,105158679401774
0,103139952465781
0,0986553772859989
0,100626924751604
0,101197745373073
0,101384475962563
0,0970536380531458
0,0994384648597677
0,0967831543593642
0,0967726777209538
0,0954382958964379
0,0975318267442805
0,0939626122159225
0,0975495589147226
0,0956926377575532
0,0939930122988778
0,0913916357701213
0,0993355937441782
0,0908234903739123
0,0945547855333222
0,0927018187360683
0,0932348408148131
0,0904845178025425
0,0925816486818994
0,0877722670606703
0,0902504838207612
0,0849170733182596
0,0913450906169816
0,0867567286297583
0,0911252908195945
0,0903883241709994
0,0906870987250092
0,0917478335589305
0,0925625162734751
0,0882107992305317
0,0876058160904449
0,0852178166160854
0,0889640485695775
0,0838678810392909
0,0860573489188755
0,0880496551228956
0,0910800992585644
0,087543943160476
0,0865011224820043
0,0812777981939354
0,0862683829185668
0,0827921512140152
0,0848502055625002
0,0814305706308412
0,0850839163323968
0,0815477522092507
0,0849229656611176
0,0826851671931856
0,0871279550259754
0,0807407410875752
0,0835273796142922
0,0774104184622167
0,0808834455434977
0,0817736629242946
0,0842223262620399
0,0780905588021365
0,0792376628540586
0,0791470347914457
0,0809164634897693
0,0777512692677591
0,0812958351613536
0,0733998260493904
0,0803640122264553
0,0770729561158025
0,080252931845599
0,0784602547914961
0,076328081157538
0,071730034138947
0,0766127235831179
0,0754709072836581
0,0750267704436744
0,0745318139110183
0,0795834919104884
0,0758973831125492
0,075960145502741
0,0774658234587387
0,0785849670696007
0,0702614454689939
0,0776744525040136
0,0726288267594195
0,0775597317236141
0,0721342558961672
0,0782834561948342
0,0729255277300595
0,0731298216338661
0,0720543226687352
0,0764809111220615
0,0737288205825078
0,0756940816070767
0,0715371215023975
0,0730415947365568
0,0719054726848159
0,0767301689230371
0,0734426746706203
0,0752356502125916
0,0709980057532853
0,0737987137223458
0,06922792670137
0,0715526988222516
0,0700127984371058
0,0737553618258401
0,068295111851951
0,0732852333299896
0,0708673998340128
0,0703398794935394
0,0694524171150943
0,0763219434819646
0,0703105963509656
0,0741841855093548
0,0668112009417726
0,0699404897165384
0,0670041174889467
0,0714264527335195
0,0660389200599946
0,0698919189766747
0,0686501772945408
0,0701452905389853
0,0664217943377934
0,0713022329353126
0,0675645992054589
0,0674534939875101
0,0654438139635339
0,0683843381398033
0,0656086012425719
0,0700010576935663
0,065294765504185
0,0703487003462467
0,0634244460885694
0,0638019362264312
0,0653320487606849
0,0668324833877001
0,0585562865349768
0,0649269336568952
0,0643965383543456
0,0641308246978024
0,0613911819761454
0,0674867689044571
0,0611811333634571
0,0639280448278024
0,0620449785687258
0,0690777546390918
0,0624400093186559
0,0656604961719415
0,0623305853082442
0,0665809442246133
0,0612581042684513
0,066087220163228
0,0581648967751608
0,0631745228298893
0,0650095472782957
0,065145823422727
0,0617874231870835
0,0652760981396048
0,059026943062825
0,0631531570614108
0,0590672164959729
0,0638683171651114
0,0585749419678342
0,062920413228831
0,0602000277327048
0,063295437563164
0,060591732249006
0,0608168920026518
0,0571117423406972
0,0657255786653591
0,057978789962891
0,0624811227575816
0,060457033355487
0,06081940660455
0,0562201189626164
0,0616849445225016
0,0586262793616471
0,05770024794134
0,057639564545848
0,0621141588869162
0,0566768983726897
0,0593530635003787
0,0557421524244775
0,0593573219231233
0,0573375420597441
0,0565702769590991
0,0544722000084906
0,056886921348726
0,0534603002053916
0,0570025047519614
0,0524228586205228
0,057124822675737
0,0517684899374224
0,0560845021544926
0,0503063349422133
0,0553569667209216
0,0514625614157205
0,0535497617441738
0,0493988544158259
0,0560537219539951
0,0505450768573019
0,0545618750090433
0,0506989164913361
0,0544255939861146
0,0499028019687429
0,0542052122881795
0,0500578976761463
0,0518716790866466
0,0499260105824179
0,0529040186235499
0,0465403846554356
0,0533758530580339
0,0496115239752913
0,0503168901490204
0,0491017551367776
0,0521318630713588
0,0490204625374511
0,0513754661521418
0,0451684197623527
0,0506029318909267
0,0477736023093738
0,0526705307192164
0,0494294225829468
0,0489923507707049
0,0464392629358554
0,0516659491895176
0,0439782423632257
0,0501938304808019
0,0468381471145772
0,0490390836396057
0,046892413819894
0,0468154009242962
0,0449930966451074
0,0472633525131061
0,0460360613532844
0,0504630924511758
0,0433093929344942
0,0486333922364011
0,0452469071321529
0,0473446966949171
0,0428275647658798
0,0498535161315659
0,0461923199515134
0,0463887077094023
0,0408304157585046
0,0455043608133502
0,0432498530882637
0,045155482439799
0,044436173847579
0,0450372763692233
0,0416652529390094
0,0413106249583367
0,0413280520578867
0,0444643617649167
0,0427707249305039
0,0460839265352706
0,037233437142428
0,0423734428599423
0,0415161527828967
0,0414145731505078
0,0425678306218236
0,0426494504664017
0,0394299042406472
0,0418304952603506
0,0386527818428423
0,0423044917634346
0,03804294859911
0,0373188065091827
0,0403340757657951
0,0430582114097514
0,0399267483140266
0,0422508280685846
0,0417555783193365
0,0407650009869823
0,0399558362378482
0,0418820616359897
0,0431344863061524
0,0432008801725576
0,0386685466200163
0,0452178867167943
0,039054474207962
0,0423630276411128
0,0390039024698876
0,0449171231941584
0,0410845355000587
0,0426460566757737
0,0401200926175861
0,0422318297234136
0,0385794943769764
0,0445699391257725
0,0464751325935317
0,0439862962179406
0,0410531525214123
0,0328308037636913
0,0304760098342228
0,0384319525621888
0,0412320239256968
0,0410627055699551
0,0259962680058079
0,0395018013391778
0,0356926096459523
0,0358256035273646
0,0357292927034081
0,0377668573275829
0,0305731521017046
0,0403190994574195
0,0357815385148821
0,0437022771589812
0,0358858882923249
0,0391733971686736
0,0373066657105193
0,035450949778198
0,044543698970203
0,0412197229265763
0,0354748372496427
0,0327160416628567
0,0335529667570001
0,0319521954765827
0,0342884996771633
0,0318466741458753
0,0330164680788942
0,0327186200629061
0,0336909253257777
0,0319815944658887
0,0336204438985558
0,0334535889359229
0,037190524297321
0,0359428804028535
0,0416993895410746
0,0369801331941564
0,0348785564485703
0,0292711901167804
0,0354899769388703
0,0354319657000603
0,0409488007888002
0,0418317698144615
0,037981668010792
0,0315935276339122
0,0348804149594895
0,0442447091886697
0,0364838811778283
0,0354281566013578
0,0312173778716291
0,0501904290147758
0,0280708627660891
0,0400359325938801
0,0297120701107681
0,0556597925478115
0,0311512399564407
0,049117658200389
0,0293220690989837
0,048402069439005
0,0247967136105557
0,0489475163294651
0,02830264793316
0,0439006546891725
0,0311544554859198
0,0414646818856225
0,0322101379990967
0,0412650344999443
0,0338084492700736
0,04234811963073
0,0337266917336937
0,0406603558998737
0,0336643479659429
0,0379977031016561
0,0308163950503046
0,0362830650379105
0,0307879999043258
0,0400058670922033
0,0328999360150429
0,0386352543887354
0,0301911966077013
0,0358704235382869
0,0326502805264715
0,0380610456952896
0,0297125482488512
0,036093685313922
0,0337346649683536
0,0381343961414412
0,0295382119242962
0,0382959969471049
0,0294710724369071
0,037636453425391
0,0313819944386223
0,036170856608198
0,0297670266096282
0,0364525139965419
0,031393629581359
0,0345748209565068
0,0293616757623983
0,0382227928729022
0,0317242000776023
0,0384854917790606
0,0309262348408572
0,037427853048087
0,0329389014551336
0,0376287454201682
0,0317762797672741
0,0373470217305867
0,0320291847399976
0,036247480862847
0,0315258588551916
0,037487598853966
0,0326466464661746
0,036145555411272
0,031069258576831
0,0371965145413757
0,0293121689175853
0,0386387929308033
0,0330252477924626
0,0360523036728089
0,0333746832775885
0,0377849494212543
0,0329492311677776
0,0344195663686207
0,0339943869521653
0,0356086610848855
0,0325606538423127
0,0363061939540616
0,0300368056098629
0,0365501445449617
0,0343566555930651
0,0390983701381995
0,0294831212286875
0,0359340021185138
0,031355519980374
0,0348981903684949
0,0319207374938775
0,0356948871889649
0,0340986460911706
0,0350349163800461
0,0330177635780456
0,0397695047152345
0,0334038463876303
0,0354930689608779
0,0305010147744172
0,0391711009769979
0,0312468011725485
0,034676021109072
0,0310416096528856
0,0350693231860329
0,0344573283934182
0,0340260742031091
0,0315150689379411
0,0392224366732816
0,0302250908904095
0,0335985585451979
0,0328032872236116
0,0353373359055833
0,0310407208709429
0,0388516866264838
0,0318035468405265
0,0388771927070386
0,0338584386556018
0,038368147142897
0,0365245395322587
0,0358778045782266
0,0324794578281866
0,0382469994071153
0,034210443570783
0,0365982300321306
0,0344330080348596
0,0371000509709886
0,034268640879671
0,0379953185209192
0,0320214049640264
0,0365301333045558
0,0348536702666302
0,0404640142494695
0,0339627906942878
0,0396388282519878
0,0324470995403769
0,0369786487156023
0,0366472289805649
0,0384773084403467
0,0324785126347406
0,0394020841534245
0,0348726996644228
0,0364203313967031
0,0341889940108846
0,0370492692159933
0,0363086953812159
0,0405811833469071
0,0336503579970548
0,0360706235072877
0,0351485898731715
0,0389260615851547
0,0344822746818323
0,0390794056628412
0,0338520665814375
0,0424268499930099
0,0358830752290867
0,0360945297908832
0,0344358272954036
0,0359328245604861
0,0329709226875976
0,038134570393439
0,0333733887836076
0,0381970701487772
0,0343706270546609
0,0385667058871108
0,0326264403799835
0,0384218544769998
0,0367068580222096
0,0397994594534452
0,0360360985918652
0,0379764333213613
0,0318745887197442
0,0394500238852721
0,0350591541482457
0,0380062364436054
0,0370220824109829
0,039335812020416
0,0390078547875716
0,04042827635923
0,035785269324112
0,0408294280776176
0,0369086635151631
0,040674242307344
0,0372227921634677
0,0418842337648705
0,0379475333761707
0,0379547710646069
0,0354951123713737
0,0403022954015411
0,0369451042141303
0,0409242338250579
0,0395132805305719
0,0400799730728818
0,0360802589552504
0,0421918017098334
0,0357202010459784
0,0383246391643606
0,0368157512892218
0,0405059310252262
0,0385602039301631
0,0391865806774704
0,0335040512444664
0,0412027214214688
0,0360002738503149
0,038973041453061
0,0368882678592336
0,0400744094014536
0,0351784310200474
0,0400874185556724
0,0354138237013092
0,0391663878840093
0,0316157944864061
0,0389749597476435
0,0344134056023423
0,0390472726463224
0,0335112075345348
0,0393998058543363
0,0338420384207872
0,0384384892334767
0,0327286434805568
0,0374224912386317
0,0342457062752781
0,0385792852120848
0,0347812847579078
0,0374841956353805
0,0338372687590012
0,0380893267863372
0,033831184461155
0,0383826132819572
0,0315598664917366
0,0370075938888311
0,0323680085452789
0,0380919440352497
0,0323003715371053
0,0366628093444791
0,0318131119080088
0,0374686457118374
0,0365670915689134
0,0401626901682156
0,0324350211064163
0,0354671676328347
0,0328050344220994
0,0374497685681653
0,0316304085782763
0,0391540664059732
0,0347178937754418
0,0401997805358941
0,0298092212721696
0,0387811757634943
0,0340799808954527
0,0375008028654011
0,0336496445559851
0,0339768017001361
0,0311293109871061
0,0392407770577856
0,033065199792038
0,0358666520039285
0,0348066111566521
0,0360454210552062
0,0309282795954474
0,0380385149162904
0,0322985931304387
0,0367634361384192
0,0322416624242698
0,0362334516001219
0,0331104803283558
0,0352513124814388
0,0339653036056832
0,0379170693253332
0,0318000722276847
0,0373008865304704
0,0322573947401948
0,0354624723628529
0,0301589281319446
0,0341379378081159
0,03239684886319
0,0351295340280861
0,0322575814061597
0,0331369285545239
0,030576792582576
0,034240277916943
0,0347425279541609
0,0364339196989186
0,0330487225902616
0,0341604713443589
0,0314089694717032
0,0355705093376626
0,0324561230738256
0,03373108266282
0,0332330251938389
0,0357020891801017
0,0321263757046084
0,036463207014028
0,0297112492683256
0,03584976999959
0,0321561228922965
0,0367673870276403
0,0300379792167875
0,0366415647431498
0,0309126570458013
0,0354660128745421
0,0306889071487356
0,0369191991998234
0,0316904594854757
0,0352536940945924
0,0314269573758297
0,0366873141603349
0,0320928942862159
0,0350345017032086
0,0306640656860679
0,0353269852120768
0,0293477063729786
0,0349376480681221
0,0289256247710928
0,0348079805207774
0,0293944565107285
0,0351501489209559
0,029100693841293
0,0332562218145198
0,0302186398145694
0,034229063552364
0,0289625143134907
0,0331620315528973
0,0290130247685837
0,0327438048976135
0,0284697721802225
0,0320836944181141
0,0279794516167372
0,0320011642269252
0,0300730163322038
0,0333657330832026
0,0279064698166036
0,0312214755062564
0,0329917463323806
0,0331649921408555
0,0284575213781896
0,0331153339574002
0,029382647155961
0,0313221947976302
0,0265533379540988
0,0290233781867007
0,0272846140752896
0,0304747854261682
0,0257179032863375
0,0317323041906101
0,0260501309453374
0,0314083094813644
0,0250279744678409
0,0316328385440646
0,0256591097818093
0,0296547759585832
0,0246793517708382
0,0296038194118065
0,0270946828349584
0,0285931465315149
0,025671931164834
0,0292554795681627
0,0232329400979768
0,0296904288279982
0,0239335658417436
0,0359465149190015
0,0291607577721967
0,0260324016205574
0,0272349726943933
0,0326558738627474
0,0239163009280432
0,0301340771144432
0,0255227144302923
0,0290076366949329
0,025056777279353
0,0281534463789453
0,0262636529418694
0,0273089431815888
0,0230641623287911
0,0298782187134538
0,0248495296281129
0,0316736879939523
0,026155978317982
0,0291313092578647
0,0228749335644949
0,0288232202556817
0,0253201733661949
0,0274543809446844
0,0249734117592243
0,0275672334367353
0,0247772976259068
0,0317483699168904
0,0293857454632529
0,0300317772409568
0,0263446075318274
0,0290824191401999
0,0233726889906472
0,026299042865186
0,0244727672008946
0,0258638261045985
0,0243536283939273
0,0255369089406537
0,0237735430518991
0,0277425846561236
0,0237818320249539
0,0297355805833918
0,022291928981591
0,026928129005526
0,0235007929162335
0,0283932900610715
0,0245130468079583
0,0290934030183223
0,0200287723765083
0,0268951704455099
0,0223766578151098
0,0284500848139755
0,0219486953292423
0,0268435213629811
0,0372321040114472
0,0308081460362517
0,0247162283580151
0,0267277968107848
0,0225945833421359
0,0282131570719468
0,0232557064238701
0,0250859471034655
0,0237731145250822
0,0259786948696363
0,0235745447408698
0,0273718301589754
0,0240413625080693
0,0243315006750068
0,0233388134842553
0,0258972944874618
0,0213667259034684
0,0270476414124394
0,0227574825974962
0,0250124977637662
0,022742087047866
0,0359115330081792
0,027812086481149
0,025921311583592
0,0232165224270134
0,0203997103763022
0,0293741262145756
0,0345645725512115
0,0230198422548864
0,0283125412588278
0,0219802219740037
0,0277393195724604
0,0210285448956698
0,0252932404691454
0,0248011676169915
0,0331207854754229
0,021230857171618
0,0290036903839098
0,023953615190206
0,025793849097786
0,02143462734588
0,024916291759704
0,0200712163965349
0,0242021871682347
0,0218939327616667
0,0268992188013326
0,0207726060655877
0,0271458369143371
0,0223593667654687
0,0247617956872921
0,0204004630677659
0,0325942053027329
0,0228891512324771
0,0272205654757839
0,0219269692754983
0,025318656132647
0,0179378997100567
0,0422553084515214
0,0235815510617539
0,0274496423039101
0,0189516347844608
0,0268574440608471
0,0217603913369625
0,0282312107189908
0,0228462544231222
0,0259434364483685
0,0197040974002933
0,0249526306793179
0,0226335871639326
0,0232506315107177
0,0215990188274441
0,0288625025501616
0,0243788656158899
0,0258718559792505
0,021711049906172
0,0272642332548547
0,0282145310042271
0,0241746561178762
0,022242020794337
0,0424586158240769
0,0259733475321938
0,0377385266082522
0,0282955996060879
0,0230106693804828
0,0210767936708401
0,0279786288694045
0,0211918725825065
0,0305202099695801
0,0191889172838946
0,0269862120398004
0,022424183230176
0,0258506987645523
0,0172660593402395
0,0284989078708211
0,0209717070126658
0,0291605245297392
0,0193839082113238
0,0285394096243818
0,0191171512727396
0,0261329686297566
0,0188850414794418
0,0311745998570217
0,0247226735439545
0,0290018177819572
0,0157892483597899
0,0376376975150752
0,0489006293477864
0,0277986543601072
0,0301640020192069
0,0228634650032838
0,0241294297848853
0,0247314466914079
0,0209972024067584
0,0304092909305951
0,0263658950798278
0,0236956906956937
0,0225142950517914
0,0260647599004882
0,0234165047510807
0,0227696632113975
0,0140528221244475
0,0503898323011701
0,0324817691093254
0,0289193229083222
0,0224036456451947
0,0171551176968307
0,043714097983694
0,0345733139450565
0,0271920682371562
0,0295246125315825
0,0251203331579811
0,0282736287859863
0,0237453507720066
0,0309367033300669
0,0256220496166445
0,0301091497742504
0,021154741944709
0,0272671171460813
0,0233904308545535
0,0307311442402677
0,0224799688648162
0,0354766941382592
0,0329593140499915
0,027299723291254
0,0272863175939862
0,0322503269977334
0,0268904673164067
0,0275680765213348
0,0262860802643755
0,0284029023850838
0,0279553892398352
0,0427260649189846
0,0256965296113665
0,0378121365075901
0,0384249912837899
0,0282101531767286
0,0240119994120275
0,0324459661008696
0,0316762020596871
0,029924024458528
0,018178373936385
0,0545039265438943
0,0311168112154672
0,0499488687946962
0,0288030437917565
0,0317985490780951
0,0268485514236181
0,0321198053724092
0,0204497400435722
0,0352328679908502
0,0320914837232432
0,0283407103239618
0,0273574175892968
0,0338188199149833
0,0408431972442006
0,034166506524398
0,0316371614520799
0,0311618776648676
0,0276227285466911
0,0350886934493632
0,0379911412616646
0,0184658394122026
0,0394004807066411
0,0594010386108747
0,043550645981644
0,0452965494497368
0,0198303478713767
0,0625180161857902
0,0410386724400835
0,0327806062880428
0,0331870989456424
0,0325465597574289
0,0297159031209687
0,0214546277987127
0,0532670071207808
0,0485101064398174
0,0296021695513646
0,0444432360659245
0,0217043273203578
0,0447325419972303
0,0484159268118068
0,0343365919286957
0,0358923773135745
0,0412758060145563
0,0243169537373725
0,0528128169339338
0,0634148971220196
0,0364281678872172
0,062195339561883
0,0481035077006824
0,0516723653410618
0,0441374842935732
0,0441638253639845
0,0445047748862008
0,0554311677455606
0,0455462972791796
0,0333803128194438
0,041790313884369
0,0700664497054622
0,0401563538404701
0,0481119990927991
0,0479380069852622
0,0289269698995947
0,0464515294462762
0,0913493624705788
0,075910203681816
0,0572745433039378
0,0453348371537426
0,0662977911287242
0,0587243595247934
0,0472825934247081
0,0527631173490792
0,0495122157271966
0,0529251652573029
0,0484929932895439
0,0627591953239869
0,0543724569440697
0,0537792057030995
0,0558536253359688
0,0467141833209749
0,0604151214295458
0,0863902808667181
0,0950168237690912
0,0633506780251047
0,0848441652057728
0,0930193951635496
0,0674967057001552
0,0699032010220215
0,0576773704703014
0,0779355693674915
0,0657634712809028
0,0712220451342472
0,0606750871382333
0,0835189327920807
0,0859254397020964
0,0655381252808928
0,0978219672350205
0,0767462044552515
0,0726970833926305
0,0434381884981695
0,188497359010668
0,123790892385219
0,0905960719389291
0,105885318677281
0,0574627568740766
0,174567487817592
0,105658514830418
0,103454895135233
0,101028902430306
0,102310738372373
0,100650622868458
0,120724180085703
0,113868476020934
0,130863573234748
0,12141375489342
0,119037844393467
0,0971166523747814
0,203868905099121
0,174297140128947
0,166658847139433
0,133449667614415
0,155554845326478
0,163692590913208
0,157923732410066
0,150586006269831
0,163535808172761
0,132331511566933
0,22364951173015
0,175881525918198
0,183174150312668
0,178313266403937
0,213517085062954
0,181233860914722
0,214303433804518
0,243707335453424
0,200493437085683
0,215039313043523
0,202438615920296
0,220496915012216
0,203700562557839
0,238235172802751
0,244439346878218
0,226744564864601
0,23756447229044
0,231641142465361
0,243309313662267
0,233868296118395
0,248367022324974
0,238765814481957
0,273671352814216
0,256124882894175
0,35578840206192
0,312595934541988
0,247184519454477
0,257921385385263
0,245091416786704
0,279229398511027
0,281728839807558
0,263196527052802
0,30704289862809
0,252734723566692
0,26832868659807
0,253160399840779
0,257472868298979
0,258874146693445
0,264316054056297
0,247761271910421
0,27664353232911
0,274049831230745
0,221451928434211
0,334723710892527
0,261685326359859
0,262216259717457
0,26205701067334
0,258367144771817
0,249276949095208
0,257152758420328
0,246308025413339
0,275174899703456
0,254394202637871
0,247855509710932
0,237903687359765
0,241858944449715
0,277966559358753
0,239785914665928
0,243321347483884
0,231131296537087
0,236600431763809
0,232159525893376
0,208622237381307
0,290632202237261
0,234777911586059
0,229017911990304
0,226381026098152
0,215911785520555
0,221832062203312
0,211054714168357
0,215264167319532
0,224261364690943
0,209385183690836
0,213586893074965
0,213497781226205
0,206187468441135
0,211221713592158
0,202364697497345
0,208313473471989
0,201689686545962
0,207924126589145
0,202611766663546
0,204054038384133
0,200017732101757
0,206380421663387
0,207006498407187
0,20909423246732
0,204317206354541
0,201058884447146
0,197443804131111
0,204608536331223
0,192159247541572
0,200718022788941
0,194470805885095
0,196767771840643
0,197028390530417
0,200529933457638
0,192406203582726
0,198392715917757
0,18785124875724
0,198544207330601
0,189463681091094
0,196746278399188
0,187163801066488
0,195178810991164
0,175996613380312
0,205104546974504
0,229130600356348
0,185017460485809
0,195253912705911
0,181873049316134
0,186465187303884
0,17078083266605
0,197772881631458
0,216253486184831
0,175949246689078
0,178962688919878
0,17452030270314
0,176591718450805
0,191175571914462
0,172828387174253
0,173859216337536
0,167169498336449
0,148308527088273
0,272803363426799
0,155194374601797
0,261161413732397
0,178774348201595
0,168086267486639
0,145076660505516
0,209380462267728
0,163686043814002
0,160413099150981
0,159017908991576
0,180133700101486
0,183386802077417
0,153251834280881
0,159884828157439
0,156813994426762
0,161769349633456
0,181903136065508
0,160267473742213
0,150451802390447
0,196490599654445
0,16388639129051
0,167763909554921
0,200878514341126
0,178736253936338
0,151564621980634
0,139137788215185
0,154479127912272
0,125721616302833
0,194108714653192
0,155886616104249
0,152640347592469
0,140966325587554
0,126076317594527
0,138416723858899
0,146676679323117
0,155152356521771
0,120856097312656
0,159779844803877
0,138788000657721
0,119515383429693
0,160317261643134
0,132841563978692
0,188910850634833
0,140457901703459
0,128389838058186
0,127113549644019
0,17608715318766
0,132188815905455
0,135683258302576
0,126482247714155
0,119255441642464
0,143130558192202
0,129051897958726
0,116976800083816
0,141835031656835
0,124287088428815
0,158113605745208
0,162821229338573
0,169850164623644
0,137130796287418
0,114793989323131
0,115163381474589
0,122819855688404
0,115399751739025
0,119276701423015
0,108395415659262
0,143607937415855
0,0915049457350176
0,162048770488554
0,13508988057742
0,116328581523944
0,120958357860044
0,123489069002257
0,120922734909111
0,149751613617129
0,153656877761287
0,156213805929217
0,117387479147193
0,158118338490661
0,129937407546001
0,138435868500262
0,130812777491691
0,14173242185645
0,140225730415366
0,151101240680672
0,149201871974268
0,154354657908693
0,148030547184917
0,166876683114904
0,156359915797708
0,200388015742652
0,159617816696184
0,179923745416202
0,200760581687897
0,209362091625597
0,21273145052211
0,186109239280812
0,193871129994382
0,192213007910744
0,197570078246337
0,204482334042766
0,191925004517044
0,241686680343208
0,213124358563577
0,215376761591931
0,218166210629345
0,218958403419419
0,217058632065247
0,227144372171617
0,244713646566559
0,216754380600145
0,292867940297075
0,243398797338315
0,248406630083642
0,231072822887945
0,237428505464534
0,24572185513659
0,228041376930527
0,24078393204723
0,226909819910167
0,259069828929915
0,254847946093426
0,237646079737768
0,248413963140727
0,244697376232003
0,243126176555022
0,250247075839827
0,251178645879271
0,253277470548904
0,249328841527979
0,260154332832211
0,236605791709562
0,297151782570319
0,294199787156229
0,25385276811868
0,272373481025184
0,262276990929632
0,27766623347991
0,268639610167294
0,281029264490127
0,290232291849363
0,276246127430633
0,285915782098418
0,276362079443955
0,281527005791568
0,290199809076101
0,309496886755623
0,291298993011929
0,284150074106748
0,299347970453845
0,260798722204311
0,354316391355667
0,300414529129533
0,316505021592926
0,300577353794883
0,301482365238539
0,29955358168616
0,299816372022504
0,300965905294722
0,303391020473634
0,30467245110994
0,30441258565204
0,304844808343189
0,299898247607824
0,302305641690457
0,301605981604979
0,317437509435695
0,312014461696563
0,300425937411528
0,302076976527588
0,294436058975437
0,296517113440427
0,303167300276722
0,324252498449497
0,29602207403538
0,308148111372248
0,300117691259527
0,309606913678773
0,316008379849515
0,296492607742335
0,294140848669686
0,300958234726121
0,291507352603053
0,303753788515695
0,283654453728867
0,323024771604421
0,30585056989433
0,306763141107991
0,301382862027342
0,304911279267025
0,308092239484113
0,306711848482823
0,311036504966704
0,313297294713663
0,315049545182393
0,322299021738071
0,320914897667106
0,313329734965794
0,3300459771213
0,32660653116485
0,324307934084564
0,317413973386923
0,315227525728338
0,316784949479508
0,30856912052244
0,31991087067472
0,308242787840756
0,307290905433541
0,299126909091554
0,306582467971897
0,296153072205973
0,316779698476562
0,309490940859174
0,284550039095206
0,302317366559062
0,280185838017139
0,287657940796828
0,282579421254903
0,283257706039227
0,275812428491335
0,288436015184091
0,278752830486405
0,274077202481979
0,271820574900389
0,271106067490626
0,269431499546827
0,272748650480578
0,272685127177788
0,267855239915921
0,270770003800437
0,272288354806785
0,26860575712612
0,268874430553968
0,263407888002356
0,268871315507493
0,266260954843495
0,28334474540236
0,272626407014457
0,274439043327628
0,268778453052932
0,275856170783954
0,259031697476814
0,26624831199365
0,260075151435047
0,26132117884888
0,262113133688753
0,262650668699296
0,264419198752575
0,261052588406099
0,261788510335837
0,264154724239116
0,257878781193044
0,261936569903614
0,259896460323197
0,258544284878343
0,257004458309347
0,257659550107635
0,262150135956633
0,264417335801792
0,26363974611381
0,257139514151897
0,259090952197963
0,255991903375162
0,257924860324628
0,258317485843713
0,258040945875756
0,262993378220708
0,255738351856822
0,258091900136731
0,257550475250212
0,259666231298416
0,25453650796176
0,25536405618124
0,253649253739565
0,251585041268405
0,250889875452711
0,251338190688734
0,248811286847721
0,244475831456641
0,242417062567022
0,24035424100365
0,241414464596637
0,240646490927067
0,235543733374367
0,230606419692532
0,232412097850235
0,229557874286047
0,226118134559934
0,225681190789139
0,222705684212972
0,221965894803262
0,223404667460272
0,225274017688445
0,22314470228127
0,222761527749792
0,219332496957919
0,219430804591756
0,216509090953965
0,22061263508752
0,218708204569581
0,219165535678797
0,217551760579766
0,216923072833506
0,216994602004779
0,217567518442667
0,220647477887234
0,222132620843016
0,219308560154461
0,222747966640067
0,224268160086929
0,224409933430347
0,223774792749555
0,227138699123797
0,226500009129921
0,229446702759654
0,230294248727315
0,2315195116274
0,230582788313105
0,231735235595448
0,235744667188034
0,235613755106918
0,229855822665929
0,236003406179944
0,234037366938287
0,232365232617722
0,234174986477502
0,234276983907156
0,233329732850363
0,234302673566915
0,232013506000571
0,233258231335914
0,231014138983581
0,230816108701972
0,227948204825585
0,230640109605172
0,230588695464385
0,22852749579981
0,228567843183061
0,228576525297509
0,227608501071265
0,225930797206938
0,221000729085925
0,221930676184121
0,223639847105703
0,225819718641913
0,221679502591156
0,220368287367836
0,221837594718939
0,219237374371311
0,215621460098887
0,215899058360493
0,215630038844186
0,21602914329475
0,215803428011906
0,21364912785642
0,211216770195404
0,211562598853999
0,208905026530612
0,211019398926301
0,211983613899724
0,209784794716679
0,207245875389531
0,210088105703379
0,205794624119691
0,205910093934591
0,203850619949755
0,20191772142812
0,203393570769558
0,199376492879348
0,198479455533897
0,199246278425909
0,196414294501937
0,194818629251248
0,193276611549832
0,192480832094001
0,190773135883559
0,191444266630545
0,189857781872659
0,186548741161172
0,186502874102158
0,187895094499675
0,18666656352072
0,185221191920917
0,185593628741046
0,185975321739503
0,184993951498642
0,185027557677923
0,183398448114203
0,182012970651155
0,181181719549025
0,179884161283054
0,178352616972885
0,179544906368683
0,175543335612278
0,172093313102064
0,171182284581772
0,167558149091799
0,164038585814919
0,164492990116844
0,163971440634532
0,163089267953541
0,164181200926082
0,164863102830596
0,161852280924789
0,166002371481945
0,169880097155851
0,17250531648611
0,179270154595605
0,184152679930959
0,189607109069241
0,198247059703668
0,204650672005325
0,211312993621317
0,221327483593117
0,231630503069486
0,240152294809244
0,247638043705518
0,259374986696553
0,269242089362472
0,277258757779651
0,289711456957315
0,299652460505796
0,309601426800391
0,318954585818242
0,327675321612254
0,33809527489961
0,347384262440693
0,355994332432856
0,36586956990198
0,374143955711463
0,383395909989557
0,391718391455567
0,397118741053025
0,401589290436965
0,408576355630259
0,415300102802492
0,418433657545289
0,420621601758579
0,427341914658536
0,430203958059629
0,428288941427355
0,433774183874467
0,432255380601593
0,430578758864181
0,433444173923704
0,434251069505619
0,425702775419078
0,425013875251998
0,428544554821083
0,431986227500059
0,429371070665802
0,429081335553952
0,431120898164664
0,432427271408586
0,43272321829407
0,432851131362652
0,441185730888148
0,441689987384681
0,44159002758197
0,447711007247346
0,452540260278551
0,457454288516957
0,463066133961184
0,463735124317383
0,470440060703981
0,475993151654871
0,484414554567349
0,491254847552925
0,49653158251518
0,50488715083207
0,512961324963901
0,519210905302155
0,525282470023302
0,531868511839377
0,535779836718731
0,535332686203632
0,535209771476338
0,537830971111989
0,539789199933106
0,53973959371547
0,539574874071055
0,540069459756813
0,539820469114601
0,535065177849297
0,532512066127797
0,531456792127488
0,532541046883271
0,534343395986409
0,537931776380361
0,543028164141779
0,54772659193423
0,550278125597941
0,564710010338843
0,572406595492034
0,579545487411612
0,58598210175584
0,599347278122475
0,607029006102574
0,615268411395716
0,625018842524045
0,62967658643659
0,641847631219046
0,653292676243015
0,655400570180403
0,664995311285055
0,684089171881524
0,691338904491935
0,702309375485271
0,72172566560239
0,730643421977635
0,743055272307407
0,759605861925538
0,778524841878511
0,798693998645188
0,802478284117842
0,817934170075434
0,825586909647795
0,841214076957976
0,85680738391359
0,868458835830412
0,871427403650693
0,871947168848518
0,90088886644504
0,902582859710875
0,896761613783709
0,904764791460304
0,924460244773901
0,916266428584981
0,914731921837887
0,915811852597054
0,896291233215236
0,897139096084247
0,910393066977778
0,915419735722964
0,896942158020623
0,891144166869892
0,888969654309339
0,884000972658116
0,890579573983706
0,896439308530829
0,895428064094892
0,898515875975316
0,899533109820696
0,906262611323486
0,921959922501226
0,931966855105847
0,950353749846224
0,947717490917202
0,952027526381685
0,968871433449819
0,984373626773786
1,00125178868479
0,998315427103784
1,00695222627201
1,00616553605061
1,01578379368638
1,02717018636655
1,03614806677901
1,0583485763191
1,06223137950279
1,06006597152496
1,07617692466837
1,07933725212513
1,07823221186145
1,08598198531344
1,08423141275998
1,10994807783628
1,09910886932341
1,08874868459594
1,10485567457666
1,10960002584035
1,11958386885868
1,10626648448574
1,10836859765869
1,09437792361374
1,11346557312496
1,13884020863951
1,10790158643886
1,10925023868811
1,12460293981949
1,10373607486694
1,08775910872771
1,06678851574691
1,04734955880263
1,02834192746612
1,00680324895966
0,980572983338518
0,945925435541719
0,910755997504305
0,877292062485646
0,847958463571737
0,81454660920599
0,775160047167979
0,744429799627491
0,727412232222433
0,699471637044339
0,674999556810368
0,652863604131028
0,636707941473511
0,63228159284377
0,623392328191212
0,615596183947046
0,606500816678131
0,600661634138433
0,599603545588918
0,594768710519334
0,579053932675086
0,574585622574503
0,568430767582319
0,552673090686963
0,537679898086774
0,532053840572938
0,516620158767348
0,501046650902631
0,487964741363718
0,478605264221492
0,45840129575927
0,437307138874573
0,423046295907981
0,409304183327837
0,396612857965862
0,377352613366019
0,35798036315054
0,339555009186139
0,329420805117298
0,307681864830268
0,292820145526056
0,280201645508039
0,268101359785976
0,250765210292258
0,239595894091682
0,232077451640269
0,221813245130381
0,2107809404021
0,20459712517439
0,197320274573489
0,191347642825913
0,183946126346275
0,173517395791181
0,171238792226427
0,167179562710057
0,162877556917524
0,160284970548681
0,164972059758489
0,158003646034616
0,156628901492594
0,15408061202652
0,157129509130598
0,155740540720788
0,157017770279169
0,15973961103821
0,157080811462308
0,154381573595979
0,158718025276573
0,163776247775755
0,160951070183675
0,164426388964371
0,161522895872482
0,166424879951853
0,16713680361098
0,163965217759047
0,16646060925187
0,167921233289919
0,165296242830065
0,165187186526036
0,163210756848003
0,163106364621848
0,16660206962335
0,159093945845556
0,162448731960726
0,161622610003208
0,164396055908258
0,159999455869295
0,160608973602223
0,160119805279736
0,160769903867913
0,163264010290045
0,167681075962801
0,165423889780975
0,166961711105438
0,166607329153842
0,17180836520431
0,17263357788215
0,171887227473104
0,173772240779285
0,172084541171436
0,175036376221151
0,175403113408182
0,174031474751687
0,177226984034296
0,179398745154284
0,18274210632949
0,179247203876932
0,179403172256869
0,183709341437327
0,183518886983421
0,18354033270205
0,179926599142989
0,181866742920054
0,184109970691289
0,184671461810618
0,188526122925301
0,190544637757553
0,197756854188188
0,198659852740442
0,201405359744753
0,198827008637058
0,211766361059723
0,216553190413766
0,223023569894126
0,226842667446682
0,23279508271483
0,239754345854165
0,243083987534236
0,246730060259728
0,239708159161266
0,243444668890895
0,242317757451181
0,238334307824816
0,239847991501063
0,23653361857564
0,229645729974034
0,229416094797292
0,219322646856967
0,220423600971754
0,213898169588715
0,210284160586645
0,213085313989797
0,214601734700095
0,215452054823419
0,213618785994966
0,213922335998053
0,212834232099027
0,217756271467508
0,213796870370378
0,217511725468705
0,217624730819235
0,218551272624542
0,205796248032101
0,207110729227391
0,202025104767035
0,204745624004237
0,204407143486052
0,196727121708967
0,198744976803796
0,204257038891838
0,202387730577395
0,206145627390428
0,195644584453392
0,194059380298714
0,196193159040869
0,19512274452867
0,193351297819731
0,189553001170615
0,186363635042905
0,18715837204344
0,192506680632329
0,191737230827262
0,186390553230378
0,192956102380377
0,183730630460922
0,180955807581737
0,18492834372648
0,182790479746204
0,181540247320753
0,18104303714516
0,183154744064774
0,186695404004165
0,182066830366972
0,18295257157326
0,179170379756618
0,175908574806653
0,169922663486735
0,177612813287815
0,175583264135932
0,175670783050881
0,16941483380827
0,172742876476091
0,172177300383376
0,165173157383158
0,169846836026398
0,166965649501646
0,171257903594826
0,161369844593982
0,165710531430656
0,166278609594257
0,172533108587976
0,170710484766756
0,173785347413632
0,172245623065755
0,179053742173902
0,169005314832256
0,170881102723276
0,170859852255185
0,184584389854144
0,173712478751611
0,178750672040476
0,18854824595336
0,176878157307523
0,178379459647459
0,19084843946963
0,196045938680294
0,178728681252115
0,192219933835399
0,188902683543387
0,203235190699086
0,182883390503509
0,20229135351042
0,201142139864035
0,197034185570866
0,200920396479981
0,220214353993703
0,206115419971868
0,207292200554874
0,223376966532868
0,223537329978874
0,221989443032307
0,218987006475686
0,228798780554242
0,26448823466882
0,267187668682325
0,259280538698637
0,277276059662505
0,262849811524725
0,273434391938914
0,293318256243371
0,288393908166753
0,298324459990599
0,30424845239373
0,308406155266224
0,327223986337429
0,319942801966173
0,308593688241674
0,320134279241709
0,320375965294773
0,319551414505199
0,319770933845082
0,315670690305925
0,314966610833224
0,317580709791538
0,321033393467216
0,306083048452575
0,320915913945704
0,313033882353801
0,310303500644808
0,310088420791445
0,306250692681325
0,284788970272123
0,304406064017978
0,299343835952119
0,31093173938836
0,31094344604895
0,290665097328891
0,304871925181403
0,294699722843798
0,277811468936856
0,300914292338901
0,288105508668666
0,28807859315674
0,302401710708543
0,296464962878769
0,285846111023444
0,288396505949084
0,295382309675646
0,276016048450922
0,286153932518151
0,303099909774394
0,273277325930949
0,263868394054597
0,283112652899051
0,266129843446214
0,269962089052079
0,255492292887614
0,284502996916353
0,267403830291038
0,276677848109739
0,277839700893236
0,28351829083604
0,307812431023752
0,293956238273691
0,280072375373889
0,293418663545756
0,294680628357711
0,297491689424837
0,305818067525868
0,297025813324957
0,287945844658062
0,306168347034524
0,291007935720577
0,263787629810597
0,289074973843331
0,309788407291289
0,28248838273915
0,274878950089016
0,299558832548785
0,307668035848977
0,313360315962534
0,305299182143937
0,30292732617588
0,30546200712875
0,332099554650144
0,332868492440125
0,28346705669884
0,299292173859167
0,326631866376353
0,339161534986184
0,342568190879835
0,38166127544051
0,353519519078563
0,321714123112944
0,358679728791682
0,360126343575196
0,379764935812206
0,3872207097048
0,399287110731479
0,402202602260256
0,420558290871143
0,412635508563749
0,436498782027811
0,375494612882269
0,412993011006796
0,362338129922763
0,464604373247082
0,43811961696003
0,394873841896598
0,370038201625108
0,356994332874678
0,396287205697917
0,376381874661631
0,391854341964194
0,349535277138542
0,402249863676525
0,346660397484758
0,341329444192668
0,314723145096098
0,334283071913779
0,342002479905988
0,308304211486069
0,357971239637142
0,38601678634919
0,336562956391571
0,406261538005922
0,353920886278855
0,312888402882899
0,43583910159637
0,360664330903663
0,400425267126983
0,412069263901258
0,341493368534411
0,34752131801121
0,42634053842561
0,424745123739799
0,378950644448042
0,408273855400594
0,408320439707088
0,385068979033537
0,474693398141092
0,514812644004809
0,497472005461761
0,438617914766894
0,448506442247645
0,384069131001263
0,389665936663728
0,390543274966254
0,502142240835654
0,53765263802916
0,283473886737957
0,358092343985328
0,412153619169562
0,439342181792574
0,329381884193051
0,363091968913814
0,478206308141909
0,410752155784165
0,419673301224459
0,312358002608529
0,336918654519096
