3596
4000,36533379555
650,420452594757
1
2
2
0,0727852327192834
0,0757333820002147
0,078272781377763
0,0766394440758606
0,0841394073477569
0,0711172253037447
0,0710786114012932
0,0778174012297547
0,068494810521368
0,0720995671715685
0,0718026795749104
0,0780434777516354
0,0723590877552992
0,0747640436096183
0,068502609652207
0,0756702515273567
0,0795647034300745
0,0699433329197055
0,0746607452744218
0,0747184337748051
0,0752600462963987
0,0637687352079166
0,0799725240427012
0,0730719772931546
0,0788441745968329
0,0625356116893602
0,075830511370491
0,0715199462798
0,0711818062511157
0,0675324840134481
0,0676068555635181
0,0728509142031571
0,0813357911648544
0,0750481181129976
0,0736824905389258
0,07593986160845
0,0735619173164084
0,07641983700645
0,0764339218672802
0,0793497779864516
0,0813207030472153
0,0714833953560713
0,0770132490657777
0,0728415266233566
0,0754431936080868
0,0736865322178675
0,0776553444889855
0,0709405839364695
0,0752739733635808
0,0789990094278816
0,0801149204953649
0,070416237923103
0,0838280350107837
0,076261859222423
0,0723249574088422
0,086136973865216
0,0850673026133792
0,0806160651985902
0,0751832453442415
0,0672703023892436
0,0887507452559831
0,0760927583875306
0,0761791469821839
0,0697771998424234
0,0834404548901604
0,0772167687555729
0,086143319376835
0,0779534007777406
0,0774472191945307
0,072075434532591
0,0706189993720647
0,086841854676443
0,0833478170674085
0,0787657610674175
0,0898462336134507
0,0724980341377697
0,0665353062160629
0,075207603080955
0,0550609143444008
0,0827725804341657
0,0935174140664974
0,0763560107140299
0,0714155614104754
0,057479276003034
0,0831021639152709
0,0940226486214828
0,0546641763856608
0,0698580115201969
0,0792410794195369
0,0775815553241067
0,0771977151245922
0,0751208549540883
0,0740389717376858
0,0791339601420595
0,0632470674749221
0,068787870693272
0,0677262558440118
0,0815320906472184
0,0592792412270331
0,0689732420789835
0,0681776294997839
0,101620810636216
0,0979455572684492
0,0695897113240844
0,113276207270296
0,0822046209721486
0,0615188046121046
0,104056370456789
0,0881869741535548
0,0768689361830911
0,072596403150044
0,0684850660222463
0,0662324367519821
0,0706539159089503
0,0639825341013042
0,0842720774893995
0,0959619765973385
0,086518706798418
0,0812984474842827
0,0635600465051721
0,0446165506423816
0,101941242744751
0,102425634239103
0,0820268714486338
0,0794685222499339
0,0671116938289956
0,0600174112456624
0,108828627953976
0,0923002216912354
0,0689118582820969
0,0605734226457587
0,0727865401469658
0,0537207137754151
0,0613571963048343
0,0926663828903446
0,0782760761286824
0,0662059259556478
0,0616703617003474
0,0760566588997075
0,114563939273068
0,0825187649685489
0,0772921006600546
0,0503073856687572
0,0593510398027449
0,100383083566305
0,0816852246454984
0,0629612199534541
0,0861871637632796
0,0718023420642364
0,0788845807065448
0,0599999222212445
0,048775981897635
0,0831282621525305
0,0765979270302854
0,0265117912222905
0,117480795459329
0,0986424470145921
0,118328025126743
0,121050379570528
0,0778157988413764
0,0720407437824392
0,0787479027337974
0,0685868346390813
0,0602833272323355
0,0721649621092251
0,0570297561524758
0,0891211353454012
0,0910905055745206
0,0657991446790117
0,0806289668727362
0,0995843533492627
0,0718135295487199
0,052395341456455
0,127418289906183
0,0746060094177246
0,0718539797591345
0,101550218512021
0,0843699717528657
0,0506527641799568
0,0712105563818465
0,0922184855108414
0,0735797540596973
0,0766245109832593
0,0635979945175796
0,0665946686994378
0,0829579829956574
0,0683108057832075
0,0704346797526661
0,0687910102017905
0,0546790293165896
0,0883279448089159
0,111176239143843
0,100523053943388
0,0784520494680309
0,0705431134977542
0,0409893785460391
0,0942466599988174
0,100441841551887
0,0725836900827571
0,0678801566603625
0,0646527009775736
0,0670881664111297
0,0623496419557129
0,0788221488194402
0,0480667867481458
0,0539024260358714
0,105113908657726
0,091111474506995
0,0751539391747629
0,0594427396061545
0,0593368542587646
0,0437885122725561
0,122853251997589
0,102354369035719
0,0701217001219821
0,0651774197017593
0,0679209559515203
0,0807257663495267
0,0798852388668635
0,0687786979721438
0,0682757555807988
0,0604517313926383
0,0565295391677948
0,066664452658656
0,0665237143782059
0,0701427678594582
0,0705770469958041
0,0708101741141314
0,0664205812453691
0,0745509952429556
0,0852154356404961
0,0747489965614111
0,0670639970385046
0,0669245737831025
0,0537266460712219
0,0720467832603702
0,0930590360782318
0,0739664009199952
0,072986596004818
0,0687569519244469
0,0672275623002864
0,0707402454276475
0,0688510593972055
0,0704248365832667
0,0562468316767653
0,0686554096976553
0,0997954283545814
0,0798532580829307
0,0688709054119427
0,0616710809144503
0,0889071905410704
0,0824553139532941
0,0764431690468039
0,0718747337322383
0,0755903959275273
0,0569043283273067
0,0603076513318262
0,0958585930795773
0,0793400228266794
0,0637549017682456
0,0865715946915107
0,0766811004873251
0,0733721483348712
0,0599374368629348
0,0603648576937296
0,140257024178686
0,092356938665982
0,0553322019298366
0,130258835301826
0,0846119001581797
0,084225443233042
0,0532028341441759
0,0400025296050896
0,162340640936518
0,140054145973334
0,0726312622941133
0,0777035619847187
0,0884305310356455
0,0684905812472879
0,0741994663818119
0,0758326768329378
0,090443267479203
0,0957066093030434
0,105791903523601
0,116418440264959
0,0661211650571415
0,0957452250909687
0,0936346947597968
0,0900203523591821
0,074471812334608
0,0665653241913888
0,0642552686811941
0,0908174765690544
0,0886039647874996
0,10768625174925
0,0791404335845665
0,0784763212982014
0,0979410393017679
0,0940475599461842
0,0708901928154837
0,0844657044766143
0,0951970529282539
0,080094029889618
0,0830353761384235
0,0824714487603621
0,0935136391022973
0,0740599000953909
0,070020210752958
0,131325435820104
0,0935310439501555
0,0903210477928932
0,1035598683275
0,0923855009872626
0,0833191915482926
0,0749877912129929
0,0817703211809423
0,08433704844747
0,0788561858054699
0,0809043151071521
0,109218542726683
0,0918667656693071
0,0867597053783711
0,0879776516337738
0,0815991446021775
0,086827676458508
0,0900385410676186
0,0806465118903654
0,0884040350405135
0,0993141858297019
0,0787446044846104
0,101597745343729
0,121925631572446
0,0766389304715817
0,12988582313335
0,139529143047434
0,102286022310913
0,0953177591863545
0,0955459735526172
0,0998828863681266
0,100582819560269
0,101204591426307
0,0953751218323527
0,106168093441751
0,110663605805363
0,108414205042642
0,105805648139757
0,111606033863483
0,17182942215412
0,174505337319534
0,130313609949861
0,120834750686271
0,0791762223194723
0,161433709150958
0,125306297836358
0,138142671515017
0,14541717373017
0,125331818105461
0,129683948998703
0,123468528098019
0,130728513868257
0,129868512811808
0,13494916516261
0,132344393940073
0,132127657572377
0,132189776936095
0,145963261416084
0,128356419811727
0,133350632371498
0,190978532154073
0,156303167293243
0,157955366779104
0,158396353795572
0,151951715086052
0,183383083715487
0,170336860950843
0,205381912343252
0,182694423259491
0,187989922451396
0,22068252629916
0,188756526514867
0,183758258931733
0,169417730369292
0,184245980619828
0,18670997453099
0,193350433385211
0,184860564936846
0,19270671154354
0,19219855013567
0,193477981952419
0,192919915927771
0,195605263955493
0,205230282937731
0,235657335445197
0,214025021756767
0,218134889488747
0,205047059357404
0,247318971934045
0,286849190470601
0,283900271626776
0,231659426941307
0,244729471647699
0,231506892198703
0,233962416403261
0,221222640206188
0,244118399924386
0,247850372920238
0,246560138302923
0,276872484526728
0,271252632965549
0,287605241484671
0,287278861697614
0,250557645621424
0,285501190498945
0,276406960365287
0,304838702904444
0,31006013979537
0,30000055761787
0,272967510318776
0,331918165355353
0,312439811124585
0,318674221318754
0,306289209325184
0,289784836849964
0,311255080948945
0,322171225708209
0,307630901248118
0,311562687578449
0,319534311223467
0,322115030671554
0,332007741059682
0,336856271961204
0,330950905859591
0,338538862358149
0,357049610445064
0,363291010008456
0,35141029024324
0,373044282088245
0,350468558645112
0,35421902268866
0,354131015508031
0,412616516447272
0,398348867610853
0,410753377487334
0,418119530591176
0,390128379851624
0,406036373017103
0,393772164263827
0,388293731126341
0,415992648918002
0,405631161271529
0,417400118600151
0,394023491946866
0,439827389093749
0,428744116127458
0,428888979907868
0,409587398862776
0,4328235772869
0,425976801814915
0,464806823932427
0,464561965410945
0,46257840312771
0,453906389721643
0,502884442684234
0,499689119387021
0,514574083602689
0,508907115865328
0,494049554246468
0,482186641932934
0,48191703262526
0,475876952433766
0,4748279931315
0,486878381583147
0,548109268893546
0,5019335520291
0,498685823900618
0,518461417548925
0,535547955256177
0,517641227485236
0,559835550520446
0,524713650807021
0,570443489664317
0,532201930336682
0,577668904724547
0,549623492333842
0,56975256827262
0,545162572607176
0,579145696950956
0,555977671882183
0,591003353500537
0,550589702160704
0,591653183613947
0,58281528521476
0,588316994096107
0,603453859264202
0,627030228788981
0,600614455512072
0,610539254647579
0,630207350016172
0,635386120116463
0,641043497521784
0,627012825180307
0,619830412906504
0,658220167730861
0,619473141935961
0,644274703259935
0,624873344967079
0,681225179969271
0,650158450962457
0,667664266049776
0,650887996515299
0,705279919090624
0,679315849950469
0,727987766302883
0,660073336579504
0,700144358432792
0,632555024863707
0,684323130484964
0,678940497590644
0,694895713994665
0,707243342904968
0,720276111901531
0,682350706884405
0,740955018764968
0,695602068474757
0,762754447687593
0,746717499810754
0,811763805178537
0,700189414462994
0,751119049836795
0,725086383055628
0,787240817752489
0,797743104998765
0,758931710948765
0,760183200174778
0,748505340916638
0,742317675958711
0,76924099087432
0,745437862375157
0,822885912350087
0,758603732731763
0,848252434154701
0,813182891136182
0,828284852236597
0,809240290767455
0,783064500767733
0,816521806930819
0,87375467436406
0,755798923861762
0,859856368736369
0,791958873948261
0,899130797160972
0,851725112283172
0,887734719867911
0,836788274445402
0,864718722366357
0,840531736994218
0,938331328980852
0,845676080135321
0,881665388142736
0,874227879444909
0,981533263491291
0,859532443847283
0,941127752192758
0,853393445780166
0,893901835948473
0,890826572979244
0,918940099777909
0,906227497537287
0,944633888656123
0,849725702474048
0,991561379749155
0,848231696958626
0,967156413788061
0,955864064080151
1,05002086072651
0,899292097526235
0,935294788845538
0,91927727425544
0,972237465684861
0,914972658833514
0,978635986004805
0,97923555660165
1,12213033828683
0,957153664555796
1,05629171648552
0,977257121411728
1,04572821517306
0,97539736044753
1,00859005041633
0,976794574041586
0,990247260967484
0,930931404744485
1,13805483289582
1,03306021704308
1,06827512737707
0,996180550832604
1,03717645150869
1,02443260319912
1,07710983262109
1,05902121514521
1,10930647825396
0,952939719470526
1,03622645701361
1,02895961452654
1,11959820138968
1,01683669186402
1,12405397704205
1,08072445230654
1,13087476352228
1,01491444784394
1,14037777264994
1,08945419920841
1,14848529241266
0,991589668889311
1,15516078498544
1,11298907363792
1,19661901130229
1,14954284082365
1,14692022641768
1,08395051782558
1,10564143122131
1,17166482754979
1,14840595349292
1,10906521899283
1,16323497219729
1,18156647327835
1,07984223865027
1,05683773416213
1,15437913308501
1,10605571874129
1,23740714766653
1,13682382550574
1,24406487684787
1,16185763894661
1,3223554187545
1,15673559571206
1,19017020199173
1,15079175531908
1,29846655393464
1,17121606225883
1,2040033904128
1,17612526205065
1,15646583988894
1,20044489869781
1,33728250323213
1,18196508296133
1,33085257398833
1,18001772708144
1,39103233737199
1,23947746078095
1,2172480121084
1,16639017214913
1,2511740574759
1,31884067557978
1,4814379962438
1,27314912200926
1,26246656107992
1,27609521624903
1,29754150145444
1,15426059641424
1,37464798153833
1,2103045605603
1,38026525643962
1,24223263915816
1,24894867923706
1,18512555221686
1,36222172011961
1,32269102585603
1,36265127799765
1,20948621601744
1,37046094033264
1,31201283142895
1,3509413694724
1,22237638507607
1,33662830531813
1,27452305416116
1,24543046424744
1,29381901942062
1,30289050598708
1,2940781477215
1,40192309403151
1,29162789248404
1,40739111453725
1,4051626961094
1,39110062388285
1,27883821749276
1,40797258709996
1,28458324504078
1,43133867745007
1,26754774372126
1,32809658413596
1,42535954090328
1,33254621661985
1,36270460126312
1,42614414771527
1,33012796111516
1,37838818162975
1,34861049478045
1,43581288032848
1,33743803150286
1,40709172450732
1,27487972507046
1,33083489794682
1,26663808351677
1,42850711101778
1,21095370071483
1,39909513676578
1,35944665789927
1,28775079084765
1,22305822430951
1,41322769292057
1,43513460464438
1,49390561781844
1,37977365860538
1,37020888953858
1,31509337623744
1,43809500564574
1,27745616497878
1,52414157310402
1,36394757954587
1,51075574329798
1,34969985861024
1,36942316043486
1,43916928145148
1,5006365726816
1,40525855238157
1,3500076988181
1,39890663501159
1,58683165702121
1,43540193448803
1,56018561057436
1,52291340892619
1,31915792374508
1,25962494311552
1,43729594399979
1,40882844767029
1,38602825833283
1,41413478102301
1,41238442151599
1,29255471081759
1,40317521988276
1,25401881602024
1,3883835545995
1,32034114136214
1,33425247834336
1,41926734868155
1,46830288359417
1,4123478694608
1,3834400523323
1,35663066883544
1,34584293618645
1,36880155781266
1,58538584352651
1,28657199551865
1,42277324548219
1,35683732134869
1,53537979748624
1,37942670069975
1,4947644856858
1,35145330679044
1,36583653389177
1,39349542532571
1,40927240482318
1,37824198248993
1,3942393204458
1,39864836401056
1,46487048191059
1,3827125188136
1,50496702249449
1,3623941666359
1,41878199962331
1,30496105487292
1,35846043541025
1,39328771202537
1,55533911236877
1,35058961994868
1,36976761526441
1,29617359731167
1,38269979547892
1,33521878739632
1,48402050366985
1,36386177914421
1,42630175416204
1,37327526528509
1,48431972104086
1,47350660170209
1,40643998843913
1,30261581437729
1,44625093912439
1,33161180525123
1,41491822426023
1,38223648764727
1,42434321684013
1,31411155518446
1,37121598766454
1,35334587696527
1,32473075177156
1,30380318660024
1,34983699890807
1,33611558611787
1,41626668600392
1,38810157870931
1,35225238120943
1,34496544412909
1,35108391250297
1,44584720045681
1,54102094622723
1,35621829625424
1,35287588702838
1,24412279668174
1,34143410862375
1,24060000690423
1,34490984385589
1,27559195711269
1,47813507445203
1,33672059502356
1,37854975885106
1,39048999228843
1,31788172432145
1,25066851974576
1,28006497948562
1,34304319055855
1,33599761439002
1,34012148679457
1,36897716366486
1,29345391474206
1,38391706265079
1,27886503750719
1,38908957424909
1,34041307793034
1,33291718548294
1,33807586579638
1,35556177904741
1,27583100614937
1,37550806281234
1,29187954980206
1,28517044939571
1,19200554011015
1,3995793187937
1,29252435452519
1,28525866013622
1,2586050104606
1,21341526077677
1,25906477945826
1,33995428641062
1,34037689435133
1,34263405891371
1,27258622170723
1,24876937095527
1,26822853287258
1,26476273226524
1,35148226876372
1,36189517903832
1,2135770228449
1,22218993503097
1,23429855446101
1,2978765191545
1,18972782752694
1,23028214892632
1,26497916313837
1,23847743745857
1,22026036631629
1,27992282702078
1,19098157243819
1,22956005709727
1,2050051625253
1,27313042786705
1,16016853073522
1,1623346912546
1,21081802375559
1,21529893199037
1,09300586170347
1,19425875014171
1,20823818576457
1,26683082394142
1,14934512569375
1,16199419129868
1,18566973692806
1,20391657689188
1,09957369161589
1,17379130661737
1,15137072523757
1,16432682534164
1,10585121592669
1,13986275653744
1,16863735860452
1,12318891342897
1,09900979288011
1,14065153350326
1,15771575566099
1,14984951091751
1,10780277774722
1,13181884680393
1,07051767531525
1,07542490977617
1,06167691092478
1,10800938106044
1,06125663378601
1,06987139885937
1,07111449463526
1,08143216396956
1,06925624050782
1,02292889391596
0,996510965726825
1,06838685969084
1,01525428278912
1,09179217957777
1,08975224738816
1,02968755634652
1,02450870707409
1,04651044897797
1,00778981481382
1,03397552146419
0,970221366680598
0,996204958499466
0,971817199415601
1,02384042773944
0,990041022966013
1,00473228736394
0,992568872195463
0,983748770795583
0,947843218247181
0,956914106208993
0,959021749937641
0,925533050371135
0,939090961455212
0,971559193582828
0,925640005849991
0,939391839486767
0,918014602160469
0,967195694477114
0,931779831059211
0,91401259859014
0,899128468531366
0,913543445818099
0,896643416569408
0,899328835216819
0,861567695574575
0,906685511373099
0,875250587503167
0,896467293644358
0,890120956699948
0,878119557902415
0,825945616539527
0,865151720295433
0,87267820503814
0,861346227331266
0,835426459457642
0,839897535570867
0,831388980277556
0,837304765658161
0,821043772304186
0,82722316331189
0,811664892620165
0,82570809699815
0,828465985916759
0,798093258155438
0,800298544042785
0,808463543557095
0,798183794634367
0,805532908208916
0,784484137372827
0,800454894009821
0,795429072917346
0,783807413175884
0,771297985785871
0,778846152660778
0,770640407316262
0,774650996376074
0,748871058999277
0,758186488000948
0,744899698543734
0,747571398130314
0,743337110153112
0,730598673316441
0,726736118511097
0,740441952730586
0,73486685811775
0,729906353147675
0,721789896786086
0,72662298395381
0,714142965372188
0,725086799126545
0,683799272974986
0,697354707257624
0,705554299252103
0,678121980527403
0,694019277531692
0,68177695628068
0,674195215547323
0,706583620347016
0,693703953872214
0,675716282060498
0,681719037999057
0,669770000658497
0,652844573870852
0,65433829798991
0,660768282661438
0,641438358915642
0,652512382624941
0,659061050566586
0,6530972476025
0,644886717576149
0,625817077328328
0,639359021445453
0,622549089939823
0,622588924737605
0,61739834133217
0,617903942734769
0,606183058429289
0,603872160691865
0,604270210223029
0,619850021769095
0,602916140356142
0,600572482663778
0,600819498502019
0,601337160685264
0,592608743077451
0,595155078515905
0,587246809644863
0,581206810689298
0,570992819751184
0,579398137213597
0,585480333877204
0,55967015238382
0,57377063635724
0,575047917054225
0,574444450325283
0,570492422901038
0,557154715178972
0,55625855282826
0,553168628500924
0,548939635451661
0,542607165647124
0,534617451496768
0,530355194369962
0,536170301637684
0,534957711564407
0,529041529081467
0,520972233376346
0,536561775928209
0,521330672833194
0,525249812471165
0,521501255132709
0,520189010919957
0,521268470992268
0,510166414396449
0,50424428555478
0,49880461361349
0,497924309721144
0,495525008577211
0,495631786099047
0,504135448136563
0,50035254665765
0,497008082282132
0,49173417904954
0,479264336725781
0,487002075102682
0,480782803955604
0,479436968415203
0,484767537175987
0,486489404638332
0,483996940518755
0,478106743852436
0,466915901266776
0,46839370055356
0,462194578989007
0,47063293257123
0,476395913864189
0,468372780496087
0,460004136027304
0,46039796523226
0,460354902990102
0,465881151845058
0,466248710775376
0,454568171594592
0,447685282164876
0,460280838101308
0,456451593957436
0,45136964426652
0,45552998829561
0,45322053284723
0,453281809965672
0,458398844385998
0,456438432087744
0,454038157152806
0,453598940486947
0,460935548908543
0,464337236397498
0,456440825519319
0,444241803087714
0,455874715219942
0,464911811261134
0,459543968043236
0,4591256665065
0,462525775402224
0,461169320481483
0,459447763285957
0,457958374841779
0,45347598117412
0,45670342969291
0,463151334097336
0,460372992926627
0,46491787021308
0,471832872295537
0,458206226421776
0,464793779129085
0,473700927481727
0,47596563215575
0,47200224145756
0,465649163646247
0,473898520556936
0,475147130190852
0,473914218482897
0,46947014407153
0,48209928277654
0,484555725717593
0,490239381196287
0,492083323249266
0,491421260809421
0,495494603372715
0,485089825501566
0,492333374510713
0,495178898564172
0,506674896186512
0,511927670311763
0,503663993982989
0,516628312884767
0,524819785263283
0,516313417997199
0,519646334774796
0,519391481474252
0,522127036425343
0,521800428439229
0,527621855581679
0,529850472479435
0,534956921462458
0,545705353541658
0,541204885125948
0,54371354404416
0,554298159511902
0,548681924858753
0,554644081975882
0,555828385263503
0,551172678556352
0,569025872944961
0,556924358576858
0,55181928081351
0,567388807017578
0,569746837741399
0,577020241351567
0,573583575390348
0,555298376500266
0,559318130977619
0,557417088204202
0,562955350639278
0,571061815792484
0,561427023533159
0,554584258321531
0,550902718584235
0,548670260035758
0,555124188606819
0,549909700255013
0,545098897512799
0,550401124450816
0,552053761843574
0,548596685793983
0,546300325338692
0,54094627532678
0,555173560641295
0,544777132831835
0,538360957330031
0,539406376869519
0,533001893933403
0,538268878014095
0,544328507724903
0,553536970040916
0,538626881507989
0,535162324888045
0,539751266525471
0,533004709223997
0,543038926556788
0,537555343678074
0,552967817390212
0,542545077233314
0,537261556008645
0,53555323856903
0,544327019809475
0,546205866166667
0,542616843778265
0,534353344022436
0,544066006421974
0,53269230200286
0,538941367864233
0,535281798256338
0,532467240048297
0,535313055325064
0,530233865342603
0,527823240187578
0,5257993558932
0,53060754309685
0,537046053796878
0,532170884583683
0,531961513893079
0,528954932670121
0,52448023236317
0,525718994355171
0,519111673016039
0,51838812778561
0,528565649037984
0,513794797238186
0,504901287876709
0,500866578350949
0,502273592775621
0,500174089103201
0,499317569485211
0,495228401010549
0,491803965013598
0,483340570475909
0,482619686115442
0,485663148971473
0,479477498359831
0,483054099816626
0,482066497635202
0,472163035771561
0,469110051990673
0,471381733820353
0,481163127052693
0,460311211382449
0,453894054453595
0,453693645484298
0,444876695277194
0,449560080803924
0,447005674882038
0,436992672047836
0,436088194385538
0,432724153009276
0,427743874955103
0,428158116965241
0,433947412074527
0,430945538101566
0,423252385721896
0,415971052031518
0,421404264469254
0,419173975940466
0,418075427138021
0,421682617580694
0,419942900292772
0,403381872972488
0,407153940972236
0,406703989351518
0,403076878085568
0,39566026311219
0,399848428310351
0,390172756539639
0,395521425367394
0,39606579942391
0,398432016372351
0,390696636765954
0,396905171677804
0,390458969352052
0,384511382420896
0,380671799470673
0,376268706524566
0,376391752832579
0,379790155625075
0,377355280268463
0,376015552219956
0,376789084175468
0,372291934952742
0,363540246139649
0,373476909597275
0,371317415373991
0,370563137986917
0,366965465145856
0,367607170333197
0,36132886506369
0,360274214731408
0,363039639107985
0,35946943169846
0,353266828301866
0,354787343365931
0,352599401202874
0,353445880079898
0,345892255874163
0,348020513018457
0,345810440558162
0,349297679956665
0,346038401029115
0,344189599699611
0,340797760051557
0,344945924963054
0,342263202252314
0,339770540532321
0,339784690519792
0,345179823485364
0,34115664090909
0,33526080972229
0,336988685816042
0,342722590787508
0,333247715883176
0,330603252840913
0,332292876158831
0,332960891092721
0,327266958999582
0,326754574188206
0,327216073127975
0,330889141061684
0,326911805464983
0,32914086132322
0,327856698663978
0,324212461750262
0,321161655480664
0,329156327760514
0,328035540239954
0,326192429881301
0,315159549107411
0,320207879750306
0,31506623236869
0,314735992914044
0,318047524740584
0,319449805495525
0,316578762500066
0,318932699272904
0,318136508960538
0,317833242562554
0,314693133290727
0,313410030450478
0,309809776238023
0,312630573936468
0,31014904231749
0,315338266111903
0,304377519498886
0,311048038342137
0,311058114260101
0,308545252511261
0,309077252438237
0,3063032474031
0,306806154122541
0,307989317769052
0,299233530583636
0,301852310512211
0,296997100767363
0,300860652140735
0,29801688851795
0,294799616041146
0,291654852611128
0,299789817581893
0,293731629497739
0,296997927733475
0,297743491497467
0,298505252382179
0,292649252012961
0,299313341519887
0,294183842948498
0,297958443797343
0,294153249050153
0,301327802540623
0,293115329833236
0,293519199998415
0,291332205269839
0,295089093355227
0,294386678305656
0,288471882037178
0,289938026602119
0,292496566755156
0,291166229679627
0,292953034773073
0,286002077789612
0,289609122518933
0,283240400804599
0,287265899964519
0,283864479620716
0,289360657815372
0,286381170079485
0,284022279043025
0,286548246584814
0,284294492621551
0,279621897834664
0,288339565587293
0,280579622382953
0,282462068798397
0,28186239304801
0,28506784498467
0,280263400452195
0,281187725059675
0,277026430043304
0,281152054022372
0,278710819581952
0,281671929863661
0,276676692381237
0,278269165953924
0,274051803994259
0,276939323499543
0,27547210609158
0,274699494699928
0,271968491468966
0,27310751214648
0,26921119074617
0,275802559100936
0,27217147014761
0,26849838018864
0,266603743164019
0,266370826452368
0,263202607460652
0,270427817330107
0,263089750498113
0,267945937287131
0,266989406393518
0,270679938761632
0,265167433081018
0,267798356141419
0,258361741209106
0,262354491300877
0,25885136097114
0,256188209791887
0,255708971580974
0,254685459002826
0,255046201590122
0,258224911002502
0,254959732899811
0,257314242005757
0,256285815211284
0,255700213410286
0,252028487571714
0,247835700340151
0,252107538385202
0,250778866244336
0,247999461287983
0,253122632101282
0,24764102697894
0,252175967903719
0,242816340921081
0,24865915937159
0,247610181760571
0,242761740633062
0,23957578337535
0,246936924404945
0,247841492098554
0,243794645133958
0,240839232350314
0,247863939935577
0,24036112429116
0,23816697868092
0,238055451125948
0,239096394953611
0,236468427754275
0,237223817158445
0,234092249296649
0,237702075994562
0,228147199574418
0,230869679295487
0,231418375815092
0,231188422430702
0,22718975229485
0,231765007957823
0,225693589742838
0,227559268293532
0,227184097473037
0,225117881557434
0,219174591033823
0,220075497654473
0,222893838171841
0,218971602584821
0,218559980818183
0,22245008921093
0,22245946562886
0,220354232457503
0,214495761106281
0,217483233139429
0,214047159004959
0,219205050923012
0,216436479327371
0,211981854490952
0,213819810766332
0,217514727182508
0,205985551797901
0,210786841984339
0,207603074249611
0,20843745480403
0,206509956079815
0,207129744587946
0,201329733747748
0,20388492835114
0,203304974921138
0,208050534044946
0,205135098846267
0,204839508498837
0,203606349616763
0,20647606040147
0,204025224404121
0,20451963978737
0,202979092031797
0,202694192941989
0,199686639410069
0,200288506329899
0,193981745224741
0,198437175732992
0,19805568353811
0,199673381215341
0,198600460628523
0,195388441255675
0,193897731440036
0,195736853431208
0,188425351035431
0,194742770723044
0,192873259361158
0,195329391712617
0,190708027108734
0,193262586319966
0,189721692796567
0,193826580169051
0,191415285345949
0,191613320124181
0,187083044894051
0,191049024785469
0,189250169545742
0,19464310010007
0,1906223707517
0,188952872931468
0,190172384888678
0,192724878841862
0,184844286046726
0,188048392542178
0,185078084836647
0,187764878193722
0,182711322360042
0,184745130849155
0,183594931400027
0,18243529173878
0,178388776158276
0,184261788426159
0,179405611766728
0,179778581436206
0,178255379201072
0,184357140959803
0,180525769912739
0,180642565917697
0,181469914996068
0,180485410181426
0,177104146864372
0,181704633353586
0,177633704249148
0,177086710336647
0,175008299856795
0,180693169988527
0,175911651647383
0,173232148529899
0,172820719773025
0,177907907131111
0,174874010855995
0,177277845622748
0,172293271400664
0,176377954481925
0,176052326298852
0,176304595741763
0,174044992811616
0,175164170088985
0,173241586054205
0,176196281886366
0,170946727607516
0,174882154087441
0,17362806970145
0,172168584381459
0,170792632402773
0,173632574465084
0,169422720913473
0,172565761657382
0,170220903824041
0,174090054677814
0,169392312346692
0,175071374678198
0,168899079370055
0,169445580880792
0,167777445429157
0,168578820232276
0,162088888692909
0,168475694032875
0,169031193990617
0,166653481771109
0,161211589025335
0,169211004652422
0,166241676515112
0,165455047330836
0,162522787273672
0,164150695194456
0,160222761741415
0,16679102601246
0,162519069968573
0,162056293214773
0,157799314232141
0,162081195679585
0,158360192732958
0,160866401102743
0,156288520621542
0,16340637644661
0,157487798704922
0,157571278223981
0,156992792305266
0,165365570111093
0,157818567429593
0,158575503789812
0,158434245641004
0,161521492605748
0,15400481910055
0,160295791494261
0,158756942960451
0,160280220959393
0,157154424510346
0,157811324826713
0,155527091960593
0,156200399095683
0,152915112026586
0,157149256359686
0,154371669335768
0,158545248147558
0,156219320820701
0,157637478148648
0,154255531036657
0,158628611339256
0,149536742632202
0,155824996840824
0,152937287558894
0,156359221851608
0,153119847277822
0,151232672402792
0,147267942784138
0,154653212761887
0,148551686310369
0,152254268758115
0,147927558339972
0,151789079138561
0,149303218465126
0,14965114983406
0,147970687081428
0,147117215310387
0,144717351188122
0,14937104593136
0,143011952207813
0,147015479665086
0,146045875278625
0,146772377708557
0,143444385239866
0,143378580288291
0,142672636337726
0,145513856156636
0,140049147986264
0,142323205432999
0,136010079342397
0,142951245180122
0,138897941893814
0,144612866057149
0,136658091683752
0,140835273123414
0,136434881821503
0,13934662282432
0,134848057644926
0,139593635689369
0,137034849491778
0,136198636932633
0,135188270175456
0,137184046636533
0,134742505859558
0,13622708230998
0,131508980835631
0,134979086945587
0,134807638464809
0,134053909698145
0,129813437085738
0,134546605668142
0,132983576760521
0,134096140196659
0,130383075011157
0,132398327609238
0,128709391270586
0,133309280454639
0,126518132395348
0,131700129986885
0,129840141478854
0,130900626846843
0,130550919550059
0,132556962201425
0,129501079275549
0,129650825417733
0,127433988697225
0,129434155798132
0,124720358106802
0,127964939972093
0,124464491764196
0,127171076521574
0,128191854138633
0,123517600924934
0,124314871941201
0,128037665516908
0,119238834982069
0,126142147524514
0,122861643142543
0,123468355598703
0,124953607232147
0,121089179588422
0,120707830169753
0,124973451799728
0,119140612975305
0,12252066756118
0,119095881002739
0,120925918165519
0,120540916141024
0,120588414563326
0,118991895816383
0,120389106474554
0,117929103086021
0,120118461660134
0,119865235310652
0,120211560784272
0,114262316185455
0,117485269100314
0,117568923725825
0,118049180356508
0,115623811670336
0,115605679758581
0,114993837171845
0,117956859289588
0,113445578972779
0,113507021562404
0,115369011865835
0,114638425551819
0,113441422888219
0,116195278161246
0,112855519016634
0,115374229091957
0,115823056306025
0,117107139051123
0,113386709281372
0,113990160677388
0,11853194997199
0,117042709319874
0,115258226546528
0,120160914205896
0,114220164581996
0,114754697800514
0,113014206050996
0,115815217212877
0,117531590630956
0,116601938718202
0,117250115322909
0,115278017005879
0,111392665393214
0,118394695509353
0,119674010411194
0,119230747275102
0,111671213479791
0,109245519620102
0,108125177646083
0,106247304904151
0,112904643901876
0,112750799579327
0,101378519062305
0,108692913791977
0,108980786922726
0,10429466776005
0,110533600999758
0,108412271146919
0,10416597126644
0,113216873575412
0,106854336355938
0,109660306477108
0,111177047454603
0,109698305055134
0,111485119808499
0,10375155279182
0,114316658790481
0,112650897989903
0,109081428849036
0,103228624513034
0,110873134701715
0,0979290663342774
0,111563673799855
0,102550691761016
0,107200903330609
0,0988651527183729
0,104617343300943
0,0960347498337215
0,112916644816566
0,0942253294314671
0,111563014003939
0,10046546547684
0,117318529846527
0,0992627100722221
0,115376535297162
0,0923806365941138
0,115883796539129
0,0955244785554674
0,121005635644364
0,101501013357033
0,118160908205264
0,0938206792658306
0,114116057362553
0,10702395831527
0,117215313720193
0,109526496546115
0,110627693648764
0,116009968186021
0,102389999343789
0,113106504616501
0,098673085420813
0,128672015230045
0,101049678391262
0,124141566996338
0,0958270452282252
0,125627191294706
0,0900481682820403
0,122178102293244
0,0941409356949476
0,119094717351194
0,0986004622995722
0,119008122188678
0,101218262735629
0,114736474775044
0,104754280451706
0,114389219698033
0,103364844625829
0,109142450675976
0,104611492552258
0,110391903310025
0,102957304688183
0,114736130969583
0,102516070049477
0,113135324869385
0,101589265961859
0,112469535175117
0,103066395575853
0,1078572152254
0,101151946934664
0,10913242173812
0,0997193283622796
0,109462701725574
0,10345609228456
0,108766409306079
0,0985712598286671
0,109162923954654
0,102758224629084
0,110670480874074
0,102021930113304
0,110822525768692
0,101113201979682
0,108673158614082
0,104755579205108
0,110746135929699
0,102875974051627
0,111698495760299
0,101013114586941
0,113499545834418
0,104225791083638
0,107974021979732
0,105071011560385
0,112705251863209
0,104272657059565
0,110997338415479
0,106343489883995
0,111274844361192
0,104957100597208
0,109948434636965
0,106060625020859
0,109238464245843
0,10461896437803
0,112705908531097
0,105017194553296
0,11244594968213
0,107316025484969
0,11167183925632
0,106957773394325
0,110339689506285
0,106544562714566
0,110823508260584
0,10399935961886
0,112238232710889
0,107234219318532
0,111484237818669
0,108359250061733
0,113910340219355
0,110225679476549
0,112740510183439
0,105500107485071
0,114633133684297
0,107393621471848
0,10996581976544
0,107373673662127
0,113298668590971
0,108448344910483
0,11155583742169
0,107573374740062
0,114309569133106
0,109849490325559
0,111133172671796
0,105082803889933
0,11593434496864
0,108171313262564
0,113490658460826
0,105901061216065
0,111918734906592
0,110225598696157
0,111666560902686
0,108865751381475
0,117350791976598
0,108032271114187
0,112428902932071
0,110537680098071
0,113700756993265
0,108099738953933
0,116132158286164
0,111627055041363
0,116858856139113
0,112663166328934
0,116672766449834
0,112997419887176
0,116004159585975
0,111413027330423
0,117970210155591
0,114537229172242
0,118471633556084
0,116183830153046
0,118139146871244
0,113303550522435
0,117191269667829
0,113360926988598
0,118861708594963
0,113018403064039
0,118977332489933
0,113585491016539
0,121182200816644
0,115160444452994
0,121923949284067
0,116551688093551
0,118375056252039
0,113200365087028
0,120462871180379
0,116655108924711
0,119347310081979
0,117639267465269
0,120520040933649
0,118018957412197
0,122166822820423
0,115809731322923
0,124674530541845
0,116772538347244
0,123027285970717
0,120260988188477
0,120075009499512
0,118298292703174
0,12254135001265
0,117213831654875
0,120789750512741
0,119544761320111
0,120386963554121
0,118964501283551
0,123482546251318
0,11549396844096
0,120251780124528
0,117227887909855
0,123916333165121
0,120264710806173
0,121304525967816
0,12142291801578
0,122632834550488
0,121853434578241
0,124741365920867
0,119389583699728
0,12471738942369
0,118413490070901
0,125342403249062
0,121132220970553
0,128420641159699
0,12337098218307
0,128874935633165
0,120831241531839
0,127964217321027
0,124181077843115
0,1287773999998
0,126699515247545
0,127882311768711
0,124503678314408
0,125830519129569
0,124282103485435
0,127349567229148
0,123566158099773
0,129473465073362
0,124722946844781
0,128354570418199
0,123505231188214
0,128778263270674
0,123511409315958
0,128701242633378
0,121654214320783
0,124901089832036
0,12272703338569
0,127346597107884
0,123392908883782
0,127733713196062
0,122673270661074
0,125007939333333
0,123677269255277
0,127729788263099
0,120255327682611
0,125173433587812
0,122328979369199
0,126493390926862
0,120627205341777
0,12411661029414
0,122228142720188
0,125481627049958
0,121901719092644
0,1239257543407
0,119246996780793
0,126913190073711
0,119464969164928
0,126429458321766
0,121315854567804
0,123148816001291
0,119821951537579
0,124295748610303
0,121129143876582
0,124411404855398
0,117665463667846
0,125148783674496
0,11801071112257
0,122114600622413
0,119037473274458
0,123474733725236
0,119307789449902
0,123895124265524
0,117389208833131
0,121505031810829
0,119957984943253
0,125215151201493
0,118084170320837
0,118515744491468
0,11840505897915
0,123259660517834
0,117585865242367
0,122512914433704
0,119273477191953
0,123202413079286
0,116108375188064
0,123818607964161
0,11943373701605
0,119906822252998
0,117070820570783
0,119564852800965
0,115642286892107
0,1211409516962
0,116690900373452
0,119922268373955
0,117872640314783
0,119005266816039
0,114342037275991
0,121512724639395
0,114835522375867
0,121305282261452
0,115822195979676
0,119529384908321
0,115189132925068
0,12102489007983
0,112499813447437
0,119942545059281
0,114612607968862
0,119051111463559
0,116162610075195
0,11898645130402
0,111870247462677
0,116209458461926
0,115172127164701
0,119665467846297
0,110167640231926
0,116930926516691
0,112134386016182
0,115900897938085
0,117383145601205
0,117520196688558
0,113406342765901
0,116787224257769
0,114203332779291
0,115851716640112
0,1131073429651
0,116046892528742
0,114484613739253
0,116243400081064
0,11183087217938
0,114158907234199
0,111383925980918
0,111422397876018
0,113035758482703
0,116969328848712
0,111183177721671
0,116258012489891
0,109670459211984
0,112261848301375
0,108703460870239
0,114213416718457
0,109060918278469
0,113711384295377
0,108055171266472
0,113028011760762
0,106598976325571
0,112923642838382
0,108837926795692
0,111819215805005
0,105829118133745
0,11297364832026
0,103687920470224
0,111148906020865
0,10377265352112
0,110163450759085
0,103623859666152
0,102803854300817
0,1060228253892
0,108936172934585
0,103793426285842
0,106393444956596
0,102257814647085
0,108015756792037
0,101554073945473
0,105497817229642
0,0997277750304671
0,105584648362771
0,102081794425636
0,102318874938669
0,0984763892171031
0,106089571546173
0,10258608502746
0,103337802885031
0,0993804860406075
0,100819747418012
0,0995015288193331
0,103563536952121
0,0958513258502216
0,0969887041776044
0,0965420887992409
0,100154871922587
0,0942022098252514
0,0986461751755489
0,091042373895719
0,098870859938392
0,094644682570956
0,0976947548208302
0,092659339154749
0,0978704868292232
0,0955776272049043
0,0966850196251781
0,0914606954880196
0,0947704655983489
0,0900054796893713
0,0947689746104959
0,0931058278974717
0,0946805772064002
0,0949212531662599
0,102145075369218
0,094235989197325
0,0922889153577779
0,0937650210486267
0,0954950557623383
0,0916897511863563
0,0936024969305759
0,0903326023142438
0,0954963247445329
0,090605362172865
0,0935443109658117
0,0900906850956756
0,0919916684418901
0,0885349022956851
0,0941524494753783
0,0872198314572524
0,0944127969183092
0,0891639530008201
0,0903962696381755
0,0864811243408193
0,0907921142896214
0,0846077459653967
0,0912462288443771
0,0864592448030588
0,0908907672016244
0,0871340111798564
0,095985707139293
0,0889058161422014
0,0916639082424728
0,0881228232879004
0,0913471091139135
0,0854412607501169
0,0897848256371078
0,0854378673938429
0,0885435912925171
0,084761154391932
0,0860960524704629
0,0857946154807817
0,0870700605945969
0,0839474607113086
0,08956088802026
0,0842033185345272
0,0899483043257527
0,0813816534592019
0,0880433246767363
0,08496838199233
0,0882048146045971
0,0817231554274297
0,0874220666533768
0,0820653095972658
0,0889687064403026
0,0796027812751353
0,0874275832202723
0,0944618346784361
0,0903094298012777
0,0825585353372023
0,0868106537896213
0,0841000587583395
0,0877760795520647
0,0815656156123908
0,0844298918097278
0,0804735001574547
0,083621117136555
0,080666149330712
0,0856209605755883
0,0812636752207384
0,0840000595333906
0,080661376396754
0,083610315286034
0,0803929590422212
0,0850751992684994
0,0820515329948984
0,0814934554383771
0,0834863610306162
0,0939917050382064
0,0841253215717096
0,0868840958385695
0,0808628284506404
0,078172429058486
0,0906507499810452
0,091608580367423
0,081205454772587
0,0821562391686978
0,0792337749036848
0,0815662756395944
0,0807284839672116
0,0818048943615964
0,0783256119864361
0,0883372846329599
0,0820769447220217
0,0850482556857896
0,0810356024242802
0,0861180626748354
0,0762142594284164
0,0833176891424384
0,0771561658247879
0,0828968333170375
0,0798930421909568
0,0830850096052201
0,0764344802001007
0,0828615364799471
0,0805458212775558
0,0813574305069683
0,0815986533496208
0,0870606964724821
0,0792742837078905
0,0829704210055872
0,0805262510193019
0,0787702634235565
0,0757662856033297
0,0983540916541449
0,0810724896055885
0,0845278921392341
0,0787372993214909
0,0818511157182535
0,0804358846860841
0,0838900202798222
0,0795709747474869
0,0821815225417563
0,0751447195130158
0,0828223380193337
0,0799584585879907
0,0830287849429669
0,0770923403233119
0,0838316890813667
0,0790500758707583
0,0801742168042423
0,0782195289707306
0,0846119662146516
0,0817942763922375
0,0809787119463427
0,0835495205751763
0,102121051330679
0,0857338551554373
0,0927777512205727
0,0861653560870231
0,0832209110360679
0,0797339691558282
0,0830225608806045
0,0782770294347908
0,0882323401680793
0,0756656981478592
0,0827058696273277
0,0812210941305443
0,0829707533665679
0,0777396479152691
0,0851362369429032
0,0790661007159944
0,0857548215343647
0,0779642557334601
0,0845173751232731
0,0779716394350833
0,0824401535614345
0,0779855849198704
0,0881634840208077
0,0843421748654395
0,0881533335442244
0,0715936047712449
0,106909415621075
0,101148966279059
0,0878838523437981
0,0855150822703636
0,0826137364848565
0,0806956458019215
0,0825344243490561
0,0784354060083205
0,0906211044352988
0,080290473554954
0,0837137611805685
0,0800439509623125
0,0875156404171002
0,0827726192469347
0,0841888091883756
0,078685873537559
0,110654234249054
0,090312982851269
0,0912247343077079
0,0770182388388296
0,0858082972750455
0,0993793917580833
0,0935844267882493
0,0905038033999139
0,0889482378394589
0,0844105215690355
0,0900221495052013
0,0817642979732545
0,0882757154593799
0,0849996391982535
0,0898649977987783
0,0830201531623519
0,0893901879666791
0,0851274757057017
0,0909446319423401
0,0837866830693378
0,1001940183309
0,0961379416775695
0,0909676418781002
0,0920066473256802
0,0972968212837203
0,0885324894355405
0,0911141633696747
0,0873599069335378
0,0912270672167563
0,095457523449479
0,104576137987943
0,0917367538547868
0,104025107777474
0,100987916231581
0,092318513152699
0,0927247908732037
0,0999489943880507
0,0953811710882315
0,0928913109417399
0,0934826304504235
0,114607497127912
0,101803471182549
0,113501475829205
0,0954891536700428
0,0983532412971512
0,0951367598211159
0,0988127845955873
0,08654563897434
0,111824297564086
0,0961237013721927
0,0983491627405118
0,0934539127292445
0,110427028329547
0,108468110459656
0,102820990322477
0,0995582127444331
0,0993871816233801
0,0951360317966944
0,112508572527832
0,102804226774707
0,0962778133715954
0,109926332552106
0,13165131118007
0,116114681384188
0,114000322948403
0,0932962344273363
0,141922644509522
0,11008182712041
0,107407546512512
0,103817068000315
0,109274338717783
0,101285162900277
0,103273465105147
0,129077127909458
0,119357177816629
0,10630064716498
0,117960292106899
0,100858131357283
0,120585435061134
0,122293370336941
0,112947718608418
0,117046094517297
0,115323290725537
0,103660425131952
0,144514631749103
0,135241195779309
0,127735308276314
0,138974974188729
0,134291224542897
0,13322618265662
0,130986536866536
0,125013002263608
0,133307937980213
0,139570273871298
0,131985047187978
0,117673162881675
0,13774061755391
0,153629610418237
0,132961126963249
0,137525392617355
0,137593614137816
0,123810067813763
0,154423566220078
0,184751803823525
0,171045905655977
0,146310093916466
0,14299858168296
0,170746886526842
0,15276386612556
0,144825564737547
0,150892289526343
0,149340758450723
0,154430148420325
0,148198649344458
0,167083991631818
0,159857637023344
0,162645271700336
0,160984495727907
0,160176020609852
0,16866738657757
0,205675849623948
0,200044241151348
0,179085188086507
0,208823937868044
0,20683293677916
0,182886412945835
0,186945199629604
0,176560830518462
0,20118385139443
0,182775072521482
0,194000021525589
0,18267227557314
0,219532415689348
0,210456433952255
0,204475612425516
0,229392014550534
0,210226581695143
0,210481814192202
0,194614840350048
0,367359177387181
0,255049803575307
0,235216827778466
0,247544649340464
0,223387979056816
0,337935876511489
0,256942311363653
0,251664221482888
0,257246364041804
0,258472853914387
0,259562916957162
0,285401244579742
0,281841907366114
0,305320610296306
0,293815808196399
0,287936171436705
0,290822833327088
0,394805581054103
0,37143059096265
0,35579228461704
0,321688729137136
0,353633621513017
0,362698608690124
0,359009665020227
0,359127518212205
0,36132624931359
0,346336607525824
0,443541587627832
0,396053521134738
0,39443907016569
0,389218349213541
0,450552283318629
0,40769722907652
0,459779368972214
0,473013628080099
0,442285386578792
0,451364259666378
0,441862141909621
0,460074947387211
0,451440633254024
0,488376076409424
0,511949182539578
0,484778136424041
0,504452139242757
0,48265219552677
0,509958820154336
0,505929876820267
0,524634429269412
0,51170677384929
0,555170647128185
0,561962464770078
0,737576332157303
0,588738717491232
0,528747908150699
0,546225424588676
0,546444059833576
0,592896933444299
0,581560165410402
0,566718869291945
0,607256472721205
0,557600024656573
0,575112294144563
0,557256959895924
0,56712033429805
0,550953677515482
0,571392231046866
0,557605096005165
0,597793570779284
0,571930520990702
0,555629916484426
0,67971538673299
0,577664557252543
0,573229109614853
0,573160206758896
0,558572140710184
0,548331688759868
0,554216626360899
0,559770716920039
0,584437235144412
0,549304274333999
0,549667298864992
0,543867512729659
0,54703111553438
0,575231286799009
0,525318662616672
0,529895835032707
0,502614828057697
0,514491648595183
0,500983746442564
0,479623736249992
0,584946940999306
0,499556627235003
0,48674197056787
0,483237720556201
0,465661630550167
0,467066082691299
0,463110688603107
0,462977473221081
0,470095061845481
0,445305472970322
0,448298446808968
0,442561779147631
0,441350647246119
0,440335681179208
0,433400732860149
0,429741759696557
0,424877871757965
0,425373577199642
0,418817794198397
0,415408650329154
0,404136520368197
0,414252083077898
0,411720046960047
0,415357338478155
0,405511044546077
0,403601633896475
0,399734817944055
0,406151728147053
0,386944143119213
0,399020751991443
0,386215596660733
0,393022064199096
0,380826241405033
0,387288590341508
0,376424484014579
0,388701271050162
0,375777639154892
0,383663740414072
0,370600026446579
0,383410997461697
0,365827719873148
0,378968298324542
0,352319682132533
0,413853346511264
0,405801550463716
0,364503768471949
0,374163611199666
0,362117322858783
0,364674531606727
0,345859278383963
0,385702190941633
0,394132895778355
0,355278646661283
0,361429690785864
0,344590180039957
0,358010822785017
0,363848047608925
0,342987929870685
0,346553320175832
0,331373653858722
0,341428307933377
0,451439092639048
0,358518570594294
0,458090501984349
0,354281545797386
0,333367778097469
0,32531816005051
0,387606542669323
0,325726106630336
0,332054251248965
0,320916861249271
0,35776834230669
0,345864926726933
0,316618944181673
0,325082889943786
0,314574892112832
0,330833723437949
0,352962755095077
0,321153838530593
0,317570657019741
0,361025355083603
0,318879009022791
0,343517139360208
0,36508888437051
0,348824342257493
0,308264597313413
0,296442437559689
0,308044256191724
0,285694822003851
0,363888084095119
0,310595183637196
0,308746915853864
0,294018683891566
0,284878551239267
0,287835215921323
0,296729058252095
0,30021762671794
0,27448095150416
0,325020735829779
0,279543817917239
0,275452678867152
0,308213891189953
0,297325921124343
0,34774463682661
0,289105949705691
0,27271765840372
0,279041995299623
0,324974054486428
0,277654378412966
0,290076820479548
0,267543086040817
0,269457043459931
0,292519983415121
0,271970520486168
0,275768487739346
0,284020154196539
0,271508237155574
0,306655460512519
0,298485721380904
0,316156402554223
0,279358192442885
0,257417869282607
0,255813786842861
0,265969424028818
0,261568076688597
0,264673660328851
0,267447225121866
0,283862330381503
0,243113466783806
0,316486869933935
0,277651611649247
0,263282122804449
0,271884157937773
0,266236677936813
0,270862420843971
0,301115496691339
0,307766261505593
0,311367290432778
0,278910633980273
0,317526314195453
0,284757031722059
0,297007196355097
0,293839226346256
0,304849642505198
0,298138947187761
0,314966201870615
0,30889826749118
0,320501245038949
0,314259310725547
0,336399558088219
0,331211189767575
0,380679133913054
0,334539073343751
0,374245940019332
0,377958133632194
0,408143996106555
0,39818093384889
0,380635132938462
0,39089198738931
0,394470790764214
0,399096144300849
0,404751086148452
0,394111761603346
0,46008813146419
0,418489569109298
0,433296886075463
0,427330202894091
0,434274630198562
0,429915943574723
0,453302194968995
0,459696988131206
0,473697951435261
0,535817801032415
0,479432013511111
0,474745378699896
0,45362170607868
0,468497522614901
0,479634477033077
0,46062764695768
0,473254314626143
0,459169280588035
0,495009858812359
0,479375550896437
0,472109372205948
0,478762566616367
0,478968405877046
0,484339073149917
0,48749908816218
0,484763175953885
0,489081113247855
0,484671831667238
0,501254723424267
0,467623847773542
0,570277225298422
0,526431045136227
0,491890374495235
0,522718971623837
0,505693671647815
0,53043877790487
0,512908287624823
0,530879852672849
0,537878654489222
0,514717092871927
0,531580839895865
0,525130681040414
0,526084919111001
0,540577281886372
0,565670542674564
0,543821727208986
0,545441769641229
0,549348965541951
0,513692532030243
0,616586271905858
0,551989250510634
0,584874745439927
0,561135516779023
0,554389113331138
0,558160302840788
0,560031913172787
0,570023991245191
0,566425260879688
0,555990873075652
0,565171234707779
0,569240359547367
0,559525059204677
0,565211983193141
0,555318229043805
0,574040870650032
0,563068721604498
0,553255474361319
0,553495834484626
0,550576654681434
0,542811040718063
0,558987869597678
0,575158246293864
0,55029294342138
0,56063341048831
0,552605414584769
0,567058327279979
0,57247462553253
0,548348253585919
0,539403671635558
0,553672251287678
0,548930868460582
0,553538940829199
0,542849434651848
0,58662307486902
0,564802347569329
0,555407667123706
0,559558277807748
0,569299015321824
0,566321462944879
0,570077813210879
0,579192743076204
0,582095185083204
0,583579634471861
0,592844343509452
0,596788368204778
0,587204363614451
0,606926925803627
0,617592072469037
0,610925277460553
0,597637312320785
0,592286386288856
0,596283266091249
0,591767656752935
0,607980176630092
0,594433439109181
0,596476022983312
0,599324418531153
0,587564259542929
0,578177138277679
0,613224450730932
0,588699298925156
0,578280756257029
0,593839244506431
0,574690254528529
0,577648947663871
0,563424002780509
0,572348858092426
0,569223266476177
0,575549402814231
0,558188261028724
0,55834414977901
0,559161404669063
0,556093581465165
0,555805523643042
0,55332483555302
0,548692692758675
0,549677606475381
0,549788029930976
0,550590281602994
0,552048215109197
0,550701000036701
0,545337229991819
0,542350626187409
0,551732805768078
0,563821600256978
0,554550680241676
0,557780956142226
0,542097077554214
0,55746485387889
0,54222536582786
0,54940027321421
0,537755098172094
0,546615220470417
0,539962784983774
0,542612252621345
0,53850068902837
0,539218938321213
0,53961605901478
0,535492551595259
0,531872470534881
0,534283421429113
0,529269816317752
0,528244599350871
0,522394187354275
0,527109086389161
0,525197416338486
0,531641970490361
0,522395230647571
0,523693320296003
0,525728141002261
0,517902055269593
0,523700147860546
0,524197581020918
0,516965164172007
0,522642238912538
0,519189662546694
0,513093842339327
0,515503297690662
0,519061552135986
0,5153996755221
0,516703820526516
0,507976669373934
0,511329247397553
0,510903864231312
0,507078074871722
0,504083960763218
0,500335178471373
0,498948380291852
0,496254318545618
0,493676659963357
0,49118191428462
0,485574983839912
0,48226456348433
0,481635050601595
0,479935971209067
0,470605539306257
0,469944959446122
0,468093271137351
0,465844636952451
0,467242168865414
0,470478644990089
0,462191350258926
0,458015351295146
0,459791851888643
0,458952554159767
0,459108706372369
0,456840570617848
0,455703183778696
0,453025684180662
0,453235613752257
0,455057425321365
0,458476573864414
0,455193565975252
0,454523466444972
0,457622709689455
0,459232435745681
0,456351448130332
0,459895436267609
0,46712583073023
0,466841942550659
0,465189394222429
0,465683524228405
0,467127335551963
0,467826244154652
0,474196132060576
0,47163483538859
0,477498199564376
0,476661562156908
0,480353405613225
0,476943871356271
0,477048046206786
0,47927791845895
0,478059937900683
0,475790803657277
0,475558608663759
0,475662282789861
0,473767178076262
0,474694388799118
0,47905852996343
0,476767504993985
0,472391805654774
0,471923156458915
0,472709543625572
0,473797431199168
0,471527350563489
0,468926600591817
0,470382707626668
0,466463536687386
0,467378243559332
0,46488497874872
0,464521461555948
0,46244802139754
0,465390010650878
0,46248937946341
0,458651112156662
0,458121761590871
0,456776252321953
0,4505634473879
0,451522951803921
0,450443023380197
0,449757949544168
0,449341774014057
0,44670980257956
0,444615981940765
0,444748393094609
0,440561669248151
0,438885915303553
0,439670103097997
0,437055322949274
0,434275941140454
0,432684488975053
0,429703932723928
0,428350592506303
0,422629389570913
0,422875268776894
0,418769901247982
0,414080521932888
0,415985879208191
0,414566132497197
0,407684171312091
0,40666611296539
0,4087268180653
0,406696490417303
0,40342144504292
0,405173269901751
0,402559741434716
0,402857319545284
0,399963586836521
0,398539359792351
0,399595331193926
0,395458585619643
0,394685419276576
0,39628807754951
0,396594230622772
0,395665423462935
0,389596129879613
0,389226235547943
0,385574407430961
0,37995239877545
0,376675835534577
0,376504880251529
0,367830735704441
0,362848067265416
0,35852950347876
0,355147731901256
0,349785449729591
0,34441886799862
0,34260975334382
0,339861385390765
0,340598214682886
0,341650811599072
0,338926708769034
0,341585404024723
0,342781891309617
0,346675875995659
0,354356588201881
0,360702094628901
0,367462576350222
0,378992375917994
0,386531569643161
0,396515167180943
0,408987029408012
0,421503121375402
0,434019462093028
0,449518050266082
0,465351102463418
0,48069715553247
0,496563298571001
0,514070669723848
0,527051249813205
0,54611846819618
0,568581538506454
0,587980468918117
0,604970866491446
0,628882507521679
0,646515972696103
0,663830481443999
0,682862576901318
0,70262004491205
0,723569591636272
0,735618116086242
0,756365709863233
0,765641093280445
0,779701397365028
0,792186343161376
0,802894135509651
0,813313075841649
0,821736366053737
0,82989536240931
0,82245972653812
0,816906068195015
0,827395188628906
0,82870015326368
0,814538068590411
0,809369934200413
0,807279957656424
0,809027999485488
0,805990942944363
0,801294662153773
0,791495362695882
0,784500682628082
0,782704665465534
0,779963849189715
0,783282699060028
0,782176605335948
0,779580420394935
0,78930625929038
0,788896435516022
0,79428252419707
0,79769830964716
0,797971748677546
0,805140724507382
0,82079182864911
0,832096510858849
0,83073389178405
0,844942831684889
0,850775780279177
0,857406050484793
0,875792455114437
0,878001387409557
0,879225047435301
0,901836780510077
0,904791215191646
0,908306838039151
0,912020860152717
0,904442942577891
0,907877632268479
0,927952766716033
0,917280362300135
0,924054102388605
0,923635251903984
0,912318726283023
0,91655103036707
0,915322369782743
0,912907574664124
0,917866608593012
0,925396287772673
0,93562322017843
0,940860263381374
0,939383795719341
0,949342664457576
0,961631632196558
0,969259922960136
0,9747576142736
0,979391787044365
0,996615172494854
0,98735505926696
1,00628194922633
1,0158717328306
1,01178662992882
1,02209671321004
1,04875823367048
1,04959733669745
1,04309795405055
1,08642570387177
1,11355440119195
1,12716528122126
1,14670051203205
1,1742769522422
1,20035434684038
1,21046115754819
1,27204446715852
1,29344023460352
1,28851515931579
1,29538754778646
1,32960608018204
1,35114797595931
1,34402787245589
1,35904999251166
1,40081189823983
1,40639685343636
1,39871070570794
1,40885467089168
1,42122649667449
1,40910805534831
1,37182962846037
1,34868453334415
1,37072453567325
1,36922340253546
1,3806386280253
1,38050168530051
1,37111312983181
1,35977717168989
1,3708786277669
1,37638221557337
1,39891728682923
1,39256847014976
1,3669505411056
1,36158421446309
1,42291940021781
1,39596761126993
1,42467199399073
1,45615811955965
1,42420985931943
1,43525850256051
1,4589876960106
1,48756001285537
1,45952009716185
1,49627122606346
1,54424217265419
1,58188263791711
1,54115520172911
1,564961245463
1,65373588694697
1,62557348326498
1,63602932737873
1,64215057192879
1,66681708709063
1,6625523709877
1,78340961015756
1,77082987501227
1,69987682263637
1,7053882299304
1,77500537303643
1,7672002513692
1,88919154130422
1,84817664154763
1,74883607720394
1,82867785195823
1,94162366150029
1,87235945133963
1,86987804298387
1,82966404420709
1,86618846569541
1,84255074993072
1,89727901725378
1,92589516280965
2,00688975983068
1,93139637144991
1,90973780207184
1,91681479686219
2,01388098014911
2,01814639205624
1,97390573697818
1,97876818954191
1,93043663633296
1,82913846574116
1,81034717010984
1,80277884898734
1,84303435850386
1,80047201785624
1,70822674451607
1,68722047856457
1,71922434715119
1,69851889201091
1,66520587719185
1,62302893717099
1,74028571559807
1,62499520275106
1,57755541251101
1,56328071510607
1,53326454463247
1,62011015550034
1,66204569814799
1,58807828890831
1,56771667002707
1,52387758916094
1,47774597879602
1,49440953973632
1,50750901370924
1,44806600828581
1,41182693929514
1,40988126844919
1,37517296059395
1,31409020451276
1,34665543714046
1,30168708200344
1,24675146779397
1,2255543161169
1,1751198836432
1,13999927915599
1,1322245885457
1,0603768954932
1,02014194808643
0,990952059777737
0,948955255238249
0,910271474248544
0,869413141534972
0,841369881794202
0,818593303638804
0,780523567345258
0,755480365982518
0,740459792560848
0,720327364512551
0,702738434876856
0,681834537771755
0,658773614471165
0,644831803727135
0,632578298621894
0,621075524683253
0,611512903658889
0,60302290375307
0,597587780589095
0,60003556071853
0,589182597739155
0,582334575927722
0,575222890054994
0,571159213279911
0,574337378835028
0,563241347173595
0,566340889219987
0,576292361708529
0,570945212322579
0,570865036741637
0,575200632160457
0,578208532421061
0,591005665309243
0,584911338305888
0,586525462092041
0,597257850364793
0,589774221562731
0,595727946339598
0,602167939826348
0,597691063267844
0,593612763359092
0,605515494442479
0,611536891132194
0,604421951387603
0,591184345065527
0,599867693215622
0,595146011761618
0,60172007760672
0,603965180468728
0,605514219287656
0,604418108886201
0,610452306134496
0,61053182017179
0,605299650266114
0,615623474757173
0,617748488585511
0,610465850549272
0,608401999381845
0,609121276706041
0,601700113018807
0,61234338889469
0,61466495934616
0,605625079977842
0,613606015463002
0,615409390107705
0,614960968423717
0,615304777428413
0,611812790986807
0,5985728206573
0,593255621978871
0,610008202374932
0,611337642788982
0,601851124958761
0,599862898961395
0,603206148737442
0,60758334043057
0,605991417185801
0,609416328219813
0,613036290174749
0,615315505187107
0,608764984741124
0,628950950048054
0,635379147833029
0,654403496156699
0,668716147443576
0,670424874683773
0,690208843493951
0,689006812284656
0,678939824041285
0,688630939297694
0,706144835164351
0,718879557407643
0,69970093262871
0,669105286817118
0,675841328692897
0,671253102110712
0,660522440720546
0,664950987759182
0,664746899720675
0,644948165185212
0,640143724557707
0,642037960211295
0,640618383796502
0,645046040130053
0,640154567979984
0,650541690753862
0,658110953544831
0,648846224508073
0,661978808166376
0,657261723618476
0,642128554553574
0,658601786875012
0,662997835739774
0,65698134820973
0,647763503995942
0,648166824929602
0,639112079817701
0,658101135624371
0,654103343811237
0,655954566453701
0,660975133026858
0,663442599071191
0,656886683537528
0,641460207514438
0,651140605747198
0,666024553505746
0,657645868493191
0,669122371909351
0,650673542488226
0,639535738898362
0,667691508069869
0,655086290078931
0,642865321677668
0,652511584069912
0,661424840610762
0,661701071838307
0,642527260406901
0,645807070462384
0,656261825484864
0,669072653372486
0,665000707620073
0,662063658259646
0,672723240308713
0,659361618302151
0,661131020931411
0,643786535809948
0,624779740338129
0,665533641045908
0,661341238776698
0,643531720476865
0,639943580010838
0,654157399341505
0,647926880493326
0,636910625703306
0,667429716568052
0,638234582485666
0,629171578555265
0,634175004414123
0,64971941076533
0,636192635888741
0,645746909250389
0,629027834318095
0,646327689496887
0,655992696307332
0,658816861465461
0,627071917583127
0,646756924148534
0,659461566878727
0,65841797745975
0,668762262665629
0,645004736529512
0,657232610787655
0,657862714714893
0,652096671546458
0,686903637217585
0,674165888859911
0,686373536061974
0,675418563037301
0,666512741967234
0,698317960669936
0,676708566526406
0,708888589520552
0,69406200965286
0,718424751433803
0,707275083167727
0,689014641793578
0,690026041967999
0,701690353700887
0,734459345489603
0,701954056828372
0,747643063955524
0,733342389938923
0,721707004870042
0,732878930331427
0,766817677536231
0,798550613013921
0,791441109019969
0,774004874964266
0,820407416545012
0,843480931005228
0,831700157799385
0,834003085388646
0,882014133361924
0,861854415332856
0,894027450262492
0,927059493681824
0,926321383384655
0,909122773133923
0,883625045556312
0,876954430810794
0,901020814928703
0,908403328825503
0,936199775026114
0,935669721006611
0,970666563313081
0,945313188477006
0,925962142674739
0,937036779163118
1,02268930301465
0,920353123565533
0,963667202112135
0,937763792932965
0,915333681398526
0,959490185700063
0,915523231592871
0,92819770493042
1,02150269033696
0,959087188383068
0,905797612328665
0,895376097076344
0,976380950182427
0,935786418159764
0,942433541286323
1,01701491151254
1,08355222157466
0,959362298690875
0,919837491910253
0,969402109948023
0,988453762809632
0,889797334913415
1,02506945793636
0,95545895133568
0,956483125350777
0,941450117970634
0,944879256008468
0,970427773709662
0,940276560725297
0,885988740463932
0,95680956751937
1,05691539043683
1,0499156312564
0,922459852932342
0,958914696052494
0,896703787248394
0,842562410004253
0,945274766247575
1,04177169571033
1,00747224576552
1,02958318662415
0,95480019831854
0,979398810337206
1,03190201213017
1,02894352087199
0,994817639727847
0,992061927680549
0,962047294856368
1,13878165855152
0,871877678598455
0,851589659892959
0,961288503969791
1,1723237932493
0,995798367979049
1,03932023753637
1,08654779915923
0,999060273718274
1,01647207558862
0,9917690646923
1,04542436398003
1,20341517844472
0,961707764509373
1,01220281604631
1,33422432055154
1,20555699395315
0,957242614620887
1,27981987125446
1,07614099576177
1,26250973120349
1,24178692341235
1,34319488553658
0,944106176714868
1,20621005402936
1,15047377061912
1,08512365187097
1,08913292976623
1,12056264883571
1,09649594036777
1,16847842379347
0,927889054447695
1,19391716364465
1,44647052945649
1,59101027639217
1,27778826275511
1,10434008919982
0,992976009467542
1,21693124202309
1,0842580843919
1,37835617799346
1,14370540317494
0,919033468062212
0,955558877056079
5
1,3521743065673
1,2702044519924
1,07492630210842
1,13913676192803
5
5
0,983921550055132
1,15899212262668
0,896006041221833
1,28735698491693
0,781043440403461
1,71801068330426
1,21967233772595
5
1,3096709068156
1,44395368042786
1,19285187153543
1,18938829247043
1,25104702439177
2,53755059929582
0,626872847352044
0,842566157150949
0,771762316534094
0,968232485440965
1,88434103096999
5
1,0576690329768
5
1,18243886057845
1,22210687141222
0,960376444005368
0,686234120371935
0,824659099289829
5
5
5
5
5
5
2,00888281285544
