3596
4000,36533379555
650,420452594757
1
2
2
0,0748307544125431
0,0759476451421645
0,0778783371048233
0,0800463705636566
0,0743171819457242
0,0808651322501833
0,0698996128534965
0,0807124100918351
0,070698874473793
0,0856545450109869
0,0801897084988917
0,0771362281194413
0,0727848157939347
0,0766798254799841
0,0772225036870009
0,0752391334875648
0,0788993984822118
0,0727396927474094
0,0769037365096757
0,0757992991777192
0,0837314699614826
0,0794665667568808
0,0676698143173655
0,0777443135515595
0,07075041498056
0,0700623075016109
0,0838276189421212
0,0719720737821836
0,0714464750091602
0,0723057715656604
0,0669490575619821
0,0745628358867016
0,078028240992843
0,0766570795595171
0,0743005419194721
0,0739981327659556
0,074520456842806
0,0776056757145463
0,0740795221544975
0,0794557301595611
0,0864813752030482
0,0760230926004078
0,0752192709778941
0,0721709286850605
0,0695393129231161
0,0733796333520007
0,0746155338577323
0,0809431415064829
0,0704325531726375
0,0767646412270991
0,0831839341579694
0,0745817567419024
0,0779478321864373
0,0842428974351754
0,0801386981898161
0,0838411121914981
0,0794239131890341
0,0764478948335201
0,0782462090197601
0,0652760046391663
0,0866390687847274
0,0853337843808878
0,072458719761099
0,0749977652722887
0,0854485453916933
0,0758985828892439
0,0812434566276098
0,0702518939006381
0,0793808605835993
0,0700919408204067
0,0747475344968633
0,0926243084225565
0,0895065376488097
0,0814892370698384
0,0861237294835337
0,0784183910672423
0,0664172384247042
0,0669942434433006
0,0607755354831076
0,0756437421441992
0,0873525564217856
0,0716354742034522
0,0691936500599942
0,0607415848521577
0,0825294359162737
0,0894149103860504
0,0608836474584228
0,0788647213175922
0,0845632919699882
0,0854115555300753
0,0685161454412102
0,0811116816660571
0,0735063740212321
0,07674837830107
0,0599003367817759
0,0710204990554022
0,0702023754702828
0,0697626526186029
0,0697527736777172
0,0751322732696341
0,0724867504848809
0,10520321672563
0,0843390610226721
0,0697452364681734
0,106207353262922
0,0913669174514284
0,0666486753567438
0,0971163361876833
0,0956445411007149
0,0773528128445426
0,07449585679063
0,067467073071083
0,0740168056047108
0,0679433394031742
0,0676544847700936
0,0775722770889001
0,0985873690352266
0,0849172840005784
0,0798308234693137
0,0627944325554301
0,046517443388847
0,100392849400608
0,104032156253627
0,0738098005315563
0,0707923105213072
0,0749798827833687
0,0606188871152001
0,105528290765026
0,0901913399738287
0,0760251577196882
0,0610794316232382
0,0739024229023953
0,0504108726061196
0,0673758575294655
0,104674868776392
0,0860831382023113
0,0600956282913157
0,0559375193260875
0,0723203955624423
0,115073181848793
0,0770891257142675
0,0711861243640532
0,0527821805546062
0,060967165331079
0,103803706428289
0,0822247159916257
0,0607216234555648
0,0920602364390615
0,0791475668154314
0,0691229737447103
0,0629312517077411
0,0581772583095218
0,0822016637174387
0,0793666918621674
0,0335547411265154
0,111025075882685
0,111898856648295
0,116589767719794
0,107339386759497
0,0835011555095643
0,0677662269079021
0,0703016592486499
0,0602987988120541
0,0689695804783428
0,0686454786791641
0,0530827947306282
0,0832469148657711
0,0983200997090687
0,0701886180922803
0,0748417625273831
0,0986722856001683
0,0742396689458258
0,0509071146155282
0,126541839924109
0,0792235574878007
0,0552677648577208
0,0934907273452101
0,0799670264138623
0,0480628327944935
0,0765871378464007
0,0949684997777839
0,0749178489643022
0,0714155173869733
0,0617801704233717
0,0575533904259428
0,0739296420362356
0,0703400153898538
0,0684591301087079
0,0591510144346894
0,0492707394215013
0,0721804856974454
0,116788629748134
0,103940249154167
0,077372731816013
0,0618151592139607
0,049752436379507
0,0732368730409596
0,0975088324914591
0,0704040582667891
0,071770019691436
0,0636546869506259
0,0668606443089483
0,0597179965963237
0,0692422287098625
0,046158957778537
0,0491019292899291
0,105826381796546
0,0928792881690202
0,0694784900067208
0,064768443886161
0,0527584567587917
0,0468972744608979
0,115985765014028
0,101001449061255
0,0762551945955618
0,0648441227769578
0,066376123916709
0,0742694938948952
0,0757959137851335
0,062375784843105
0,0635922085894778
0,0638899367076251
0,0648555357002786
0,0666961447493241
0,070419813750717
0,068247648201161
0,0649824800386489
0,0704682475954059
0,0661537178587943
0,0720894443578212
0,0751280642923898
0,0692752338025483
0,0721415966026642
0,0748591873867778
0,0563228674666477
0,0786300360491871
0,0878049396007606
0,0738847617030714
0,0788646696684386
0,0768462591515296
0,0671793549816149
0,0714229357830039
0,0619611352223658
0,070701023752218
0,0584748774803458
0,0598326521009387
0,0960301194792029
0,0881927011704969
0,0686098681976398
0,0615818117843673
0,0890684571303849
0,0846188377556307
0,0766493640255293
0,0693439174427973
0,0779944586259728
0,0635795982165912
0,0594800626987051
0,0921892485842978
0,0874376642736257
0,068761771643771
0,0862934667469268
0,0863759896752438
0,0762287976705169
0,0589825096298225
0,0562891902079756
0,13349788119711
0,0880220857474679
0,0710951782969731
0,126493148954418
0,0916835631612147
0,0847370114761956
0,0567325425302407
0,0269144129283939
0,151352291214543
0,148817972731692
0,0806934616810026
0,0804184697241573
0,0891973451661679
0,0772963440480685
0,0767538292669754
0,0689159222051129
0,0975472123205167
0,10240096753235
0,125848871434839
0,120526027302907
0,0725466153867711
0,101666875159502
0,102380022755875
0,0955233826324241
0,0950037968439612
0,0811025263480153
0,0699510723686888
0,0930888254947049
0,0948946641693581
0,102689733738572
0,0849724525056937
0,076775633328703
0,103825090049843
0,102101106989514
0,0736945881927716
0,0915324388061781
0,097967087557224
0,0997381113172224
0,0871295317293753
0,0894153577545817
0,103686185962904
0,0819005356949187
0,0782956649353627
0,130408788955934
0,104259751995192
0,103566611519979
0,133623808458442
0,11192707145035
0,0958887860407569
0,094320331892679
0,0933084419062476
0,0978859535963899
0,0931787379903849
0,0952154850781354
0,124297245018133
0,112886907172813
0,107792240197169
0,109222616996545
0,108544811954487
0,111841702596899
0,115454870347991
0,109044296851662
0,117250802038106
0,120983019276651
0,107105228872196
0,130982083610851
0,157345080619799
0,11059522272185
0,156803250333652
0,172122740898349
0,140513213935422
0,133244541720009
0,136027811117644
0,138885615218124
0,142952111340365
0,146797232687524
0,142086179637877
0,1601399809017
0,180309010343449
0,165387105600542
0,153212380640863
0,164486871214288
0,224617160163053
0,221145028710629
0,204236035186629
0,185877030658228
0,157521791822927
0,213973200778161
0,21345693472382
0,230053166957946
0,239186074280798
0,207721420366329
0,206446838639901
0,213877075429411
0,222165639837886
0,22455646027577
0,224858245379131
0,237696441427006
0,230035713950842
0,249762694226314
0,250684953086329
0,245962926182764
0,253194491230056
0,304833287903969
0,275598019190675
0,267249882244177
0,275639838444612
0,280129552056968
0,306165978737888
0,317033740300546
0,35993741884822
0,31678478310133
0,322429197316552
0,357112980435255
0,331919497394319
0,330821448544302
0,311256621041332
0,337082689643192
0,323297657618881
0,34431849316893
0,343880828647167
0,356839821001101
0,349342167612433
0,349995257253056
0,35116000234868
0,367476906255766
0,353333474089955
0,384026989540698
0,387619311665559
0,389263148026453
0,372887932415413
0,407421755590427
0,427551494761115
0,46019212731656
0,406568286117052
0,425496548791709
0,422127359491359
0,431861971290063
0,418707551923614
0,435996389316937
0,433944066440516
0,436923188385343
0,493712126614953
0,481452571667493
0,48165922021802
0,467712825981753
0,45157277862556
0,511963521724679
0,475756773535989
0,49162741985505
0,518622440757718
0,47951869007526
0,449223559041682
0,534205439873039
0,491765524551769
0,51834560366191
0,52187370604459
0,521331876025074
0,493406335303913
0,533142337633542
0,508669595447755
0,558832154875353
0,535058586396913
0,549316201008373
0,545357834137307
0,578231213659983
0,551001583005538
0,584602619701472
0,558439306760153
0,593344659999317
0,559071527473025
0,58945066825948
0,566606168535021
0,604528380795866
0,548337747065241
0,625414106695532
0,597343954621319
0,618578367702321
0,64793093631255
0,608731183217112
0,608768311188589
0,629271205712588
0,599029016087817
0,647160149100539
0,653738362915118
0,653927190534152
0,641770874284924
0,677762419299945
0,621674778436125
0,681963365882436
0,648144562812094
0,716872944979351
0,654237078162846
0,71273255410655
0,693113738214368
0,689566687537074
0,669484340532716
0,747664462206808
0,724178085529264
0,813105602367166
0,701146388027929
0,749033456169568
0,716210617971916
0,729066139601299
0,702549204467449
0,754312349997917
0,733498807463191
0,748128495618779
0,746782667248129
0,783001530733363
0,726037436434606
0,789541224118032
0,741623239103588
0,796174058986399
0,800444880795636
0,819967994841847
0,768817995269398
0,851278865696552
0,821953724784161
0,855260756985823
0,806927915269329
0,828607650875238
0,786766652667088
0,888039358803859
0,83256028549938
0,839219957907885
0,861704503797505
0,868014333862411
0,809675179665745
0,900845318645654
0,804136472878189
0,907541151850067
0,819245437114295
0,96720815527018
0,865308706154565
0,920862572875676
0,86381891521889
0,976137431673753
0,905076752179534
0,952468283015663
0,885961185511277
0,926177305463021
0,876422655922872
0,918594018665698
0,848392854809934
1,01367124913966
1,00813718849685
1,05407015924437
0,922628578875233
1,03314580550897
0,964520410974063
0,936258329318636
0,946118669967707
0,955605760091798
0,998573493624406
1,00728952142147
0,95539754871126
1,01719519800662
1,02657232972266
0,965407511896296
1,01634188539012
1,16510497087647
0,938792168592001
1,12337188990607
1,05193741934138
1,02465981213192
1,03085019583293
1,08132484363076
1,02913839055503
1,15108321746959
1,01904535604972
1,02971899095153
1,03517515555857
1,14274803754327
1,08885754675481
1,19180343898801
1,00387133467768
1,15126893587994
1,03024231655535
1,32115207431009
1,17295536075732
1,23193565651117
1,11767336265044
1,25887075992353
1,03706970577173
1,23333515697486
1,08731980065541
1,20587306963951
1,13678281278598
1,21401721360705
1,19845889340095
1,27035568406724
1,14268467139732
1,24939005354395
1,0679665484349
1,16347617556177
1,19061278615244
1,40524841465399
1,19613888353099
1,18994595178862
1,20298549532288
1,32312280516619
1,15066555782065
1,29237795466405
1,11192263856625
1,43920954575452
1,15026545506777
1,34701938168548
1,21269568765013
1,3305765136467
1,21849340658202
1,45589480443039
1,11296234781916
1,3180016373347
1,16434348177465
1,4103904306111
1,30421173877384
1,47231826924431
1,24547581015784
1,42134661812918
1,2413377836366
1,36856771773713
1,25823790899402
1,50022829553068
1,27673057198073
1,5081495497785
1,2488630622772
1,28783804619219
1,19641801420884
1,40609561295217
1,30745548540043
1,38623584516894
1,26154303785726
1,33582391772921
1,46642836297526
1,32868460940803
1,32063402328804
1,47264042646749
1,27147861158751
1,5445613950759
1,38344937498111
1,54510756017589
1,32927311137329
1,72478940521246
1,31298154634968
1,44037002454313
1,42227760657348
1,67527733594684
1,61087472173283
1,56263933747616
1,31987656351944
1,68766100504534
1,39922345358447
1,85132956662133
1,34564033736263
1,55616918126209
1,39687297448304
1,64523648680165
1,47268342442409
1,68136233587206
1,51258789698113
1,76927143026524
1,37999715646761
1,59868038291052
1,36114345621881
2,61547498464373
1,40390382067465
1,64420131511021
1,46867036536205
1,66840577069005
1,34633095916017
1,92739888745123
1,72462791355431
1,48759835463806
1,35475492243949
1,50915181520839
1,53517905951684
1,55310965910901
1,43891295962195
1,73409631905401
1,63498202424105
1,9158684708134
1,4546995733635
1,89697966997371
1,45442888702843
1,55127941941218
1,36416116464816
1,4964029547252
1,65926290737279
1,92813348281799
1,57844760076519
1,7919791607244
1,53017736351061
2,32299026699229
1,47834906279503
1,89738166079486
1,4535927702038
1,87350687968746
1,46114320388726
2,01792293153506
1,37754373730764
1,78237707410415
1,5154339951297
1,94622220207755
1,7552900352723
1,97221286391006
1,86079034587795
1,72252387242497
1,83623346128126
1,81449419453826
1,4939991759764
2,1065730353829
1,37646861026862
1,99727340515902
1,67409877373849
1,92176662694322
1,63456420378991
2,00113931386709
1,74657600034422
1,64916111349364
1,56974084919561
1,87047405115968
1,5250831685358
1,54769034570838
1,65861002974965
2,14564260111165
1,52338741353854
2,04362674748061
1,70832514120734
1,76378319061121
1,53371488587258
2,52710917535535
1,57546325301105
1,62335482352683
1,67784278050107
1,83424208484668
1,70500595185045
1,92727260484306
1,54996261905412
1,81304451648001
1,72273680139068
1,74372242637619
1,7521996791731
2,06076679381158
1,63886044994676
4,00581757045368
1,79322933360368
1,90094095122817
1,53341821044083
2,12235011648067
1,80634716501103
1,74493320716512
1,51404441145303
2,03048249342602
1,48712061904244
2,01210305524574
1,56254053217685
1,71531679284074
1,65084211751114
1,76187056354647
1,69529110569606
2,16285176871752
1,85037741867561
1,73933355244696
1,66477090471612
1,79241914407023
1,70921732928777
2,27001700530549
1,50305119950284
1,98528374943705
1,60931039085174
1,67549508688031
1,72960018915549
1,96439737484986
1,74887484427032
2,00380220211865
1,50761458938356
1,84684838852516
1,56076516782511
1,79814024489575
1,60047830548366
1,69166511133091
1,81881209828939
1,88651738536073
1,51332479751743
1,88998296413852
1,78120234993049
1,96859491695334
1,78318866265289
1,74946081642818
1,5663141558393
1,93662204545049
1,45101141680845
1,90574890043153
1,60896465084009
1,78941314620134
1,54348083656371
1,82204330431883
1,63768416392266
1,90556100000161
1,62528413632107
1,83016813611109
1,74067852506698
1,86428813468066
1,67455495600641
1,74830104026612
1,75403605575164
2,01716573731266
1,62335409702814
1,85557402437115
1,65200569717358
1,94838125843529
1,66475552155893
1,98609347640163
1,69911998461192
1,76053912676292
1,67827312334376
1,68264023650098
1,78819099112833
1,85575453416492
1,70736285444955
1,88545283515579
1,45036475231504
1,82146996262598
1,61577726286074
1,75217204531093
1,7053651470649
1,65612743529143
1,55681675335182
1,88599204713121
1,67471425667066
1,86077896206322
1,56934487738258
2,55861765123963
1,7957995301754
2,29310844636681
1,65668008822061
2,08084330468357
1,87424773573266
1,71693253076629
1,55688376756407
1,89913719337486
1,61100154603122
1,77119495657486
1,67289050118363
1,59108704923964
1,8691800716321
1,70724426315612
1,76524141234772
1,95980277707188
1,85946695681907
2,02312750279046
1,75951846870456
1,72367350218503
1,72566306310279
1,71159127953843
1,63874306955534
1,7065069774816
1,84604755424149
2,11308268301006
1,8043896063852
1,77013254093061
1,50691799355365
1,69364948853372
1,59979502552197
1,79979641008178
1,76032800327329
1,80910637306795
1,58790973150505
1,73949634964009
1,62359022466384
1,59758565678149
1,76507096827544
1,99687830871129
1,65210034117636
1,73714525971375
1,63073168792089
1,55281793288485
1,53079451664452
1,81885591063712
1,77403398672354
1,83782481047923
1,55229243324883
1,68167781263953
1,52993249122017
1,75857105561286
1,59833324675327
1,56034375820559
1,67539737057593
1,60546720903875
1,61409019491211
1,64827067111849
1,53203623371547
1,68275504215164
1,49643260234271
1,52594874039853
1,49739530691304
1,71355666123731
1,46241214499592
1,57040747777373
1,54027822396728
1,58388536282495
1,36654326448572
1,66201598619713
1,60243258457459
1,60930137178944
1,45482028286318
1,43775130837296
1,59471744204032
1,45644523070576
1,5152226952505
1,63379877195579
1,49378698039027
1,58393017788359
1,43688673325042
1,57925782553462
1,54008961757685
1,62971108067546
1,40878281773116
1,66300176639695
1,34214967373521
1,50272298410146
1,37042136446875
1,54455297059485
1,46107413822272
1,4740447272386
1,33556730574094
1,40190148028357
1,32948346248553
1,39870467375349
1,34604443293991
1,37557991938123
1,45799846420424
1,42514792991252
1,30864634395936
1,34513626273679
1,37624345021041
1,37607381034225
1,37030865511301
1,37821024266475
1,30640668386659
1,33077041629558
1,3023561065543
1,31043215375279
1,27616189375172
1,2813893732273
1,25553680258879
1,34840113913961
1,29526632388707
1,2514001354478
1,20592398475162
1,35545123569392
1,16618478461467
1,24394322290912
1,2358242965833
1,3163182340798
1,19273918453646
1,23648359529444
1,15811792540469
1,31564984053426
1,16469693806143
1,23646195758742
1,22659033306045
1,19684854653313
1,16004824800034
1,18493710501695
1,19446383285255
1,13657622476921
1,10776552195314
1,15841793691521
1,15395540529838
1,12272683434533
1,08115811621041
1,14703539524281
1,06085373320989
1,14695915698181
1,06174077604868
1,09096523907821
1,10940971686514
1,10332223765386
1,03748760079378
1,05965381806649
1,05393695783684
1,05341638626987
1,0531397182264
1,06393030900102
1,00989326919383
1,03566387348297
1,04508658826519
1,02657895688702
1,03735870009567
1,03264836822106
1,04561305682931
0,998314591048962
0,972866547082083
0,992045703408702
0,977921968693176
0,966002003022236
0,935690584645666
0,968886418047202
0,9443645691888
0,970353499655741
0,95296249616985
0,980053576887547
0,947258986284108
0,919049075957103
0,902518702390711
0,927425403361462
0,891897741870544
0,914634420921829
0,89925991921185
0,913246197839351
0,864904642783708
0,894625144500571
0,877730279676556
0,890714200595141
0,868713167406621
0,849236871074233
0,857357289750823
0,84463561336732
0,836084572349677
0,832084872315532
0,842247876782068
0,844839806733923
0,811232060153482
0,824874312915984
0,813504043930718
0,822897683153911
0,815662000924429
0,80665723355464
0,773190648530449
0,792020371605828
0,7657573880005
0,771297438274354
0,788242324262237
0,762654149969415
0,742406526274671
0,746110111564552
0,746823774590477
0,755022592406905
0,745544611492257
0,740964449089328
0,732251372882777
0,723163934662404
0,729811615655326
0,720582520304741
0,691585878571384
0,713809794520293
0,711087418033194
0,698058017858868
0,677834368708336
0,682772326834494
0,697258914371392
0,681675361116588
0,671566575396212
0,683195628207674
0,668445377909499
0,671352740364896
0,670398304895007
0,644385789099307
0,64829495618536
0,649386545836793
0,640107259539388
0,645885957745104
0,630576083220187
0,637407805971062
0,626390488991262
0,64575894975422
0,619195070629785
0,625832068242769
0,619122060227503
0,618277544818964
0,600852953303744
0,613158039412883
0,59600200845637
0,591760027194849
0,592928136129476
0,589049005037725
0,574503524117686
0,587008343526901
0,56563565776973
0,575844040054464
0,566155452605466
0,567617241788331
0,552562138577908
0,559945043372731
0,544659526998184
0,555604857879514
0,542892426264834
0,541890178360434
0,550412648024263
0,538711330080717
0,537362344182209
0,531591732297319
0,523845598083811
0,527217446576271
0,520085957725592
0,527540883095033
0,507958316421183
0,506738494146267
0,497924914700075
0,51792601661081
0,501155191149252
0,504811136601991
0,502109455776191
0,492251749808515
0,49032615369928
0,488814950127653
0,489719880449817
0,485066525128226
0,475817932743123
0,484866126521875
0,486773284537138
0,481913976605518
0,474840673665522
0,470079436219306
0,472082021236774
0,473094572484952
0,460359086418092
0,465520513759774
0,466701811981159
0,461041957531411
0,458806791601317
0,4566358761283
0,454741970522833
0,456102259037095
0,444045032258329
0,453309326709481
0,460860360022198
0,442992149233458
0,439213866258529
0,441825241173928
0,442853321368244
0,441454037404569
0,443380011423743
0,443876402503503
0,432037829309337
0,43783719582336
0,438674227268028
0,432751719820189
0,436212444212852
0,426714131403714
0,425919544969955
0,431405051599262
0,418753409861859
0,428843711028062
0,426259540918253
0,422005301564674
0,419926952579741
0,411129332206189
0,412631686303435
0,417691301862277
0,415676377254315
0,412577934787226
0,415356760386902
0,425679104014125
0,417671148576891
0,423265782854119
0,418673879292597
0,420163547459308
0,421893199450331
0,423588106292362
0,411349520278524
0,413833906927101
0,420574721129078
0,422881745261852
0,422303864907456
0,414437132768803
0,417480165503492
0,418506056820444
0,414836516427619
0,420742447858117
0,421516674512138
0,421751676852338
0,413578030175614
0,423280314324144
0,427533080495593
0,413800584563686
0,41206181275337
0,416315033390919
0,415276113414221
0,414127469336446
0,407542091229197
0,410645657567363
0,398689670964436
0,407255773900244
0,410607633542799
0,401820459995918
0,394693372937308
0,402410790828253
0,393981799424835
0,398665393010443
0,397679481064821
0,384317752112381
0,384796313862553
0,387396455738028
0,382963675874016
0,379531458339311
0,381882795401865
0,381812490077717
0,376371063754445
0,371054175400458
0,37819986907178
0,378614437034449
0,382064847945519
0,368045496402187
0,36062386515286
0,372200654333274
0,36335558971299
0,360364859070201
0,368342493121429
0,369206151336491
0,365870695386636
0,361084922790911
0,368282908611311
0,363981374767982
0,36133537863774
0,361274834137721
0,355125728990022
0,35018870558688
0,361058532268745
0,353727749935142
0,353054231961378
0,352935059068856
0,357034303454171
0,349093283428657
0,348499544326121
0,353160052344056
0,355098250000729
0,3498621965108
0,354695106829604
0,352346880293933
0,346202179843283
0,350738630111243
0,340832500312055
0,334534295203309
0,340512871309397
0,328616435518608
0,327403971968455
0,329293377850367
0,333536216845539
0,327039308381797
0,325431156090982
0,324964550299768
0,3234401229892
0,322868920969619
0,31695538615807
0,318809845661349
0,320019793745488
0,315933562455938
0,316170745671636
0,31483283101422
0,305830645322422
0,308552674374312
0,305122732293892
0,304337328694677
0,305815197536186
0,301334088651797
0,298854147968997
0,296437760215297
0,29735753920028
0,288347100210592
0,29355335496682
0,290508874353449
0,283819972295564
0,282877919686904
0,280741581645419
0,284811974707982
0,275457296571201
0,270608066089063
0,277229908814782
0,274459583363607
0,269431759128314
0,273000225942864
0,27339558893499
0,265455891461779
0,266044361069663
0,264796453449589
0,267894558597377
0,266924295187979
0,263559733011028
0,257177742161312
0,25841526637427
0,255986983632118
0,257425120710133
0,252052473974603
0,255378611046836
0,256996488267396
0,252521296603443
0,243212587397992
0,249831151580149
0,249224090436314
0,244492241095977
0,240780422294656
0,246911427705621
0,236919312474977
0,241194965149649
0,236612359874004
0,231146553599101
0,236389028600236
0,236764059437494
0,234847506804746
0,235467686706964
0,229533296471328
0,229081730169019
0,230310629139809
0,232538808780758
0,228411037025093
0,230202197986314
0,21846843711493
0,218208490325865
0,218911767875822
0,220600753017452
0,217481073599154
0,217409963360229
0,216500671781665
0,217532753699458
0,210944708976008
0,211078626896855
0,210776717932772
0,205873135378372
0,212652846731542
0,217458705367761
0,209327190464434
0,206921872996861
0,20511296646154
0,210644870675079
0,204463306787526
0,206111539721777
0,204800702626421
0,205847907932897
0,203006692748282
0,200113813401315
0,200745367425866
0,20065867458179
0,200737971579272
0,197657766319888
0,196393710196
0,194968584037062
0,194131850858922
0,195232394708189
0,193520886269941
0,195100536846938
0,194130302771373
0,194180086253376
0,189827986537912
0,193664301953231
0,190571690327438
0,188301103463327
0,188297842555999
0,193256672783645
0,185938443352158
0,185410090111111
0,184874461706655
0,184307759892382
0,184803714024107
0,190520660575934
0,183825790324792
0,181850366505689
0,18111622910223
0,185891129615698
0,185971677230734
0,185201473701537
0,181370789634805
0,179724816840293
0,176247141951052
0,175877010816204
0,175970976776779
0,17760096244324
0,176687775808838
0,177199479125379
0,17650414845052
0,174719198417171
0,173625482333596
0,175068989330571
0,17286058517927
0,17545982376027
0,171489166019214
0,172651757541461
0,169249487037901
0,169159238263284
0,165305797203222
0,16882319425789
0,162198217128603
0,167968822642546
0,170944971941481
0,167713902843281
0,164925189666717
0,166900163159431
0,16095157366275
0,173335709338373
0,16534191762122
0,166415675498341
0,167310428688554
0,162921919804207
0,160173060921545
0,161237389556503
0,160322008928441
0,162299533357376
0,161909040391853
0,164627025717208
0,161614603141303
0,161303959386057
0,158467275085113
0,160819010346796
0,159446948558053
0,162698019293135
0,15664105701293
0,157369565594645
0,154646108746027
0,157792627011017
0,159342677494787
0,158561185447217
0,155190049359381
0,159860698481226
0,153538611793536
0,151109033458547
0,152909379999788
0,158078655003829
0,151365986798515
0,153983655488022
0,152215038046838
0,152599342552892
0,148751030745661
0,152801977481372
0,150249076470077
0,152895559550012
0,148974500291226
0,153475971867937
0,15053670072406
0,154183586152176
0,149211793439936
0,147617841619675
0,14351357065279
0,145972236243002
0,144771273253419
0,145396199908587
0,147046629637893
0,143866368320445
0,139786275900038
0,143925819489107
0,138608363634239
0,142906253377496
0,141864021510755
0,14315176188047
0,139847002412943
0,143191970802733
0,141651509468416
0,143990520885902
0,136485706537149
0,135349366867557
0,138083041253675
0,138392803591816
0,135400141285652
0,137561083909303
0,136404838482255
0,132516729047144
0,135187767051418
0,135538914955312
0,133726108653929
0,132745057687727
0,133167295635203
0,132982730217628
0,129900455633398
0,132696624747095
0,132931790635059
0,129909321490166
0,12573960300286
0,130942053126932
0,130641266179937
0,132332860708807
0,128341897414921
0,130213382963522
0,129439183876407
0,130476574315707
0,130934468944124
0,131918582735439
0,129310410495218
0,127555219803997
0,126658939897043
0,129129582843533
0,123949453127545
0,124928861134506
0,12643202214953
0,12974226951837
0,124326445588539
0,125040570421157
0,123811983280865
0,122708333948196
0,119210218821767
0,122230517843562
0,121399684277299
0,119823895142855
0,121149797977391
0,12094234191878
0,117914134165837
0,116231006107094
0,117893792087964
0,114313920917898
0,114693860038162
0,119199386815551
0,115002295581383
0,116108170426654
0,114928219006859
0,115285961004637
0,112968536705985
0,113350578851424
0,114028217347185
0,11345668383613
0,111672088274191
0,116213318039065
0,114499340479084
0,117181137319585
0,111404248830447
0,110409611945117
0,110843768960202
0,11142263320759
0,109001885694291
0,115010237620604
0,110381816823178
0,111607771147076
0,109575968000073
0,109961357284742
0,109242094312927
0,110798218850395
0,11173826719072
0,112717095820306
0,109946122050887
0,110776112294938
0,11043406143925
0,111706127921761
0,109133065410483
0,111454281178617
0,109573429950645
0,109392860009617
0,110455600930202
0,11378359417977
0,107779000913841
0,104276786939073
0,105641404130539
0,108404757906941
0,104873139727697
0,109900522719633
0,108125385318439
0,109041494212066
0,109652991112265
0,110742889782856
0,105685129225418
0,107050047394186
0,106421703050926
0,10733009916141
0,107638484253644
0,112293872099897
0,107597146949623
0,10722170300135
0,104296230141181
0,105992501014034
0,105495581619825
0,108366760726409
0,102831556359431
0,103885305662811
0,104641093086394
0,106135377119444
0,10795456184248
0,104723576755558
0,101090312043856
0,105603620165949
0,103155286628482
0,102747197028605
0,101123301937254
0,105857973048691
0,103763628831947
0,102509488465994
0,101870273201692
0,10375942062777
0,100424456507255
0,104972265731906
0,101418507068479
0,104913764398913
0,0983299517194432
0,103934598539102
0,103677286310662
0,101414972077818
0,105243146547934
0,103113184471622
0,101021332953861
0,105015696303995
0,102876787229809
0,106408261425987
0,103423157039246
0,106810788441424
0,105693153464772
0,103968900298991
0,102408239424867
0,105253234692772
0,102463587693409
0,10587898702164
0,10572340850253
0,102153989092489
0,100821924709905
0,107561092137495
0,103784992003539
0,102519489732248
0,101350311956334
0,107111351869738
0,102402634089931
0,106552509243598
0,102452054912307
0,10190728382666
0,100872527654223
0,103003057881782
0,0988872396342756
0,102552758537849
0,101077764663599
0,102402151482272
0,0997723754798162
0,102968401924486
0,101826398126194
0,102726282548083
0,101435520477034
0,104435495793226
0,0995270432986717
0,103109661181244
0,100649266360809
0,101416203456509
0,0983669873036203
0,101111425963219
0,0998772103093502
0,100491596844771
0,0967121268130076
0,101447855099551
0,0994363335367874
0,101825372241711
0,0978485535953698
0,102382883847839
0,100783495894914
0,100446656940856
0,0984817089554685
0,10071572677005
0,0982132876140729
0,100901048857167
0,0996822628426179
0,105355448390262
0,100962314593582
0,103807264485742
0,101537442852946
0,102420051769997
0,102004931002495
0,102971240498528
0,101722606014206
0,106282973763915
0,100920751530035
0,101867880806624
0,0993466029352852
0,103985741716775
0,0991907107221523
0,104317094640774
0,0995042550187443
0,103937382986809
0,101143894490757
0,0993927218626678
0,100843205059755
0,106016756868256
0,103201754035662
0,103825897550975
0,101059671520138
0,102862335357248
0,101164205245218
0,102750731814761
0,101158278895146
0,104180349110585
0,098658863594859
0,102771483789446
0,101441125620141
0,100570452344869
0,0999201188875497
0,104007298510094
0,100322760512023
0,100538009035435
0,0994100317354637
0,102614697936796
0,100883558488905
0,100684128424139
0,0986405863761858
0,10156711280021
0,0953468360944091
0,102005196483009
0,0987915968731318
0,0992015801649019
0,0978816064987021
0,098170350103506
0,0970414698688256
0,102532860270009
0,0978734800222243
0,100186845634267
0,0997372557758196
0,100955973793122
0,0993192765643133
0,0985587062910882
0,0970542861540111
0,1014308863603
0,099314789214023
0,101364401216107
0,0993602362906105
0,100680699925977
0,102543938324243
0,0995854390777877
0,100324539861456
0,104110657855809
0,101085177311935
0,103618716825974
0,0979721368098751
0,1019033094967
0,101442291980285
0,10521563023059
0,101578436769168
0,100786788427719
0,101959360925866
0,10466245540426
0,102215051892914
0,102499620927388
0,0983365744743357
0,10242042707938
0,1029002302727
0,10442657377641
0,101929535734195
0,0998137504529202
0,100742202289569
0,105107140828741
0,100531849278731
0,104124268775164
0,100888035127986
0,101328687821335
0,0984145339512623
0,102188155562766
0,102750189891225
0,105438674160287
0,101020462757704
0,103186044611167
0,0993749959546256
0,101010508687811
0,102360591990471
0,103277594095307
0,101800505953207
0,0999745832201542
0,100714562684574
0,103354513157181
0,102243371274443
0,102737673351521
0,0988043830607779
0,101623410212707
0,103038285314765
0,102422806574513
0,103931582850364
0,104998413207736
0,1005105045853
0,103235876642503
0,103778033494551
0,100670672540692
0,0990206426795532
0,101405025559889
0,101655834599697
0,104006294586871
0,10567252851872
0,105298611121269
0,103286271263569
0,104027698228753
0,103189200487471
0,104492413952834
0,105951207779232
0,106495245827909
0,104941583588008
0,109649910864795
0,108472759881036
0,105366209357355
0,106793439625255
0,109164175415458
0,108733387353648
0,107761206859392
0,109063696599071
0,106203595415451
0,11038292960137
0,113672559569539
0,113819869164671
0,116539470052182
0,110980151575178
0,102600115901206
0,103852912416932
0,103956584424274
0,108582334385717
0,107763597689666
0,100215286001156
0,10394071980264
0,106265855649586
0,103290627090003
0,111909676035107
0,110526820675063
0,101980962169523
0,104944295110143
0,105346821405215
0,108193782450868
0,112150399004566
0,106186963246789
0,110773024621869
0,106192500521972
0,112552451328753
0,111845448999758
0,111659948515096
0,102933292494112
0,111774060107856
0,102276633211418
0,110192060112615
0,104257931578218
0,112259582222909
0,101157995297986
0,109225585233496
0,098141431080908
0,116551249829495
0,101738749869169
0,120192390093603
0,0999618215092458
0,122133121353742
0,0983757618991266
0,123947782433663
0,097902712099189
0,124348615636965
0,0999076157885767
0,12853874459698
0,10177667009181
0,128336385186064
0,0963964536822898
0,126741459098226
0,1053066207376
0,127251038694821
0,106602910980064
0,122773491958025
0,116340398345205
0,115385811256501
0,113415465024311
0,111655077395407
0,132657581332268
0,11135464583622
0,129000898835508
0,104852734678939
0,136937438361598
0,100931809624216
0,136822180819939
0,103250481841777
0,13368110586967
0,106599691338898
0,128347207631782
0,112453305145699
0,126503923680757
0,116188234018668
0,12246702394857
0,117771460145481
0,120829876667851
0,117264214875547
0,123527659477375
0,116313244998522
0,127499554992948
0,116199408045962
0,125835590111142
0,114270466690668
0,125543028508653
0,114201868218491
0,124692619873988
0,115038968450461
0,12393919954399
0,117733750463291
0,124755221631372
0,119183487380907
0,125904146692125
0,117559143060747
0,129101735251765
0,117199661291875
0,123922439583046
0,117710841746482
0,123930543818179
0,117334946390121
0,127416870363056
0,119869524332017
0,127433667792717
0,118693742403959
0,13014866746241
0,123391038828786
0,129380793340749
0,12149426899769
0,12873498251695
0,123923790269477
0,129491090920728
0,121999500433055
0,131197122856527
0,124066767869346
0,127210882298094
0,124117629037759
0,132741323148204
0,126036865587442
0,130630146314131
0,127985304569116
0,134087717928036
0,125248811487398
0,13442417306097
0,128264999702143
0,134148102590943
0,127081502812366
0,13420302570472
0,1271132546861
0,132494668609225
0,127427949857922
0,135288954185604
0,128580512798971
0,133094597797528
0,128203359719236
0,138066241972125
0,132338734912912
0,137346823320761
0,129642628939802
0,136680243950412
0,132671126932451
0,136614954959073
0,134070606884214
0,135165424991483
0,133909444026737
0,136422917179336
0,131177341345998
0,137135057949599
0,133962304116033
0,136494964666664
0,130608989391407
0,142517049481883
0,132816258136834
0,137415993384885
0,13452701305515
0,138259354967282
0,135523101534138
0,139220588773818
0,136914158401926
0,145185200386643
0,137963721561966
0,141955136198323
0,138045391615352
0,143042399249264
0,13647663818418
0,143325327124235
0,137252852416043
0,142265985807872
0,137322655337093
0,145683574706312
0,141185553141806
0,144147461548487
0,139584364887641
0,145508285660061
0,142848150137282
0,149576942089331
0,144614712818935
0,147037397035699
0,143423898699913
0,147831813268312
0,145188914965413
0,149347765463222
0,146805686661384
0,152536687654198
0,143549430045294
0,150345260791375
0,146803815148054
0,152402270361834
0,147547664917709
0,152245460690681
0,146713217568904
0,153723469207615
0,148705397352715
0,149785220431799
0,145554865970456
0,152078754089021
0,149328947936372
0,155988276776156
0,149187481632636
0,155221999142779
0,14925603462175
0,157157096910683
0,151218985968331
0,153055349569696
0,152842181835602
0,158383784837014
0,150905009171744
0,154865852993858
0,153930417434209
0,153956731588793
0,152365024110184
0,157048707182773
0,151932944608563
0,156609942815533
0,152906993861323
0,155398343993464
0,154487587978105
0,156234991023294
0,153075511542111
0,157973422690425
0,15388753957625
0,161467274653525
0,157976216142217
0,157764974206689
0,153646344179891
0,160273644766631
0,15618905869452
0,162859588311326
0,159556310273979
0,162485841784594
0,155753421993355
0,161835052686698
0,158660224684356
0,164260098928527
0,159001085771897
0,165715957083963
0,159066425534329
0,160858245459997
0,160556240123845
0,161008305475445
0,160341772453589
0,164127372890024
0,163175215327981
0,164685127192688
0,158038205162483
0,163321505109082
0,158924276549163
0,16706594291857
0,161482095324377
0,166357762424683
0,162233198530616
0,167355891340651
0,159440735154223
0,164324321707924
0,163193630880539
0,164775465195133
0,160583321476666
0,167680423490642
0,161161974570617
0,16531250913793
0,163408250556378
0,164899003047228
0,155779551543131
0,163302469658441
0,159116805625948
0,165698780336367
0,16182464449678
0,165731882698514
0,161443419270472
0,165157609709108
0,160736652335435
0,165975399231646
0,161564831220377
0,163444603895999
0,162299173222604
0,16512645867593
0,161230580891394
0,166325085355924
0,15941075801003
0,164836268854297
0,158015776765828
0,163294066927941
0,158720140019555
0,165231779672393
0,161206173541172
0,162151435338845
0,159701912858339
0,163610417055036
0,162233973374432
0,165414927598702
0,159926327312715
0,161917051817825
0,156348651815666
0,164530983695542
0,159965073890898
0,16529712503745
0,161942573303182
0,16264924292986
0,159260656187643
0,165000795729218
0,163976381164863
0,164985761516935
0,159148099400889
0,161500248229335
0,15645401979508
0,163841499978399
0,159333750069654
0,161773638084282
0,162741189038854
0,163178811970064
0,158989286475774
0,159589407164431
0,155883760292303
0,164814992483078
0,156990842307159
0,161075477319466
0,156246827015113
0,165055711631286
0,156908224511668
0,160894741010565
0,15616877095074
0,159030381585624
0,157810231445535
0,158620464251066
0,152826620936762
0,157772775011762
0,156721088942627
0,159692770373854
0,152885808990059
0,158514897099143
0,153108414280009
0,157401441298453
0,157406925448199
0,158704281898312
0,154862485256229
0,157842438503446
0,154668642328014
0,156644947551248
0,150392549869721
0,15562714978103
0,150161059308158
0,154776670565559
0,149322119532722
0,152167007903237
0,150198527912178
0,153177569204499
0,150810577868899
0,156472119683626
0,144754841026017
0,155584495889062
0,149862984392227
0,152346170038279
0,148084573565252
0,155481489397476
0,149466666375902
0,154612883544179
0,146552861286098
0,153273836349647
0,145701914486584
0,152534066287645
0,147431966938977
0,15336988130049
0,143087269320205
0,15134916665649
0,14527332052838
0,147584044602206
0,143249936567664
0,148264659520116
0,139927780283271
0,145010136656727
0,142296162391619
0,148355190103301
0,142289036317574
0,144877124486825
0,140756864624149
0,148185300543782
0,139064779638406
0,14566356829703
0,139654168999889
0,144820051210656
0,13787233137308
0,142238778058452
0,134963692212994
0,141468551353571
0,140858765784666
0,143678334896504
0,139621382281788
0,140980979994009
0,137618986949118
0,140288288165378
0,133562292670156
0,136095473592429
0,13499845188962
0,137345673858172
0,134130095018142
0,140437173620387
0,133304368957272
0,135856157741826
0,133288186596086
0,135011418797351
0,131269135533769
0,135371645796081
0,132157231881264
0,133540440298749
0,131836061630211
0,133470632048
0,129110829175177
0,131893828722293
0,129113222919148
0,131506564956816
0,132548612144379
0,140105336419029
0,13122876815094
0,127597568112336
0,131511824001164
0,133862777890841
0,124993110133711
0,129758817664237
0,126449672720747
0,128595940728754
0,126127777349512
0,127217550777765
0,126791448719892
0,126594411622733
0,12323586957999
0,126000572057551
0,12189913726384
0,128958679748753
0,122305399843088
0,124561671423154
0,121216739863496
0,126833800639881
0,123112791922311
0,124842753667444
0,1208205867768
0,123826633833845
0,119607707269179
0,130420619750403
0,125157681903445
0,125218890859315
0,120749632631787
0,125283510807984
0,117710511858043
0,124357910914064
0,117750407755265
0,121510251226487
0,119176814731201
0,122658136477255
0,118438213759125
0,119970335364026
0,115212005310281
0,122914761293118
0,113637671807014
0,120492646328174
0,117445533114503
0,119349106186474
0,115653872726122
0,117664721546009
0,110272012296561
0,122713522769085
0,11328480125079
0,120876926802937
0,107629881839371
0,12053006824472
0,128940301084951
0,123015218014162
0,114611425842612
0,118284317907888
0,112181877319932
0,121282542066904
0,112281420707038
0,119039517961418
0,112635315374173
0,118508601846262
0,114136517211744
0,11717766440512
0,112927337866199
0,117646372564126
0,110830296756401
0,116039802892283
0,111805053925538
0,114538103908578
0,110734279445299
0,112681272155959
0,113892853890557
0,126688826882743
0,113834544887841
0,117745619758443
0,106897117544642
0,110713893919469
0,118117153496717
0,121081061986782
0,108605082804501
0,111666026775556
0,109791216197528
0,111860462374756
0,110356397418294
0,111235754486625
0,113611411902669
0,116345246592086
0,111610350594249
0,113446013040829
0,111645398773675
0,11326528291361
0,10821458695081
0,112313782902314
0,106742930277393
0,113177891799433
0,106979352543431
0,111018142616431
0,109381931027218
0,10945094827159
0,108815609414507
0,110667400845848
0,107522542576505
0,114474361901355
0,11165672589249
0,110489865396647
0,10727042013612
0,106858696899636
0,110065867805312
0,125245192236387
0,111504746229664
0,110667789510198
0,106012984394598
0,111237195455879
0,106819434820178
0,112748235747458
0,10658877991006
0,111160545314999
0,107873901572161
0,113650661534306
0,109178766941845
0,110669364666741
0,107102210950032
0,113645868437249
0,108024478855648
0,110548720810228
0,105473526943845
0,114243255629048
0,111900815466482
0,110339575539252
0,11367443246182
0,128395303601832
0,116648453460752
0,122031052959426
0,114400425660065
0,111282668476358
0,109037648986871
0,110269745163693
0,109484416671653
0,114693382009608
0,10613650846444
0,109641346991264
0,110615004118444
0,114241937449688
0,108572710049296
0,110084132615286
0,109095647682771
0,111174263349566
0,108408481841774
0,112922209124851
0,108297132667966
0,108945895709216
0,105599819177338
0,118811183422487
0,11396731089725
0,1148574739467
0,101879831450064
0,138094463965727
0,130921966865447
0,119252539339165
0,113303253422307
0,114413166783627
0,109681063666695
0,110725020741211
0,107458189975477
0,120524305595739
0,112423703391708
0,11267877136979
0,108573662909988
0,113792360348564
0,112083398151477
0,112400872005684
0,109078787664755
0,137971642834075
0,124183641042536
0,121696382584425
0,107464023072269
0,120285549999113
0,129749688937168
0,121241320989979
0,116068943554473
0,118158241052136
0,115775187970455
0,118370006455002
0,111191080046956
0,115763946150659
0,116954576107815
0,121826570928142
0,114632178166827
0,117780875057954
0,116968615055218
0,123668874550156
0,114335730016109
0,133187953823763
0,124605435187073
0,122759911667256
0,12154686142811
0,125430863324199
0,119271009311937
0,123659939267391
0,12115830869129
0,120752914232243
0,124860774376772
0,138415339010649
0,122331061821785
0,133373857376877
0,134152550174249
0,125654672530638
0,122955637000736
0,129192377434028
0,128880314632604
0,125122226526234
0,129619643927226
0,146637001559974
0,140827957011335
0,145106731100815
0,131487988271916
0,130786255120757
0,128303016466713
0,129582620856267
0,123157923528385
0,144750250340607
0,128410536339527
0,133468010729773
0,12731249132388
0,148423739558144
0,14215320320279
0,140437530327055
0,134641363645093
0,137423129356877
0,135593598229839
0,152482877741164
0,136264272731432
0,133848964481002
0,14895618740431
0,173355751324661
0,156019705399287
0,149032124725582
0,132344582240777
0,180952197529984
0,150865943328542
0,148145721734857
0,14259102536423
0,152939100230539
0,142178489362073
0,146819095035684
0,171780386739478
0,161742857148141
0,148963097585285
0,163549089658589
0,145149429117245
0,168019078180999
0,167040729426476
0,160776661616791
0,158991920641497
0,165208688363667
0,152640594877016
0,199397716669258
0,179246947564159
0,179932980394095
0,185070032767093
0,185296905939597
0,177910583504461
0,182696574137485
0,173585571942134
0,186321578684422
0,189951091863778
0,188628839307064
0,171291388914606
0,195542433914324
0,20599301924602
0,188551207361279
0,191448951262393
0,190213399511571
0,176022092208029
0,218074224588901
0,241435858116786
0,231577436452826
0,210895828528944
0,205360791361698
0,227295659909922
0,218931661892649
0,211982407277829
0,217707705119539
0,217724942923282
0,221323660758793
0,217672558403087
0,239217736352211
0,228402202042611
0,236174367779144
0,230832957129134
0,236168362449522
0,241001023828294
0,293881424959696
0,281264027637475
0,260675584390617
0,290986086675935
0,294975994293033
0,276249794546513
0,275690694424876
0,272839845289904
0,293957714982724
0,287743369097634
0,301516644738841
0,287425406189714
0,326265047018905
0,321278791704334
0,317706826911771
0,341202604291367
0,329141997651678
0,321046714601685
0,315891607353743
0,499639643101942
0,384892576694152
0,368233343376874
0,374392312908379
0,347681537747848
0,472800585800994
0,39557632439941
0,390808463607485
0,40332024384144
0,402910479961286
0,408888095912279
0,429910187635645
0,431784301528851
0,45319478709215
0,446045373673646
0,447288371331026
0,436957020993375
0,548691301688851
0,524082545187736
0,510089665468814
0,494694405118452
0,521504107917382
0,525044913632621
0,523913501084094
0,517537505934463
0,534329716385203
0,527385499478373
0,616256641250579
0,575495511535513
0,575700723955889
0,576288698644923
0,623183675342654
0,583254560351622
0,642438525552825
0,656989963523561
0,62360079457322
0,636467372720211
0,631440552335915
0,646475918532673
0,648507596724904
0,67423800054994
0,696252912863031
0,676420245940691
0,69328917118836
0,706944306608169
0,71403087279928
0,703529122790946
0,73352742785662
0,723477128117852
0,778312874940934
0,762815547009376
0,863723150128659
0,807967278676483
0,760625714527371
0,772913597642251
0,770655271639801
0,810425581115203
0,843251242888838
0,82959739893678
0,842818933546661
0,793989027635823
0,831464964694219
0,810284027593194
0,823969570308075
0,827010788168032
0,82950980410731
0,793546939856043
0,834773570517545
0,820367058867833
0,85745330281691
0,893695356298558
0,826558573470648
0,82906009616853
0,817794539352073
0,820130820219137
0,80984237563699
0,811756243905051
0,813557740788099
0,816969153454916
0,812463704564289
0,797269231996266
0,761977765643837
0,78109255877018
0,827523695380079
0,747353758137606
0,748089118315242
0,746539704776659
0,740624162049309
0,708597686897424
0,706352370141384
0,768357445026735
0,71078514524278
0,675602782851101
0,681237665387814
0,656473022270568
0,66135171899019
0,64905422428653
0,652933035032194
0,636222122953923
0,611527972571789
0,616916208981864
0,605683561129631
0,596455256946519
0,590131502971164
0,583947620879322
0,581695937394193
0,556727847093941
0,562716955821547
0,543963742008017
0,540078233202777
0,535366404804303
0,545204636641558
0,528622983764455
0,522933857749083
0,518534906333891
0,509343548021501
0,500856675713133
0,502631523538385
0,486251998463585
0,492488279781853
0,476628242279059
0,480867573116017
0,467500298270063
0,481074125470241
0,459409717887529
0,467508660964167
0,451648132691263
0,459162996923409
0,441091070424601
0,449017340237468
0,435347396461527
0,44484762171232
0,419242612368346
0,479524326182398
0,469606884348501
0,432255490231934
0,42656144431904
0,416577975316667
0,416463366962709
0,404641797365416
0,431409143539355
0,446575442401214
0,402332412070707
0,403251117836116
0,394214856683452
0,410196117371237
0,410800639508362
0,3894703941051
0,396408861793447
0,376294672739584
0,38808948142566
0,495107377581919
0,393931624754635
0,475870101536195
0,398725666013828
0,377845823782034
0,381453512337604
0,422031081238884
0,368395617321758
0,372836602544581
0,363334836650399
0,400407605344117
0,380986102835323
0,355637983877319
0,357934537818611
0,351145679095165
0,36627643000281
0,384735611149016
0,354703779957745
0,362352180917078
0,394132013016133
0,364873766459737
0,378169686536234
0,414738762744434
0,369599166729606
0,343728189308855
0,336702207193668
0,33987663550869
0,319481922983114
0,398951081950151
0,345607634227662
0,349988374216373
0,336283652617417
0,322634943971004
0,339718320749705
0,341735041154194
0,338516762345286
0,313814247776857
0,359134601834038
0,322624477054963
0,324478146490903
0,34795193602329
0,345225339921663
0,386468455372708
0,328544719493465
0,315581217381755
0,335426414178514
0,364594409628484
0,3207382223234
0,334094474337172
0,307347795344766
0,307797879901334
0,337709366480738
0,310982599524106
0,321290787292826
0,329591102612418
0,3202927765982
0,358753597922725
0,352564917381743
0,366601270924223
0,325204555924983
0,301357523896514
0,300445005757257
0,312038977988873
0,3028240238884
0,30059013567706
0,315203345785379
0,322077930867132
0,283241288736704
0,355151311121944
0,314144329959267
0,300380599552828
0,30525894264455
0,302473793529033
0,298605453239274
0,327565771401795
0,341956724789017
0,336281621724725
0,306094410882156
0,338478258965149
0,306860005261433
0,311739415244577
0,298161202895601
0,308253334097166
0,304207464644653
0,322762917653524
0,312428056035356
0,316519335011807
0,317611454616633
0,324331346416873
0,32295077591613
0,364057720433211
0,319516052948181
0,358883791319059
0,353893278981062
0,390913065065891
0,358114136770929
0,340746644323366
0,341330014889499
0,341071964472394
0,352762392232499
0,35579321279138
0,354002506502417
0,392968336275968
0,3609046592542
0,36808959929959
0,361961724360784
0,369577670070385
0,368261903860909
0,39399836866216
0,394655829671827
0,403440049763943
0,440781910591382
0,390203734928461
0,391251378894188
0,375592166088145
0,382244275737959
0,385648750902998
0,372212609646122
0,378079569976261
0,361452036820651
0,400692055903454
0,389661162643111
0,377015031170026
0,380686674241998
0,376990470180465
0,385245044500774
0,382241118747614
0,386286911907181
0,389634592227144
0,385373427768398
0,390698429752294
0,363290064197516
0,461286906459529
0,414849851613464
0,385685879604784
0,398217953966333
0,392556307125525
0,39840077901173
0,392505534327734
0,40631523582208
0,412411793183887
0,40590981551261
0,4068180992048
0,39599652722704
0,398165229650121
0,408598021014157
0,434183995307433
0,402191619445521
0,399380214171618
0,400807078950247
0,394206044582269
0,469591371893094
0,41517757280236
0,425145220351875
0,410251792559497
0,415506024776264
0,405069569174379
0,409455406736062
0,399225358000977
0,40729580676586
0,405627420933573
0,403465754886911
0,404515381055536
0,404030688772926
0,406519332761369
0,394601756981996
0,423054214034387
0,41064249087359
0,400220727679654
0,398703346970223
0,394618887291869
0,391886731180747
0,409253726459079
0,422983614065176
0,395292632265881
0,399898130260205
0,395626532039589
0,403958686403445
0,411194509670665
0,394585136445821
0,39004110170181
0,396586884973235
0,391825958362397
0,394186480486602
0,386454467960245
0,432495339726811
0,407457516333379
0,402150308792028
0,40013236090363
0,399266457683528
0,401265789266997
0,406991464147033
0,41038164017395
0,408940891657721
0,413929303587737
0,414518513839223
0,417951874457177
0,416285770570218
0,432464952196545
0,426834127221321
0,435640240696833
0,427675038810602
0,420445971386308
0,424011788889421
0,415383443923559
0,429152739569401
0,423281486682605
0,42262575880225
0,416504716346954
0,425681041323105
0,412114484625706
0,442220308363083
0,422487260412254
0,412601761427885
0,424802119422313
0,407898983215233
0,414506126686349
0,410843208516245
0,41543848530989
0,40746899811208
0,418872757279221
0,407373483217117
0,406863810719559
0,407925313986125
0,407023981844303
0,403782248259296
0,408414098755216
0,403207803457314
0,403879740145692
0,400132441732465
0,399544639328825
0,396485725802556
0,401504997465767
0,398180160530987
0,396142988227549
0,40094018386132
0,414854104876498
0,408883222371364
0,409469368716661
0,397781257855506
0,405635453790243
0,3859542145456
0,402111061493307
0,390910732734629
0,395021180430609
0,389282858946463
0,39003497299797
0,393213936111068
0,389686481868624
0,387375100048851
0,387604706346883
0,378654975919737
0,384494705820794
0,384450425728303
0,384817074003566
0,381247300458026
0,382085073700584
0,383152546476185
0,387156479818691
0,381527345870767
0,375481311750367
0,383346998182899
0,379367868167628
0,383571701818051
0,382162368537765
0,377835186991467
0,381199320268312
0,37379715060774
0,369345007301727
0,372996085670893
0,382245371423844
0,369566246912665
0,3748923630303
0,372852504478131
0,373206712945299
0,372190100183132
0,369161010103685
0,365754427505868
0,368762119290273
0,368797662535872
0,361621222127683
0,365456173037938
0,364765378123772
0,358950685730652
0,360676853097618
0,36238286397944
0,357886288102612
0,356330777580676
0,357043867427819
0,354291744674019
0,356503332537323
0,355863537274569
0,359907779992326
0,355683252301315
0,358716480714069
0,354252078260781
0,351797931517957
0,351385798145985
0,355036018481891
0,347906063443487
0,351659807016011
0,351227142422427
0,352162744667864
0,352870607860182
0,351605389594093
0,352397871292116
0,355418164270706
0,355344588647945
0,350921876234417
0,357253295321715
0,357670539286966
0,355597872432369
0,356263415672779
0,352058939643066
0,355042383002572
0,362029859336114
0,361362546699571
0,357110071533495
0,357912841096414
0,356546395375901
0,360956196936138
0,361401508064055
0,360066627560099
0,355908935409508
0,358271220060419
0,359905681264871
0,360901391126927
0,359485567293687
0,362206193265159
0,360022035270245
0,358598169929442
0,356313249247515
0,35587127903604
0,354723320043345
0,357232377690437
0,353259753326469
0,353568522629977
0,353402855358985
0,354781585744392
0,356812005132638
0,36129156037036
0,355397467673111
0,352119112733142
0,350520255772231
0,353241249295799
0,350133448916585
0,348529225012431
0,350999041148129
0,349966365349031
0,350183328770434
0,349759269012924
0,348030349838759
0,347717253049484
0,344984430256763
0,346232259209627
0,3464823244821
0,340231578132204
0,337517057569735
0,3416354281315
0,340768571972799
0,340167479790887
0,336836823170238
0,332929457795209
0,334270912839359
0,336626395877976
0,331555088888146
0,331566037064533
0,333608876812692
0,329245601299554
0,331675734056623
0,332529665935358
0,32715080221746
0,328670124566376
0,329836289857588
0,329420545722279
0,328262577938341
0,33029100511922
0,329351311001698
0,328532366932221
0,32807341354729
0,326532613012268
0,327845220029961
0,327939860577793
0,326984777333936
0,326855780058633
0,325150862735786
0,324006742647041
0,320912324362523
0,320076045803918
0,319516207899652
0,319077797327469
0,316265910177147
0,317872128858789
0,315115268021629
0,310948783857275
0,307761033650956
0,309841697579637
0,307075033580327
0,304049959494451
0,305051450002229
0,304946394947443
0,305480514990016
0,307917394791554
0,30366569001668
0,307462198057613
0,306755317620858
0,309116064604689
0,313884316118844
0,315913739869299
0,319359311336362
0,322196128342495
0,325493094914085
0,331476276700132
0,336626065665559
0,343105952460143
0,349503344907357
0,35587603167658
0,366517632735897
0,373263857724183
0,381104089124077
0,391965723199354
0,401535828392003
0,40971789070035
0,424001331783323
0,438019259399223
0,449713636999706
0,463378564579716
0,479609670986359
0,485799673303244
0,499453626425095
0,515435405187256
0,52933769908219
0,532268611187863
0,544027943655917
0,557613532761385
0,562239550338867
0,565201779065836
0,571473121391718
0,574181564479619
0,574848649646752
0,576693140674559
0,573222046096476
0,56565224488854
0,56442989666328
0,564541962855271
0,555839827568386
0,544204156587895
0,543361402899205
0,536793337300804
0,532026708920726
0,527013022197022
0,52071692697294
0,515982296593054
0,513918873344813
0,5102793246233
0,512329423010894
0,508523444611416
0,510522957467488
0,513045395626024
0,511256368561046
0,519770374115335
0,522102597717406
0,52221528644979
0,524833395990891
0,531305021518099
0,53641785535558
0,544931558381651
0,548525650090445
0,549498760325193
0,559947501420256
0,564997802684751
0,571675580710316
0,574876961799001
0,579111049623136
0,580323937183234
0,577919344022056
0,582166016951154
0,581591988087028
0,586981189436235
0,58612209125537
0,583874166205355
0,588169190948055
0,588056398212375
0,587898094970636
0,583997770801173
0,590472730678612
0,59268840335489
0,596400817343824
0,598652854028148
0,596995180560077
0,606056259641262
0,610801044623811
0,612804692370418
0,616235774310663
0,623365795113935
0,621170379206803
0,626324122491897
0,620192774436455
0,624983794575876
0,632977374234887
0,63448978901811
0,636597281769149
0,645815117309951
0,659193391438697
0,666289572950552
0,672908527236942
0,681503656134156
0,695615332889395
0,717056075332246
0,730659763204983
0,752215311713031
0,777695742798288
0,798337448112803
0,810493009419889
0,815811633518838
0,833345170703961
0,845841290733114
0,851358023531999
0,840106515174406
0,842955792924724
0,845353721486308
0,832053666770437
0,832002421541436
0,829086381782069
0,819412605350141
0,818594248626468
0,808205524016111
0,791995650895184
0,790006168773691
0,78515120961841
0,774295534575631
0,774318050782985
0,775667830361875
0,770697895601145
0,770956879264592
0,782830738375785
0,786644620560976
0,787534621038216
0,800023761010211
0,8047807477228
0,813030871637504
0,815935992232525
0,818667907126359
0,841274209974653
0,845391076699132
0,855052984988193
0,874466445483443
0,87671482832801
0,890064760136524
0,889433296877695
0,900323059287271
0,911354005567613
0,924033559020891
0,936736027054397
0,931877653256035
0,9557630629748
0,965927788621233
0,964544106454044
0,986279712768243
0,981396358994723
0,992306062920696
0,997788830701488
0,997111158318812
1,01547056014484
1,02355893341378
1,04728529523974
1,03523623387654
1,03523233632047
1,04796766943805
1,03906980935909
1,04686609371834
1,06222187443115
1,07222256208046
1,06474170275865
1,07152275081096
1,07999991988522
1,0788767128407
1,07644197198804
1,07770816296219
1,08685666008162
1,06751204060273
1,04736219166546
1,04266028916694
1,03701901306798
1,0148674872277
0,997337723340552
0,972552875800736
0,946223752676324
0,937744187133281
0,921795489633447
0,899425364227922
0,873659466383195
0,855718787295636
0,849922748284176
0,817586921222845
0,805073559927801
0,809873904920158
0,804190308381165
0,789566374533827
0,780966208797665
0,776948712140015
0,770794565981243
0,761459600395762
0,754292173823376
0,748589863988227
0,738817734503409
0,732186451554151
0,724652260164781
0,71109375552218
0,705283160172484
0,684268197847544
0,680178027459252
0,670256050323138
0,657940833049993
0,642089194045685
0,622172584095837
0,609622390342897
0,59243473653608
0,570089394247911
0,559992993744374
0,556666120430548
0,537582416412992
0,520776849084535
0,519308627806077
0,510271869328527
0,496383173775208
0,48640262608502
0,475961612061002
0,475450288009324
0,47020676062281
0,458992051001955
0,458263442101069
0,456325701698506
0,449048751482612
0,448223599026359
0,44272269135722
0,443321188397684
0,443782155511764
0,433716311997604
0,435566089807272
0,434630437875242
0,437776141949627
0,438901111081608
0,436417091987448
0,430729972772036
0,432518786055207
0,429697013259511
0,43806733473017
0,433279203435421
0,438024018884951
0,440911680649409
0,435138190285872
0,440069204925302
0,44652830535953
0,445794777185511
0,446318841979943
0,449022726653269
0,448228251982504
0,454240262769649
0,456624858727184
0,452437373921124
0,455976115754598
0,464017176459278
0,466003843805047
0,472293566266441
0,473165517491677
0,473099330156695
0,48189352324842
0,478654936665522
0,478536433719704
0,477026612879158
0,489134344223725
0,489792043169682
0,487613608870228
0,48968720923762
0,497616161275915
0,494471461984425
0,501606229836206
0,504984730046863
0,507256463592964
0,507042554619716
0,509841160381369
0,51346063987159
0,515082302649586
0,51285624226452
0,51217692884003
0,511938204332135
0,517868294849145
0,524665738110887
0,534997162419949
0,525246230654933
0,5215050654582
0,530843923535087
0,533244807445295
0,528107297384334
0,523009226452974
0,531131917134067
0,53305103422258
0,529821798885739
0,532880083159753
0,534927547440065
0,545581014370863
0,541195492789319
0,55319367809123
0,550797435888083
0,550083864559094
0,557493586875727
0,560996369462188
0,558931226867616
0,563592058445148
0,57749868530918
0,58735642572223
0,596647529406059
0,602353132723981
0,585540873557236
0,591509679059164
0,601868886870501
0,59063460850475
0,598078372618427
0,603917421990389
0,596054106388349
0,60212210848718
0,616425188091244
0,606104552665326
0,615815599807337
0,616674267947389
0,608925390255563
0,615808211919297
0,626819911642715
0,623375657446876
0,619365288203124
0,633757074438204
0,617135969323069
0,630986389276979
0,641711015789393
0,638891365516138
0,659150282401352
0,660752830772829
0,655388968115152
0,664974357181928
0,651942880606248
0,663561110512979
0,672931124767641
0,676847768117538
0,67883011361444
0,683167220136959
0,688786842611274
0,708250509226657
0,695689887826124
0,690913088881089
0,698753401434771
0,697499437768656
0,712830112378331
0,730268845354354
0,712942030585914
0,725664321723136
0,746309081183398
0,74746470660789
0,743165178650188
0,739817228657457
0,750358142119123
0,745871888186599
0,748807292242836
0,756202636197281
0,756545194742582
0,761428436619819
0,755314710240823
0,782151831222558
0,793125739576979
0,777829956718063
0,77299124141962
0,792835191851754
0,792394806249838
0,790596297885048
0,804356459963996
0,814873273067433
0,799995279925005
0,787847407009248
0,812620608027174
0,798401161150629
0,807881418418967
0,840887410653733
0,828478642704205
0,80728162259113
0,837228140306772
0,85980970610009
0,824539986875241
0,823012164604904
0,824018730422638
0,824986888887305
0,877238804442124
0,898300670480387
0,882498096511762
0,865852992272497
0,882827046370949
0,860444787020819
0,873571045554535
0,893580400949094
0,881835038022702
0,8849666133997
0,916523722349953
0,893074685147412
0,909047461031795
0,952804022565532
0,907865295929895
0,922994281739123
0,940924592011164
0,992358296239214
0,91470900186556
0,9304935780198
0,960352662748368
0,974451179226116
0,926103970561995
0,926904778674189
0,995532419834802
0,97150800415629
0,964892128133322
0,961490998921292
1,03291316477583
1,023688722781
1,07448524482351
1,03126827306227
1,03283776102038
1,07234528682803
1,05579452038277
1,06282572233184
0,988761573382323
0,947850812472817
1,01273438909905
1,06903417992985
1,09627424145745
1,07604671907373
1,07516671661642
1,12593211377874
1,13089475241095
1,04385172747259
1,04771866898323
1,10473083661537
1,16819589760064
1,15744124823757
1,12223942585106
1,13430039892508
1,23546024888232
1,19322163143786
1,08847884369439
1,15726076401539
1,17046775580898
1,06700032007234
1,2185589226122
1,24225492229132
1,27689435566767
1,20907806055288
1,13296119730786
1,11581627446565
1,14499588218236
1,14281083545627
1,20141973314746
1,26388554485594
1,27503387012263
1,21984486613416
1,36107665740132
1,22737068616459
1,23702045751622
1,2744516724072
1,19231063594992
1,22486606129988
1,53401368485036
1,25558628951178
1,30728495546552
1,21281209837848
1,22284407095142
1,23667469078145
1,27283210584302
1,40860746141433
1,15715747433587
1,27498284562404
1,57497599585812
1,26696485854946
1,2193767584252
1,30237944944999
1,52917849906288
1,29348901316541
1,3861585805501
1,19947509104805
1,13327748491388
1,1950323038726
1,08288314456347
1,20780371457968
1,59308994208361
1,10468146827676
1,30279362966365
1,2786716492248
1,27890703955489
1,46206025254467
1,7834917373474
1,16681363936148
1,15922278636837
1,31670485320429
1,41000337561736
1,33901490095688
2,16387784646711
1,43094709033916
1,29123295002911
1,48070154337592
1,40991586190736
1,46738570107627
1,64572822552698
1,35775981722609
1,44116061070882
1,62466425983954
1,39318642466422
1,37112756870948
1,53985603063302
1,48639264442401
2,47131093596583
1,28834032158141
1,32858071714584
1,50716237692038
1,67033906383783
1,3189675125048
1,46915127055014
1,3987053624551
2,16654249976113
1,74097652332541
1,59726619479427
1,99231468204624
2,31099972989451
1,31062994739581
1,4375190833756
5
5
1,20514337923501
1,23942569329825
1,34878625839769
5
1,88456022806739
1,45332941685826
5
2,21241205499017
2,36362379287159
1,63828212603974
1,18508925717943
1,94288071982871
1,47170903527126
1,5450715872289
1,16601765907058
1,35718316955287
1,45271621028903
5
1,00836923973552
1,48227221760071
1,18340801026289
1,4740957507257
1,86009039585074
1,15284556036893
5
5
0,435418620987074
1,27863864167354
1,23442065236199
1,12510596279104
1,74372710675311
5
1,09450847423559
1,2068890891968
1,69864248073177
5
1,19113540945493
0,815023286706181
1,06801920478094
0,59799083293829
5
0,983041320721401
1,22421613711311
5
5
5
