3596
4000,36533379555
650,420452594757
1
2
2
0,0866595989369527
0,0878655076517417
0,0871389298517493
0,092815822807624
0,091728383043914
0,094021643049856
0,0799220028821748
0,0901935267825926
0,0833602371556273
0,0863938314846835
0,0870736370722996
0,0987023147971236
0,0851734237182713
0,0897950354283088
0,0833552979928936
0,079257557122349
0,0867611349523474
0,0881999140207983
0,0870032283854443
0,0794456065874914
0,0915427287643842
0,0845003964545149
0,0813161883032426
0,0946203729729421
0,0881891501437245
0,0753702151013287
0,0842714836914723
0,0801754364073844
0,0790344437252596
0,0855370231671422
0,0786824433541749
0,0869080152244222
0,0942899612366354
0,0856687490955043
0,0849553043722471
0,0929188342149366
0,0882926743029733
0,0910142981312381
0,0866926399840419
0,101858958883328
0,0915448873710365
0,0859271612859003
0,0933717703737601
0,0936339111566625
0,0872217510807639
0,0872144840302259
0,0864486219703541
0,0881800206075253
0,082424219009467
0,0905836749782551
0,0911069616449446
0,0906781094925658
0,0915077107134996
0,0998395681875891
0,0858835619859671
0,091260702720908
0,0909947184072984
0,0890005889109445
0,0859440570873259
0,080153240152613
0,0939206872573258
0,0942235132524476
0,0904419723293668
0,0835189162604096
0,0871313544629429
0,0888108813373857
0,0946746713967525
0,0870969188475353
0,0945520389333106
0,084651573730468
0,0844631076565324
0,101163818334919
0,0986044790004589
0,0920757904280105
0,0943598888234496
0,0950098743964897
0,0843107174921865
0,0827700780973933
0,0761205841352463
0,0892881560605959
0,0965238663432981
0,0831412546444734
0,0869827838413532
0,0709624100111743
0,0880021739784396
0,102561909503313
0,0769700336428316
0,0860095915378739
0,101464500145398
0,0860851540515808
0,080193538168198
0,0798861440911508
0,0797528723507257
0,0852360416082791
0,079519206394862
0,0843137361832695
0,0806698214019848
0,0817494589187959
0,0853295398103018
0,0859382174175074
0,084102644416547
0,115013104527328
0,112199215485466
0,0938142038689868
0,108607748858199
0,11100810968353
0,0827309508895991
0,12031090299194
0,105659432742426
0,0826208732940541
0,0841235178163078
0,0827705508287623
0,0965647875465896
0,082446656092193
0,074579620464178
0,085328258172446
0,110352488307367
0,100594172389241
0,0885169941112724
0,0789074901404406
0,0664857916953241
0,109856028970039
0,114287788180169
0,0952028953165479
0,0833525801827363
0,0836819535528856
0,0840020121931461
0,123197486618709
0,11444639476798
0,0906475789364888
0,0802846897022084
0,0848131505358808
0,0646758534250884
0,0801386560470493
0,106490703406856
0,0911698528433294
0,0741882255041237
0,0790825339473408
0,0830475382001701
0,139383249710105
0,106771089155203
0,0839666705283693
0,0735346706059637
0,0858667320812951
0,11621120855773
0,0962891059040561
0,0767403767500176
0,102684855985438
0,0935856792613023
0,0878974459318974
0,076233219963443
0,0728387740696383
0,0898122285894439
0,0826911888804897
0,052434564490682
0,10314004532568
0,125529033339358
0,144496485989751
0,131624694174611
0,10329891287656
0,0853139871384966
0,105254076825754
0,0815456631512386
0,0795768588904891
0,0793079190796295
0,0785136203888695
0,0967797719225146
0,106334203065824
0,0776248992565179
0,0913968670477531
0,121616306419328
0,087702882706995
0,0698059320278743
0,130357402985996
0,10454560765615
0,0838750745679977
0,121871956290196
0,0946235959975336
0,0676709624468934
0,0927352192819663
0,107683538452427
0,0932471486366316
0,0842809247325186
0,0859710829154075
0,0764556570435457
0,101624463963073
0,0866859513665377
0,0923688783900266
0,083574672976616
0,0682502263722833
0,0825715641653826
0,139668800731455
0,110769266065653
0,109685852727049
0,0780294399741908
0,0693996649691303
0,0955498550529589
0,12284863607448
0,0832187393933892
0,0771004701138822
0,0806957460651578
0,0821527671469495
0,0788334782042175
0,0930587306837372
0,0631003172477369
0,0702021607096399
0,118688888635705
0,120081502087236
0,085462071139113
0,0892977607735339
0,0748218311052067
0,0650281573118777
0,122689560480096
0,122331037556329
0,0877161675479944
0,08282658014548
0,0812429597411766
0,107077171421825
0,0981786430170846
0,0846359289215774
0,0841519175050791
0,0827759083291829
0,0775214679683015
0,0851263025587853
0,0908494312275377
0,0856266021004734
0,083552731859136
0,0907320413439359
0,0878729653956947
0,0895325495418593
0,0982795063137327
0,0907052058525198
0,0862504451088958
0,0915592077649529
0,0786999137335919
0,0941044251492005
0,105686688666188
0,0982041346223564
0,0867942729048444
0,0959747667353623
0,0807845587729769
0,0904305530852217
0,0839332409837265
0,0920926842807041
0,0652154150214994
0,0886083298973044
0,119396486956388
0,11347131521164
0,0742273930628947
0,0816943310401045
0,100506216506794
0,0994368439022977
0,0834741174964598
0,089385398481206
0,0946379802279261
0,0794875100498687
0,0797234229474085
0,116388880465053
0,0971368381821003
0,0876585784571607
0,102586879744582
0,0996833749284928
0,0965821095801451
0,0704267513522406
0,0766033396700558
0,157153463631343
0,105592209511447
0,0938765531700757
0,13680093645182
0,114411970380043
0,0976730126143586
0,0801530792198005
0,0596225669885647
0,172086438992591
0,167795160227088
0,0954550747401487
0,100184507230733
0,0999991444115148
0,0878456608182533
0,0909973289751397
0,0928687753115619
0,110256060857514
0,113264321593745
0,153720545082343
0,133442926100727
0,0896724729998725
0,105068783455698
0,111967011176973
0,102999120021889
0,0987203015739621
0,0861642178786907
0,0881844822636517
0,107345633803516
0,110183576845136
0,116757595164339
0,0995762904880694
0,102068685277366
0,115737812763613
0,119096103671835
0,0904750910144009
0,102956619377184
0,105519019398447
0,1009022907675
0,0996724467079646
0,106601074276447
0,113320760930094
0,0859379688896993
0,0915843005559538
0,162239676386086
0,121214618719203
0,112070283741309
0,138954476718333
0,113218477465402
0,103553769804225
0,100237177307735
0,106087141149019
0,112609850209569
0,0909893264787129
0,102557470463525
0,122871713224298
0,121410508657348
0,10594005398526
0,112116271918297
0,110153681449041
0,112645995865721
0,112334953203812
0,107011670369279
0,111637749321894
0,11045101631522
0,107225216292396
0,133742983877438
0,145379042623169
0,11611121251493
0,146796395571007
0,157936873740072
0,127785757593203
0,12648368097643
0,132951292912353
0,128812296299163
0,128387087055919
0,127294486472977
0,122690494737477
0,140161891665825
0,14806262504195
0,142553656999415
0,136967651788903
0,139360348256584
0,192806864730529
0,210515068644694
0,180994566590728
0,146949062135226
0,128695032163912
0,171694051383113
0,179887469652739
0,189875754522956
0,192743404735292
0,175146156868127
0,171378514696314
0,174384331066829
0,175027719373284
0,184443553930239
0,17300688418929
0,183901209892685
0,183588928434238
0,192526438172242
0,188798727188506
0,185314414384374
0,189757178457894
0,240828461928999
0,215226537979916
0,215446572281423
0,212996317659809
0,203580104252691
0,236543784699596
0,247277733944818
0,275798056799107
0,259007727459452
0,265900853805413
0,285019123000409
0,250813735108594
0,246432190509102
0,239193374565634
0,250184102110558
0,253622407719254
0,264323160870176
0,261555342973495
0,270978782894393
0,275980423841524
0,279832695762655
0,278968849793675
0,28329298524959
0,289895795337739
0,324219200061035
0,299043279539093
0,302121166131591
0,292593911714731
0,304752692863011
0,384153149712955
0,370212097792729
0,332534010952351
0,333332466421379
0,333663210281775
0,3385000298886
0,320538704353726
0,333438166614071
0,348931932184122
0,351993771602461
0,381254557212742
0,381677637867354
0,391117785679086
0,386994566033796
0,361812867116502
0,396133748021716
0,384800029691155
0,388813629487294
0,418777365853671
0,402707587129013
0,379206238250491
0,450957050392591
0,41974435012691
0,453539746440487
0,42787220752639
0,429789091596585
0,407506072966225
0,428793473861982
0,438148063534118
0,454939093922635
0,448808838247116
0,446044522683013
0,443060901852825
0,448938072051027
0,44484893841448
0,464183410692243
0,482397083385718
0,492152281422616
0,485541794225661
0,49682294779579
0,480798624582817
0,498730801232479
0,48363052746564
0,526902506900354
0,535879200676346
0,548775358195022
0,54381864442063
0,525068613000299
0,494552928539603
0,527034948083595
0,524921374193222
0,530321944449678
0,533838843366465
0,558588054056752
0,552634055599271
0,592560480511137
0,565507884174321
0,563618364761809
0,558125092675502
0,603568178519262
0,58788401830721
0,619574449996469
0,59706641307307
0,614634534917377
0,604138950365598
0,663693529037231
0,652148556115442
0,633511488723101
0,635698296743969
0,637791344995106
0,623719078338766
0,641183193446425
0,644199713964725
0,672058556847758
0,624689066952385
0,683061856143412
0,66108896654891
0,660731929921782
0,665035219880658
0,694765769733776
0,69303029904726
0,727009062187729
0,668372610150475
0,708364971345271
0,657662836519852
0,737105500125946
0,693542047758245
0,766391683808534
0,701455910343482
0,784610954800126
0,701755240733285
0,752395260552181
0,737904375795174
0,800671890885708
0,711923145974508
0,818526064472855
0,744769569159811
0,809431475897845
0,743038904840206
0,855354481070405
0,743292164600788
0,843338770961408
0,803873825586897
0,896644306978202
0,789745445604916
0,858251527938327
0,788453533720958
0,86782643052745
0,822863187783603
0,850241050862557
0,795550595826343
0,870824649351199
0,811988660183152
0,852103016939938
0,887782511363209
0,942262463332817
0,809140908296116
0,919283845740459
0,808903885444435
0,968012857585448
0,852625878512495
0,891666064465565
0,851458305790277
0,914130818180304
0,868479757735563
0,939979906788263
0,899027979839226
0,938638169455778
0,863916440392845
0,984292274626955
0,893745139856709
0,996075404850318
0,867007714611555
1,0240964912129
0,909652725332752
0,984678738467139
0,954357226823463
1,06814205827604
0,896929692983668
1,0834132937035
0,970409554448276
0,993902336138691
0,978141096262902
1,06977346223869
0,910124615805274
1,049968971008
1,01658895456951
1,0082005157875
1,05466139341253
1,11224916216248
0,960757974848694
1,14015459136118
1,01014259006066
1,01363990241291
1,03008837995101
1,07562111757491
1,08161926654237
1,23925345437972
1,06318887148205
1,17040723835459
1,04767599803437
1,08387394017007
1,04382984245875
1,12739503339909
1,08170967424789
1,20839241175448
1,08963317332457
1,10467746526613
1,06534925567504
1,09419853477437
1,07332009349977
1,1356794265935
1,03843351385594
1,18716753478901
1,10910703354871
1,33936513435761
1,09594935604089
1,22864561768578
1,11203180199108
1,28431465029218
1,28797390943767
1,21942659792891
1,14730751996564
1,31283988527588
1,16787331145578
1,22446833779149
1,20937345594742
1,27898254022121
1,14983061640548
1,29920530572293
1,20959740913346
1,18680714971289
1,10415132777161
1,25381980868469
1,12648978474301
1,29223820990902
1,21105331507722
1,4222293246815
1,36806311319607
1,37703602490838
1,22132102838487
1,44715873132555
1,20295316486959
1,41294179621273
1,29049243601248
1,40464158836667
1,11033254313586
1,30662163282753
1,17770989700933
1,57512649311542
1,20921684327268
1,33928811956823
1,22896047096975
1,39338765495877
1,36979145833004
1,85915725693972
1,21542312409588
1,46989409324631
1,4065245954498
1,42195170783068
1,29321835138443
1,51410223978884
1,31478815035179
1,55347991671567
1,35470503857099
1,33356714774338
1,18344070309833
1,51655129004873
1,27002215019858
1,65973685440124
1,18380341542653
1,95196330036496
1,35501596507111
1,40106806888928
1,31380806258891
1,54951957973066
1,25224805986524
1,53609196456484
1,56552740547528
1,29042070517238
1,4641806363178
1,62166476335811
1,40579829655289
1,41765901446598
1,44758885493308
1,42481040681868
1,38910096820657
1,64281225399916
1,4498845408202
1,53545701524956
1,35408773253686
1,42257854715651
1,51532325695672
1,62901892319846
1,34826369450155
1,43888029172747
1,4308077546975
1,94170149085682
1,38851083859791
1,79238813723628
1,53169755586861
1,57666537892896
1,42071428203395
1,39387460491514
1,50802307355465
1,41329775875105
1,57149723260756
1,64760885136634
1,56549869541856
1,61958260719747
1,4039244737453
1,51465579720864
1,36310833776382
1,65918194875558
1,71721109646555
1,67560634334535
1,41008321560448
1,80459486413255
1,42567326062675
2,02947751238007
1,54601330800117
1,59443283746933
1,47829508442129
1,80155240690075
1,55359287262565
1,64935981922212
1,46482553986436
1,61003486041308
1,60485772922219
1,94287059646381
1,83616513173271
1,47101292820568
1,48226837825284
1,9356461061408
1,395829662563
2,01556130320172
1,50364871376482
2,27572230513927
1,53153916400245
1,59649923539881
1,57622525693755
1,6177978413479
1,41906131816091
1,70135511861407
1,45454011018682
2,11521820117758
1,37595644954102
1,85208757584671
1,46628942301677
2,11269765135228
1,49576048144037
1,83778786541572
1,66633033535607
1,7015221407831
1,5453471900808
1,6859065880757
1,66904715913954
2,13623579561599
1,62021750845645
1,65465810456927
1,52692317872204
1,66685610126095
1,64375424038636
1,8153433141397
1,42361566458211
1,72810213713047
1,46760098166752
1,65874406345903
1,6106024815575
1,71334910185697
1,60390020195507
1,54625616113234
1,71621198981971
1,67864677383582
1,47446903096695
1,72672324425575
1,52350446692669
1,74764582208689
1,43037074717608
1,64839745693216
1,44201861434291
1,59328972050001
1,71399521431968
1,75602920777718
1,61421919022278
1,69559441555674
1,63281368307978
1,70827560897809
1,4769751632534
1,71366011157663
1,53547440507574
1,58028230532303
1,52724251855783
1,63714770557574
1,59859139471653
1,61473087412018
1,65457271472304
1,67442414345034
1,55892260715326
1,87978089400459
1,68056908313545
1,74543530866429
1,58331287805291
1,7097720981283
1,56633732093214
1,64389265431878
1,71789697586473
1,88427079392807
1,64900537842039
1,62547116221491
1,57469380169911
1,53137532575753
1,63892160061651
1,53862970482422
1,66427352112595
1,54779346689779
1,51244662650097
1,84627277615007
1,5164792249789
1,57411582969085
1,72072918928627
1,77602827741023
1,41581963135283
1,71834529924854
1,55343546112023
1,58991860683872
1,73544144802255
1,68906162092586
1,46563920963131
1,90112803382229
1,63089295715433
1,601475573419
1,61067778661926
1,64111666822683
1,82193868057971
1,66143242635107
1,58942540553359
1,80364799029707
1,43589323376152
1,69469241419264
1,48483216414333
1,61905095369712
1,41025605876629
2,07605947897654
1,70556054557057
1,68093534132378
1,50526222408445
1,6123122711969
1,44726123651991
1,98011033623241
1,63750780835325
1,53201124192541
1,4732752828121
1,63544987878761
1,44168638876023
1,58999280499799
1,57786968745865
1,99816534052171
1,51301648332293
1,65227992032158
1,53790224487307
1,65586841941118
1,46975710868974
1,61825209301299
1,57898226622577
1,8328168519246
1,40005046030165
1,48534440220172
1,5362100684365
1,64419925883824
1,71502099937006
1,81817040712431
1,50493578449165
1,68183624412406
1,74161930127542
1,51915226336378
1,51009248063458
1,58877253909164
1,4325791229608
1,50298318191866
1,42570465830216
1,59570742394674
1,47499519597909
1,69281586003528
1,55704465569912
1,65465197619924
1,45884367720779
1,45170039461676
1,44270012102007
1,90177412216527
1,45552754735037
1,50609679274212
1,59124403296079
1,46984588285792
1,40811084461543
1,43479896535294
1,46157400345826
1,51081314649314
1,4885785586413
1,77438439841788
1,52531194381674
1,45316005460618
1,35678804775949
1,61196490534813
1,54056755928697
1,51206617855157
1,35262120150345
1,51512843722521
1,44644698391174
1,53821299165832
1,32918787300752
1,55801701197648
1,41062283085177
1,46393338938975
1,42858901715712
1,46980669225106
1,38852130783179
1,51759520409482
1,29966812127084
1,39366144454456
1,32614483711347
1,49596416450839
1,35335497077657
1,46164244290127
1,4252014090026
1,43618795868019
1,35788109544775
1,3416823193054
1,25820593353334
1,36803673358481
1,27206842759704
1,40003630254686
1,2505922505003
1,36798702444916
1,45762018880014
1,45659672114908
1,24848468372255
1,25332179769781
1,30137369858577
1,29362640643959
1,2075016585819
1,26259714649279
1,21916927419432
1,25804157887389
1,30646871525196
1,36710294784055
1,25799274686062
1,35800240554945
1,18971597670777
1,27511360942609
1,2160256893012
1,23857688342627
1,20601484863605
1,24003704115454
1,18928079699398
1,21415011677794
1,18676814918665
1,187753265868
1,13472094620764
1,19654254724571
1,17334219868079
1,1852990428716
1,15717393739791
1,16732607560868
1,10790671458167
1,10392781386112
1,11990868397151
1,14780808296098
1,0928079884139
1,14413264085907
1,13981484948885
1,09796741210446
1,0959004766501
1,14011667466021
1,04830391158684
1,08402669932473
1,02310939368982
1,13277248622477
1,04548476382805
1,08374842589834
1,02446050788453
1,07090014547416
1,03752785647404
1,040512987075
1,05022987068441
0,999019823437203
1,04168315471601
1,05081343710696
0,977101386964386
1,02686923688884
0,98772541460994
1,03734694168237
0,980730723867551
1,00020013527266
0,978493900636146
0,99203343596413
0,962333999176648
0,984989853355244
0,960711331155637
0,959643511800571
0,947566359566775
0,94016223963236
0,945325841569768
0,942812079452115
0,932904533968035
0,963836436577831
0,915703895050289
0,90658681650332
0,923181998287556
0,903079803317244
0,917573759911468
0,909801523605804
0,894555262172784
0,919947069384153
0,841417357473311
0,886958029134261
0,878146413602044
0,857179122488588
0,830078415486255
0,851779669603505
0,838090506425703
0,841896569914633
0,836070147350108
0,85627654663463
0,821413032037804
0,831687464663501
0,828876187500248
0,820226813854924
0,806362953744301
0,814867050270755
0,779242468792398
0,804391249279397
0,795046983657207
0,787441694622179
0,759805246643431
0,80369480934135
0,783532242468634
0,790877592678477
0,773820555664168
0,753332243493883
0,746599169618454
0,751188858724835
0,729879394805439
0,744959737152362
0,744599392902171
0,748745358262556
0,734815356906641
0,722684351853644
0,73583225648665
0,735039712361983
0,715159435238389
0,716721647082138
0,68672597311566
0,698984519524615
0,705046889135778
0,679116892759367
0,683598642000741
0,698754756930942
0,672047884975253
0,676767225572118
0,66712728442592
0,658536352590693
0,653636718182097
0,657276085136233
0,658722476577303
0,657500560152682
0,662363292223611
0,64994531341839
0,651518119700744
0,634577442181333
0,63667487868676
0,627796173874688
0,623221402315094
0,637176197251514
0,623383652304817
0,617001587234224
0,603295587834361
0,61854739093038
0,595416571461949
0,62509440620215
0,597572479562902
0,595098450840068
0,604565195670301
0,584302840324136
0,584668378805887
0,582507319808007
0,588488492402457
0,573176724703586
0,567174619543003
0,56883410224655
0,572786437240278
0,560377457615592
0,562620982170661
0,552114967526364
0,551451882294015
0,551580264022305
0,54228909463129
0,539399118015257
0,545184078086471
0,551128981945334
0,535147254434221
0,540075152538446
0,535726841319336
0,539744515856473
0,535740833708358
0,530951971892034
0,519196536932875
0,512730989364891
0,507668697123741
0,512859590582725
0,502609597910081
0,520855178365086
0,508730373804481
0,504735983548962
0,500925978492725
0,513355219057713
0,502021123697169
0,50220830530843
0,494217395212466
0,503161209819335
0,501728909892451
0,507114036161482
0,488500762796513
0,498706880256835
0,493651136601067
0,496383478674214
0,486300551135363
0,497509335660631
0,492312650235935
0,499218283721702
0,481763578290677
0,499609037698599
0,499269401147985
0,492039699000569
0,488985029046246
0,487514685797616
0,492860805924321
0,484491236847657
0,487784059842769
0,489837278094987
0,481692607178177
0,49301140014245
0,476328111702684
0,484247174931547
0,4897705318685
0,491043715280916
0,485371997343062
0,497363751576728
0,491527503113731
0,492180001905016
0,491557744225294
0,497443525529421
0,490591501440392
0,497704215694805
0,486331510635863
0,494144764897718
0,481621515568756
0,493294885366811
0,490372460789109
0,497672881331522
0,501723230120141
0,509324324856267
0,502893643082743
0,512959997517118
0,506288304844194
0,506627837458142
0,503361007448782
0,511131784942194
0,517931826478453
0,519279872088353
0,526059132307185
0,524311786652855
0,529903104750666
0,536050577532692
0,535386333806126
0,541117507899259
0,542391123875672
0,545020413982983
0,542831317289679
0,54444291296652
0,555650193485089
0,555502107728922
0,559000831408951
0,561362734441409
0,560944536288788
0,567485929817357
0,561059429763624
0,571118937507224
0,56453097362235
0,560704117838076
0,558495529670064
0,576535391053804
0,576085065560274
0,561429707710794
0,558827329479386
0,564746143838491
0,554951037662568
0,549468854743478
0,547875108426274
0,557444207898149
0,547790206351908
0,553606968734696
0,550212797154752
0,546756136741583
0,540769578827198
0,534850772301436
0,529997368812525
0,527562656756432
0,532782211000986
0,539093325802699
0,524498259242873
0,528037161212618
0,526432044142708
0,523667771512154
0,522667135492088
0,521260520464859
0,515600264987345
0,525801867254016
0,522971697849366
0,533108270831056
0,517038759884192
0,513807724295794
0,515032720050821
0,509072313268368
0,507278051459391
0,510008468538817
0,510556209086339
0,511459134342501
0,513264958090417
0,508582603383048
0,508550712608395
0,516782362926114
0,50479063674373
0,501746390649542
0,511487759660261
0,508505720883871
0,497204086331204
0,505764946567652
0,501198493905838
0,508595010897561
0,490334007374093
0,495979605168176
0,489300732567257
0,48955593353333
0,490055064091436
0,482554959225247
0,484976599329579
0,489968036894999
0,48279423146845
0,485502302080437
0,482304146691763
0,476372826213577
0,478327144364303
0,478593090109267
0,462084509795385
0,467996519847946
0,466225359239698
0,459089279681531
0,449977154707259
0,456800885961318
0,450001367224469
0,44553098175738
0,440652180617715
0,441949443331031
0,435792928190683
0,445338336127045
0,440961068521553
0,432296907113
0,421128644523085
0,428534668306449
0,424281174111344
0,424203746127685
0,41359434293116
0,41432759973676
0,424268751575757
0,422654237455178
0,409923681390892
0,406561674446063
0,407053717222482
0,405425791109436
0,394916343447176
0,40028795535832
0,394706550002217
0,388959104198159
0,389046346243019
0,391782818563816
0,386991333678436
0,380220570340578
0,380613663415061
0,380735373698123
0,382875676479283
0,377222290054211
0,373030042313733
0,374999174809853
0,375720261479175
0,369226921133596
0,372460227652489
0,370503045669707
0,363983098913867
0,366816761459842
0,362457935598008
0,361646820583689
0,363909182893887
0,357291926255734
0,359937453877581
0,358377944105712
0,353246834985156
0,352407036957214
0,345556496732027
0,355183733458276
0,355167980650248
0,349141010530893
0,349502978425768
0,339859246189268
0,340432560373739
0,34120444746558
0,336304073212293
0,332620290805568
0,335413413545053
0,332649455960385
0,332288492328509
0,330850874304807
0,323845068573412
0,331866491087861
0,328581474233592
0,321042998429025
0,325401326797119
0,321937496707628
0,320106397224654
0,323995921385587
0,323382113842695
0,317266749799033
0,315136733790723
0,3149334722106
0,315150665967386
0,316021392198511
0,313658413610234
0,314890456340227
0,306978587729848
0,30811663179865
0,306908655470592
0,306858695442306
0,306414574615899
0,310657384415647
0,300051095182653
0,29987238672632
0,301421367572897
0,301087917705977
0,300172096947231
0,294398272997606
0,299562583508626
0,297303534382744
0,297643168916404
0,298341310395956
0,293426499494553
0,293077582835012
0,292558993792247
0,292203749040651
0,299565287407264
0,29421149626783
0,289751658703549
0,287150249024593
0,285677208209459
0,290365546774462
0,291138780535108
0,287730080945303
0,281888783859124
0,282038916446986
0,285123343011468
0,28040864193056
0,28479664846593
0,287686601145811
0,286071355988885
0,279708649890734
0,280529905104345
0,27996070341637
0,27871597630616
0,279925062478451
0,277416766843086
0,275848317966403
0,27280122923148
0,273165903845752
0,277393161993356
0,276062133774634
0,273944510596514
0,269778004958949
0,272730579883944
0,266078583236037
0,272271315627917
0,265937371622715
0,270010504225256
0,267590395721142
0,266259656786237
0,268532333709479
0,26955896053556
0,264859919446569
0,262228003442503
0,264736752567293
0,272357768255442
0,261219124842486
0,267886365197399
0,265140423275241
0,263904599067229
0,261823517534609
0,261480313059139
0,26218523292535
0,257562577724657
0,259402868104557
0,26395310869295
0,256272141102971
0,256893468545175
0,260076896798354
0,259329281184139
0,255134603932211
0,257331700793816
0,260186265183646
0,251326781524878
0,250638125996959
0,255868041763811
0,249249454582718
0,2497844931852
0,250619268398265
0,254269702706589
0,2501262990478
0,245710952578775
0,246168529631531
0,253102243999921
0,247487780221509
0,250927152287941
0,246153023114635
0,248686089750227
0,247582618637643
0,244866663154609
0,248090819857105
0,245603963728142
0,241691593809784
0,245675538040758
0,244338512861755
0,242809204629982
0,239418170375157
0,23679507647573
0,236731340081942
0,242484480570496
0,23665996654422
0,232507587157875
0,235742969743319
0,237862443408116
0,234001454512327
0,237898917941516
0,232603045073388
0,237552592031844
0,234896136107239
0,23389276261432
0,233292141024721
0,23139245891411
0,228853037112437
0,226094628748679
0,226543210746654
0,228219283751983
0,225369488434347
0,226780162459021
0,221236262632107
0,2234547779113
0,224870137306057
0,220014155547151
0,221133495211696
0,218998367238285
0,22098690715837
0,219940605620511
0,219311852147415
0,215355287131245
0,21875485624067
0,222181774200372
0,217364583090593
0,216570947162362
0,210353458006802
0,213175032896443
0,215299595393021
0,212854597087733
0,209336272485296
0,213994188800491
0,218470605783137
0,214097475972217
0,20849865861904
0,211797771058304
0,210552956320737
0,207648109409563
0,209653385385947
0,21108309301487
0,205411238457984
0,20887836778915
0,205347550018155
0,203572438147114
0,203133305062087
0,201740442503654
0,20222981056911
0,206474249052017
0,202086613997772
0,199294402549199
0,197715502306944
0,195576032242123
0,196621716405159
0,193451847203811
0,19256704312452
0,193264254322637
0,193105495844848
0,188984668360398
0,187618333917601
0,188692303673941
0,188139251954531
0,187050131471315
0,187299774698095
0,184826073654645
0,18186048733905
0,185984785999606
0,188177297534646
0,18330180649804
0,184085809253301
0,184935524900675
0,178688885339087
0,186322188152706
0,183197485310468
0,183133005278526
0,178075693789873
0,180304981402217
0,179314375049058
0,176897093001245
0,178198385979201
0,176710962577748
0,17413465710367
0,177009379012698
0,174520701621242
0,173605169824759
0,177078657200755
0,176344359529956
0,175412322404083
0,17556677131374
0,171509817834218
0,173978569105872
0,171617639120922
0,174526010988618
0,174308944815113
0,170244755567223
0,171798251773172
0,170411863413006
0,168397501740351
0,170094775597218
0,16688362058112
0,170663187391567
0,16845790286353
0,171844328993441
0,16709272038352
0,165327929558175
0,167106788972091
0,167953797687123
0,164550918189138
0,16656825139375
0,164079411254036
0,16196726783177
0,165225496248236
0,16895149943893
0,167529801833519
0,163412163355381
0,162090572311399
0,163135778543819
0,162713374616875
0,165936108487185
0,161017155793457
0,162324163646746
0,160898632705093
0,164416922409364
0,162823826045211
0,15994599879669
0,1577396617782
0,161771089513491
0,161321524142076
0,15867959220826
0,157694090935711
0,160072569101525
0,160102347313181
0,155434106204603
0,158450836499411
0,15903206362365
0,154559077906839
0,156390283773676
0,155630467901044
0,15921099030772
0,155956004204431
0,162905349524463
0,158945198199093
0,156338821486404
0,157563404263145
0,156244673749669
0,154592325958371
0,158681772060492
0,154357964786707
0,156082706724658
0,157973348644027
0,158791164745399
0,154305608577241
0,15786229242288
0,158962575551436
0,152064968066438
0,151602028243063
0,156804223141726
0,152428878990234
0,153012605158839
0,152183826956862
0,155443482171138
0,151959472104587
0,152489343991345
0,151636030557697
0,152502780479542
0,151144083154211
0,152767987449264
0,147891390498889
0,151068194707913
0,151285820627429
0,149049357653823
0,145378920910765
0,149918578763354
0,147368960140362
0,146199177977104
0,146698120059792
0,149216046660745
0,145829338343446
0,149740662045768
0,145417178171362
0,148311712878563
0,14764188882578
0,150758412518888
0,14821826485105
0,146843274774372
0,143312498660039
0,144974491462033
0,146443292135012
0,146664952860317
0,14005917591591
0,146217160415589
0,144086056590304
0,142236439162573
0,142460880776993
0,148243573142957
0,142086157762416
0,144636891891852
0,146726701670821
0,146566529294416
0,14006403925164
0,142593111028384
0,144574460699757
0,145320671376462
0,142738856486885
0,14572123796847
0,141748462871596
0,143477222967705
0,143317600377736
0,145024503125979
0,142811479802385
0,144238337097609
0,1382642620621
0,140869216827044
0,14099972597601
0,143861452444927
0,138861453747729
0,14269412453128
0,140279502870999
0,14507467937107
0,141311441238363
0,138355003131903
0,140069696740138
0,143345102626257
0,137378683897265
0,140917773175356
0,138418585087621
0,138099775491313
0,137403054224451
0,138210147943678
0,134244893473456
0,137964515090048
0,13531100690766
0,138498370483458
0,13672289038607
0,137359387424563
0,138330224169851
0,138449106613629
0,136531355961447
0,135790136794217
0,132946212071525
0,134541288658793
0,133839119811427
0,136099074316117
0,132056359302818
0,133301905898286
0,131169443492321
0,134521070718052
0,13103373399066
0,134393133760287
0,132883866331916
0,131875619459639
0,129609394899671
0,132212944284342
0,132134230924608
0,132414159751706
0,13181493022699
0,132232326124207
0,129214257699494
0,128804145024772
0,126298757855073
0,130621993165939
0,130138703426727
0,1319751914174
0,129376076732062
0,130553959678572
0,12935961927281
0,128318876475373
0,129384347472231
0,131016799546593
0,127269113419778
0,127179512591992
0,126300783519227
0,130926320345161
0,128736033547728
0,128527904637455
0,125869284321132
0,12720261902686
0,128483758195083
0,129552296577337
0,125541991678505
0,12702840340084
0,125166777762096
0,129043197415854
0,126396068816337
0,124691891264155
0,125285993227256
0,12506488023156
0,124033063582388
0,1275156585761
0,122586277311802
0,124937549742475
0,124860523625254
0,124325439256115
0,123672843414113
0,123198313478896
0,123814451403177
0,126607893980045
0,122038236311492
0,12246681040155
0,120833531298908
0,124987190907091
0,121703870534168
0,121371126719747
0,121599525905618
0,119326086371308
0,120706030636528
0,121299042491175
0,120340643144895
0,121099558916224
0,119637711768655
0,122571969813509
0,122973146043457
0,12230438710571
0,119886266761731
0,120129357390013
0,117653101749121
0,121876220947332
0,12046205634992
0,117922619751571
0,118935793361112
0,118242286197541
0,121014889145732
0,122052182629287
0,118700144585807
0,11907284393031
0,121572684805523
0,122123984936703
0,123594850071624
0,121460501386722
0,122009975460511
0,120625690579752
0,120986012300882
0,125116449869957
0,118554684599815
0,121224915577461
0,124956631873725
0,124957191358318
0,123081679048523
0,122484073767539
0,1247070880712
0,121313201419873
0,121646105613944
0,125103351574704
0,127522721993877
0,12091993949359
0,119733021446355
0,11969874239863
0,116605628884878
0,113521183136029
0,121349499679224
0,124060666295351
0,110540974685889
0,110932744918362
0,121193789038595
0,115937274996847
0,118996720173591
0,118784121070535
0,115203075056003
0,120321638566258
0,119581652046957
0,117370253700668
0,117585023904371
0,113766524461571
0,119146005913104
0,118993958603902
0,122768133372375
0,119319687919345
0,123051778091584
0,113099113674924
0,122983868296491
0,113371831414998
0,119293379242804
0,109583423739513
0,118581857173776
0,107200167380323
0,121932798914146
0,109348776767286
0,127121460229924
0,104770009604125
0,126682232756366
0,106888703498094
0,132776974829546
0,104560917190031
0,134949411025125
0,1003823805589
0,13314061696779
0,098796437616384
0,135389532934358
0,102563411097675
0,136182741140324
0,0994699177565279
0,137061450097221
0,103952770443387
0,137088237604415
0,105061194335557
0,132897331932936
0,115858263274863
0,127243421781456
0,118104834970293
0,123313466448467
0,130601165821572
0,119851548564513
0,133381991562165
0,113009969746731
0,141504674430668
0,10521754116891
0,139614237448
0,104177699181052
0,137988745299144
0,108404855934469
0,134629485734714
0,114000438882295
0,132779850207647
0,117483458989636
0,12544588713326
0,121895808491791
0,124270056921779
0,121246277659938
0,12652041993425
0,117289092157972
0,124881880629277
0,118944968771817
0,131031953855785
0,118708878224903
0,128407173992426
0,113812859025808
0,124321555660492
0,118632100577762
0,125728601662809
0,120180748640453
0,126434487660037
0,12032782814285
0,125695094675229
0,118265439237951
0,126477566258391
0,119281851932087
0,12912080616588
0,121853896600604
0,125220666138044
0,118122588141909
0,125821418033599
0,118933267462491
0,125791961472772
0,119586566605469
0,128405738585044
0,121013751974623
0,129268501505993
0,122048481563154
0,128961445330197
0,122593116471861
0,130786241411015
0,12299649655352
0,129345419620182
0,12492516845548
0,129089390424999
0,122581245266582
0,129494571625916
0,123358522795691
0,127626739601101
0,123994445747521
0,132051908652978
0,125360323228423
0,132749833927356
0,126588948139186
0,131078062772259
0,128107235680729
0,130362968448617
0,126287158517527
0,130583099016632
0,125070111995909
0,133453361582801
0,128863783340352
0,131511322437358
0,126357210558266
0,134754852829848
0,128268087722464
0,131698609237587
0,1266720511917
0,13433942821777
0,126634284708348
0,129998078978714
0,128298824335669
0,133523874922287
0,130885230093592
0,133900213218476
0,131298192845921
0,133169311998588
0,128764372634196
0,134506069797316
0,127835055012735
0,136177349233096
0,130132379457424
0,134163134633362
0,128831240325275
0,134087856252447
0,130843826287961
0,134626059900373
0,130598013097571
0,137749899261475
0,129603335774123
0,136545294938701
0,133168684246618
0,135319754802739
0,129183288585574
0,137059097284409
0,131686145921023
0,138201079782668
0,133413970364263
0,140382606931774
0,134798541138766
0,138026674545579
0,135978848233062
0,140212912721079
0,137667879457013
0,143251564455202
0,138576259277189
0,140209281808976
0,137653740559584
0,14283459312515
0,138427194361143
0,140485233192573
0,138429821423271
0,142975268732664
0,135797173093228
0,142818038968955
0,13691990513963
0,144158418545182
0,139295488719898
0,143292932843888
0,13886351530801
0,145735304460576
0,138095556009129
0,144642366434544
0,138507507466822
0,143397148919731
0,144377591300287
0,148886293494047
0,141272352871759
0,147614799832562
0,143832294585874
0,148800331769296
0,142834215302825
0,148303356030894
0,143530129796256
0,149546756442427
0,141456012159282
0,146040187457239
0,143478478008587
0,145528694535297
0,145520696659774
0,150559340685257
0,14703378317466
0,148981962777431
0,144956940891674
0,150821133677511
0,143717628701524
0,14951645637311
0,148657164704253
0,151907589870513
0,148747538109505
0,151404131509698
0,145341123772971
0,152621800447775
0,146480893314092
0,151369335680017
0,146471495715047
0,15305409565693
0,149120196968615
0,152840029295235
0,147678760274409
0,153663829224381
0,151233825890368
0,155524920542325
0,152078598192284
0,154568821986225
0,150376600390154
0,153916556788965
0,148232617327254
0,155745360721367
0,150540575284371
0,157022999011873
0,151484823703797
0,153080061916743
0,148153166843031
0,156030864626519
0,154911156645585
0,154448474113282
0,149354810109493
0,153575467316231
0,152136489854584
0,156656621850437
0,150722326794215
0,157574188276756
0,153201282767119
0,154018054928999
0,153673716562461
0,157945767147875
0,150766897528582
0,154753378459913
0,152407431754983
0,153071864349151
0,147435192047761
0,156211810497515
0,150143606506185
0,154128092750916
0,151264715929663
0,155859356878785
0,151781910363267
0,153217360460913
0,150365630556894
0,154321423556727
0,151499004827447
0,153386705542419
0,150394735989381
0,156154754231499
0,150604462771394
0,153272161597486
0,151216953038009
0,155251717362306
0,147032556418961
0,152200907778189
0,148915490802258
0,154303979664998
0,148986863698218
0,152865578642624
0,148929446982409
0,153003305139931
0,151798796000168
0,156386275126295
0,149069987236066
0,151682371235289
0,148110501635045
0,152597735660684
0,147245951062691
0,151242862760919
0,14897119944091
0,153778441423538
0,14770328590932
0,154079710029976
0,147944499469032
0,152853530251319
0,147010410205193
0,150244744277569
0,146937733621479
0,151627418864305
0,147644401356648
0,152822061936274
0,152443775812773
0,152044299345058
0,146331535354779
0,151992898791908
0,147133184114096
0,151914567897307
0,144621994312324
0,148968971243167
0,145016793722204
0,151841887759325
0,145098602949241
0,150362853142283
0,146533607610828
0,149030270041091
0,147595531823416
0,150253741838816
0,142694917829511
0,147993396507392
0,145279350307074
0,150131631399365
0,141658055910306
0,148512039436523
0,141346521402593
0,145128645530722
0,144665690699596
0,147601835089746
0,142314357591768
0,146529522200179
0,143750411125308
0,147459680077175
0,142284613333944
0,144630700401797
0,140926158597922
0,147531204867951
0,143056137492098
0,144987610549471
0,143090733855209
0,143797893815093
0,142629301444963
0,146185564330568
0,138651411763073
0,145421044058482
0,140594615423162
0,145176572303461
0,139099755008946
0,1459182087351
0,139470465770443
0,145268566686057
0,138764696472302
0,143937072764451
0,137309815943111
0,141957234020576
0,13783826063565
0,143158523543436
0,138167388556758
0,144304000339813
0,134969025374582
0,140639426913491
0,13559025697354
0,14038050553043
0,131224015411207
0,137269177864047
0,133282942071418
0,137007046015106
0,132558609629484
0,136785003076568
0,130396644689345
0,140113443773776
0,131194840936318
0,136537838528403
0,129871208268949
0,137045867196462
0,128337555751263
0,133472341487952
0,127627182728639
0,135186634760148
0,131512472408596
0,135780860561923
0,128069373396822
0,132563587887984
0,129576883703486
0,132171078365739
0,12662428780133
0,127093050037827
0,123951405515373
0,127755537284242
0,125820524264666
0,128539303854014
0,121936321963436
0,12742535676213
0,120062025521097
0,126885504772021
0,121835429957954
0,126036457736429
0,121031614712068
0,122197069975065
0,122650468659788
0,125325227709397
0,121000643751359
0,123940528481007
0,119360970119488
0,124593090018622
0,123294160590887
0,129822894326543
0,123267209893767
0,117271418945465
0,122724580115284
0,125417648874041
0,117804140171305
0,12129543529172
0,117827627209216
0,12212952838198
0,119760551909318
0,12109570061724
0,115919946177926
0,11959254816817
0,114981491002819
0,12113123038407
0,115432094250417
0,121636305847537
0,115677682404566
0,120082366333993
0,113282300918002
0,119463030834278
0,116517452389659
0,118425311916045
0,114613061244391
0,118484262555048
0,113155098379051
0,120948315403731
0,116656168351176
0,120281734241293
0,113152334389011
0,1178281619307
0,112736317949125
0,115345176931111
0,112833145353752
0,115153461939163
0,11303272248731
0,116132947459163
0,111039791160505
0,115514673849921
0,112819080904706
0,118361541766403
0,108689889968226
0,116114968294158
0,110645598611331
0,113095550714112
0,11147338017133
0,11589086592434
0,106002599043193
0,11518866006566
0,107136773222242
0,115916270818952
0,105801424245722
0,116610643714653
0,120849174433089
0,118613140669518
0,11062256447127
0,114064633685415
0,109093210147998
0,113389435733531
0,108734668221181
0,113210351620118
0,108699963375968
0,114423218389703
0,108389671244831
0,11376112461169
0,107480727168865
0,110192229707913
0,105759559818284
0,112227374570347
0,107372921436442
0,111116681016436
0,107714665662751
0,106804178543889
0,108217324079082
0,121635803142266
0,112172738588631
0,112510685655656
0,101872456058212
0,106481096162561
0,114015638535736
0,117380131510863
0,109730162419334
0,108598167970256
0,106208999644485
0,107297368679676
0,106703318472375
0,105338156590938
0,108535620099266
0,114372609196423
0,106634876502361
0,111921236684331
0,106508687192877
0,110332259904967
0,105165121915276
0,108213381114195
0,104431875308538
0,108018081338158
0,104119989754901
0,106796762130805
0,105666957272571
0,107956987502106
0,1048878825491
0,105890443433261
0,108175312177731
0,109388020480931
0,106654511783713
0,10831427168849
0,101623347622618
0,10251012070763
0,104231710872513
0,121631430775835
0,108310795108994
0,103693097079353
0,101561211408341
0,108125668646985
0,105278526043201
0,10788466482764
0,103571798554997
0,107679227076364
0,102948875593347
0,10681299867034
0,105847766822663
0,107285735311378
0,103409400625146
0,107275424677333
0,103331402305471
0,108046363142088
0,10324629259936
0,1071614450951
0,108035562789218
0,107076984347247
0,109481608312665
0,127693923271243
0,114461897376355
0,117867106139583
0,110378889818976
0,104180678734141
0,105376814293783
0,104902048394715
0,104300050850726
0,111488572517712
0,102051073215811
0,103808053486244
0,106892633991506
0,108023360150908
0,10209841316407
0,105596423477365
0,105487253974479
0,107161783150931
0,10435477007681
0,105472922549299
0,105231341078561
0,103980968122259
0,106392782577626
0,112494245131972
0,110041158220781
0,109516598070888
0,0962528261141837
0,132388900019998
0,124361625589005
0,114916769103187
0,107374685216157
0,106941666087935
0,105415800566674
0,106384324957678
0,104386493297269
0,112281852674568
0,104035085320106
0,107966618228235
0,102089842148602
0,109943680986474
0,10526122201898
0,105453111148116
0,106352835734896
0,134547451332339
0,115232274270829
0,11353850450847
0,0998861143129622
0,115181904214093
0,121725632414164
0,118134182054639
0,111041684621957
0,114455835050127
0,106210775039914
0,113987442494835
0,104633327288277
0,11091056583717
0,112144644494816
0,111105604804264
0,107001431674657
0,109648757943893
0,109553027126859
0,118371148879865
0,108125493282417
0,123924246635191
0,120900419358097
0,111733603408791
0,113191130690803
0,118454290275215
0,113729209852611
0,113649584924724
0,110944258813249
0,111781507467383
0,121023449473274
0,129847966902805
0,114592374426648
0,128852590306094
0,125570752073804
0,116435296788636
0,114862983629216
0,122520080911269
0,119933420756564
0,114311928314264
0,124430723818131
0,136130907314497
0,134379832230277
0,133889804384813
0,120509902271651
0,118367181959846
0,119637187426892
0,118892557413313
0,113398993414101
0,133633543523226
0,120982481702522
0,126360147260765
0,114172166472761
0,133704378294311
0,131901816109634
0,126193319388832
0,122436687309354
0,125172631149511
0,119176281636979
0,140014266222078
0,125805979812924
0,123060355398385
0,134737959258715
0,160696473626051
0,142057960556756
0,136815901103333
0,122734816845428
0,167101191665287
0,135831765267662
0,13469729381702
0,129507480067369
0,137259079433949
0,124066125823573
0,133973385486678
0,155572289094634
0,14823857503097
0,136823460177073
0,144487656577299
0,128901305081268
0,152875198310394
0,15071685637458
0,143792303520476
0,13910474157857
0,145625388454896
0,135310640080935
0,181829328718089
0,15973891321606
0,163782308942167
0,164742024430946
0,170843651850685
0,162438340517405
0,162811898889896
0,148407995854753
0,170945696554637
0,167104710276155
0,166364633534833
0,146348134807695
0,173067548022564
0,179608959446271
0,16733294631075
0,169344138091603
0,168751051942326
0,15425766236934
0,198483432517327
0,213095189391068
0,209821402675003
0,180401391394837
0,179963673461861
0,202391999106019
0,191161278607124
0,183561588810726
0,186033032323495
0,186107890857108
0,190648844478
0,186016134022508
0,205881164718972
0,197170996084477
0,202956961412436
0,198058527844203
0,203324249054141
0,210347971679832
0,255770991782273
0,242819558422469
0,223897569454567
0,251117360286324
0,253688886282399
0,237114615558823
0,234700792437976
0,222723487988513
0,248273230331581
0,236668396557691
0,248957992690744
0,237605124611265
0,269805955102703
0,264693469619867
0,266775224387172
0,284977255627944
0,273319319096309
0,264499703154577
0,260781835431102
0,42222220675312
0,324071251795023
0,299504901894336
0,30991142734321
0,29119715411139
0,382344567985797
0,323745007326752
0,318360975832254
0,323263794071464
0,328337986864678
0,331983974984205
0,352785217054898
0,352360139145318
0,374380348513194
0,356012664369904
0,361353292471556
0,362799231964561
0,464983605082052
0,442897225952444
0,426299759579172
0,397558077141956
0,426676452128592
0,432028771880509
0,425712081356292
0,432948963997355
0,433751103200034
0,433580543328261
0,513973392180631
0,474481728019467
0,466597427546682
0,473852295776405
0,519295518622934
0,479110821628171
0,52652534838125
0,542798413238881
0,525212551303023
0,521579557449851
0,521316133174793
0,535337703928549
0,539459825914257
0,583495157210514
0,577209859589869
0,569788898089179
0,579989017246442
0,572211457060417
0,591595189197977
0,584483219310187
0,605009938070776
0,599951241710799
0,648188482799424
0,611015458611957
0,845938080059171
0,678032312193637
0,626078631558754
0,637462586360762
0,630236674812949
0,690413331217722
0,680188961233191
0,662554203980766
0,704868459983703
0,634542330262054
0,6589480862942
0,644903308386156
0,660350699956027
0,661101136426758
0,673200575363071
0,642003590278059
0,688906037554581
0,675151694201917
0,692260122012589
0,756369926640764
0,675585812165465
0,659080324652825
0,667343943382072
0,647834819318151
0,641095937628684
0,649704334905066
0,644462347999147
0,669531752440299
0,632753131054366
0,623107442271472
0,59942602663647
0,612305410421213
0,648643752065051
0,607275828940724
0,589794389645443
0,574981786040075
0,591918782939636
0,549505034280744
0,564654949681844
0,631568129762649
0,56077752325679
0,539184786278042
0,529262640782094
0,512114463418495
0,524111656585415
0,498683427196304
0,519113577787577
0,50683933360728
0,477382411954637
0,477870661905152
0,484611573141989
0,469532161798283
0,466858021153695
0,459542149238342
0,449354965980954
0,448950587952388
0,44036028199113
0,429326077748896
0,434773521496479
0,424019742689901
0,422231900402245
0,412524535281677
0,418979665372526
0,412239981351253
0,404880954859198
0,396749298123757
0,400950001522292
0,386023879147901
0,395709283416205
0,378036029807946
0,385264417312633
0,372848198066095
0,37344937193739
0,367455540196262
0,372768694291746
0,359964870258952
0,364968984115999
0,352555683535352
0,364739054392717
0,347571768926885
0,358426479467432
0,324563030571101
0,39557062972162
0,37664119018309
0,345907348274346
0,340618361766923
0,338877720066717
0,332813156283959
0,323945002625387
0,353734429711891
0,36804970164396
0,331935027214213
0,325581368761526
0,318886334144611
0,334324406646224
0,331627991089826
0,31816042277612
0,320170105778926
0,302311410593139
0,312299160421834
0,419977523333025
0,328194264173694
0,410392853650807
0,328975986097778
0,304180748847858
0,304495215737502
0,347516624108798
0,30167851943928
0,304539658368512
0,293829665050498
0,337519664545113
0,311148424896498
0,292862397589282
0,295113087793793
0,288535302991048
0,307064379402789
0,319511030495959
0,294184110929714
0,296992575935243
0,329315553799715
0,29575106865374
0,326841933991248
0,359732115663608
0,32113345443936
0,284057005645351
0,274837315523994
0,282902675524917
0,265105593258492
0,346505855910074
0,285987421618762
0,294375692890826
0,275187807231626
0,27213707803319
0,278932321670317
0,292820817102933
0,286864146339756
0,269868127049181
0,30964939133244
0,271668519521505
0,268746140930228
0,299058959507931
0,310235084999899
0,341404178176627
0,284886867444621
0,26522211326561
0,289214974584285
0,318238803576671
0,276170000124415
0,286859891623655
0,266404817624019
0,270158627360734
0,293715421050333
0,276003496140381
0,279384336871545
0,298074228918876
0,283570999820532
0,323554893589609
0,33734810676038
0,337363722834431
0,292453451884897
0,270464275751999
0,264301803289373
0,279990897779843
0,27670904377046
0,26948751145522
0,28679107301594
0,298209887538174
0,258864942760871
0,31725836457212
0,293551134394361
0,274944665145557
0,280833973570956
0,276508003917826
0,284504361722461
0,304909601758041
0,321518191837474
0,318621749682081
0,296205363127455
0,330964881037566
0,294861885858605
0,305393762365376
0,298772582280182
0,309592314126777
0,307259573294187
0,323695520552896
0,316084353867639
0,323472216447617
0,320676845062909
0,338466762983884
0,328103766566511
0,379011633002902
0,334068262652875
0,379206116647397
0,377427988454649
0,42025977243059
0,392850941138869
0,377522779594057
0,384689112115597
0,391545138477678
0,397671256638868
0,40993812037358
0,405778667131509
0,454858457901446
0,41698467148437
0,436573950501042
0,427362923930709
0,440249292694135
0,434993186780903
0,470591482459093
0,466777724145746
0,496658144832171
0,516979090897102
0,470331294359459
0,472736680285807
0,45218614775693
0,462094423536265
0,462346526831465
0,455243167484801
0,465847106149029
0,454325439565142
0,486954499052187
0,473079363754854
0,467914640734738
0,458119808711683
0,47078494388008
0,466915085594789
0,465557590494524
0,468048644836585
0,481601536049174
0,474769007529551
0,4811115620525
0,456241899333215
0,54917586505466
0,507120181172197
0,48722662086917
0,500174104227668
0,494432369576565
0,504287130377609
0,49152114733275
0,515272984635315
0,509603604187827
0,497243028834979
0,513382504155357
0,503986902507847
0,511641322555978
0,512411530470621
0,536816563157273
0,517374813255604
0,52439549394356
0,509580909178782
0,502743086723978
0,576334765077433
0,527913408391954
0,543908579842863
0,530037271100218
0,53369977247918
0,519385484018195
0,524214375968896
0,519808544192529
0,5234547400371
0,518564020089414
0,518656525545293
0,515218643915328
0,509936899079667
0,514520313395499
0,505996050808195
0,530092509918736
0,517981948873064
0,503979599113022
0,508449542220599
0,502527975409113
0,494631295480759
0,520111642036551
0,529481296034389
0,501981939187383
0,499797399050263
0,497856649276694
0,513782315357871
0,521065654113648
0,491962209821318
0,494104020942038
0,495085017519464
0,494397028520176
0,496602433797132
0,495833627181638
0,532851885959366
0,514492840690824
0,510963155562176
0,51106459435324
0,514093999413354
0,517419204996296
0,52146196812605
0,524582597300671
0,531755926368919
0,535246780196189
0,540948676095477
0,542113722683773
0,542168395204153
0,560470636183669
0,560865831691149
0,569354100794913
0,555112849654677
0,567854259932065
0,561629356703142
0,556833804935581
0,576597115997238
0,558250155248004
0,567370327681799
0,566165286018724
0,57000055812416
0,556610234652842
0,598515145684385
0,575608417232085
0,56662198007303
0,566303767594525
0,548319239147826
0,561973656962235
0,54988666480683
0,552470702859976
0,546793620294262
0,556574252311101
0,551649882914095
0,548518193403226
0,546108144529609
0,548913522455812
0,540930530611215
0,543745467943033
0,54162692732314
0,534167235036509
0,544041095857252
0,539840543470964
0,540582878509785
0,543371002805153
0,530077706287649
0,533774358005933
0,549307260280512
0,557600001968776
0,550552970681273
0,543498156811577
0,530431596389546
0,538673184150125
0,524360717273609
0,538028685770711
0,526776669275169
0,52443045084504
0,519024453640538
0,52539346294602
0,518839515601733
0,521910070201135
0,515312591897909
0,511371421165484
0,50745940538444
0,509065261237804
0,506624935650236
0,503446101239175
0,496729239368576
0,503086867485029
0,496330111902333
0,505718223761557
0,494511974591768
0,493193345712343
0,49325328585998
0,487474703052361
0,490924341806068
0,484828401014989
0,482577340502088
0,486498570198139
0,481948904893935
0,479855676996145
0,482067500309394
0,480561834451287
0,480331473523324
0,476329016946414
0,47427985489982
0,475328399037275
0,471300248371961
0,472907153347129
0,469071150687139
0,46930233623568
0,46565499727639
0,458533461711095
0,461355218755841
0,459023610482667
0,454679423135417
0,458398567667456
0,450155811990609
0,44791769889635
0,443901708845924
0,442213311758725
0,441508572675096
0,441798210801496
0,435841695704991
0,441126836191597
0,441083364700893
0,437393123469824
0,434625781640791
0,432088357998948
0,432744927587947
0,434256387261965
0,431912722119181
0,431683671341915
0,429337430843051
0,430683975765346
0,432531885692404
0,432430873635682
0,43361881740681
0,429852870279258
0,427326559164766
0,435512934908962
0,433577595066772
0,432349151003929
0,431384347871494
0,435846423249943
0,437456703051051
0,439368908141771
0,439903209435541
0,443555095773922
0,439258267737867
0,442359922358772
0,443691149990255
0,44964715580379
0,445289478123712
0,444406787020836
0,443453491881115
0,444254412564816
0,443391855833501
0,446053278617028
0,440082646797444
0,440205940471401
0,442342586800458
0,445972463027974
0,441215070890252
0,438305193638041
0,440761180102131
0,440404727849132
0,442193508757052
0,442052364180217
0,438051784957241
0,438092982502898
0,436724389014883
0,439628065533694
0,435017036962379
0,436705475315791
0,438284854121461
0,439517006197033
0,435670643629004
0,43685767020257
0,433391925096989
0,431508997554538
0,429865355735056
0,430832270957643
0,428587113598119
0,425690084082872
0,420560957815938
0,422635633331632
0,416924119617313
0,415419376512577
0,416761333106376
0,410845422846987
0,406435316654088
0,407747390028395
0,404822850478418
0,403032360995161
0,398265716917598
0,396245244566122
0,395386832886997
0,390608210360881
0,39123145006243
0,391178423308284
0,387908144915734
0,388091756161776
0,38848703785459
0,389674423224292
0,384955049022307
0,386175560853925
0,385202565976611
0,387267560920476
0,38864826122449
0,387053707161942
0,389711641859121
0,392764815500163
0,391234636823131
0,385436347452623
0,386975798164145
0,387958625293982
0,384415898244322
0,382364247856346
0,380815123717614
0,377484778000738
0,37399716554366
0,371861084091265
0,362548534601941
0,36473717917722
0,359590076528463
0,35369239614605
0,352071873322549
0,348873388943249
0,34241096655087
0,342477320596071
0,336283866081025
0,337845237467743
0,337590034684504
0,336615668436023
0,332270675059452
0,335068095347976
0,339408062340501
0,339952168704085
0,343605453825009
0,347932121994024
0,351854061228921
0,360901451735397
0,368032370020857
0,372525662863527
0,380841202551551
0,391828398265337
0,401907084149005
0,417443385614113
0,427867217535491
0,442439630589497
0,458037345401812
0,47947987325235
0,494850493710034
0,515641830085161
0,541448990272827
0,560146383333451
0,590388899995341
0,619022634086908
0,646774588145344
0,668842671315817
0,692665832394275
0,726483623210371
0,757281781441625
0,770186043983416
0,794942836524802
0,817751154918288
0,839250080287752
0,853899452742863
0,874151568270529
0,890329791908199
0,887024189567978
0,890195189229235
0,894606779058597
0,889029349072647
0,885897594327633
0,871619593802494
0,865095133557727
0,859417563208788
0,850411027752516
0,838021352294417
0,822628952677145
0,813973247629379
0,807115167217438
0,784367313083319
0,776557300440537
0,767719638815511
0,760302270664055
0,754816912577683
0,748303517452781
0,750206440227053
0,753586827257073
0,749654422532405
0,754734853139938
0,759734286228012
0,763790901941058
0,774048919092751
0,779887128471918
0,785944575407252
0,79544807654311
0,800398103620199
0,810370101653701
0,807087608334657
0,821778922587986
0,826859923716233
0,828175148815165
0,834533317371545
0,834652422984145
0,847600513103742
0,855435894768752
0,858044398689829
0,866523841239475
0,861466366373112
0,873231974752324
0,873888594986072
0,881018686605562
0,883701968115281
0,884294041656898
0,883443546702191
0,91025505933821
0,899157764665609
0,912432840781998
0,919435143328579
0,922860793611579
0,91440798814823
0,918386566811341
0,915519926240425
0,91501313194594
0,912202916386143
0,913021754166966
0,914676602737098
0,929392171135094
0,919230386313458
0,928349753538008
0,94152314249025
0,951183134366732
0,962010119173249
0,999182826841616
1,0156825449572
1,02284488964173
1,05631901745049
1,06922622958869
1,1024096855068
1,14951395078859
1,17672404179778
1,21921981913428
1,25397804437287
1,27523773474779
1,28461024805058
1,30955599144676
1,30578375155841
1,30735534004699
1,32176091951962
1,29030957510156
1,31328625976235
1,29490061043885
1,25140265262675
1,22592870688561
1,22005308070442
1,21759795589886
1,20429996985422
1,19222784390792
1,18844522716763
1,18218526610821
1,18727654959609
1,19617638558062
1,21169083937312
1,22699995280406
1,1971332845518
1,2070558759916
1,23652959008299
1,25750155286255
1,2689541988899
1,27103697861419
1,29558949287816
1,33088715904202
1,32995895775059
1,36724992125652
1,35606679445418
1,37388728504093
1,42563695640219
1,45374169318835
1,4269751854177
1,45245015721239
1,45159092246577
1,501481684471
1,54481929408776
1,50136633410488
1,58461127120774
1,63993699852339
1,60585768335857
1,6930622213378
1,65116115777294
1,69199416322562
1,67074558769538
1,7298666664298
1,71539383944552
1,69286690520296
1,75038777164895
1,79299438935097
1,79316996054375
1,84224395416972
1,87387194564442
1,96509362350627
1,90599958029305
1,89706398551696
1,83429888639353
1,95983916456989
1,94689136885711
1,9671733937192
1,940912258475
1,92898133375525
2,10347771754232
2,00027550157792
1,86671424960157
1,93523001927074
1,87940904295845
1,9541135830188
1,890004917279
1,89983673759493
1,87884925508013
1,90071918074969
1,74696356280182
1,80716693231704
1,80796953208465
1,7920353656506
1,71304562487961
1,67036822491218
1,63859883948206
1,63879641990917
1,60321038342532
1,67280000495461
1,66045666830319
1,64410928266147
1,60898950775815
1,6493906776902
1,59249297731272
1,55681091444393
1,53068377817456
1,53719895039428
1,47682731359411
1,4759498849567
1,38221681656414
1,42739327560115
1,44737562156518
1,40199822269429
1,36675656968655
1,32233518664508
1,24834916895723
1,2151659811044
1,16774451807535
1,14573537460451
1,09195312346633
1,02827461917417
1,00728157915695
0,971785766618603
0,946572118423881
0,892060171936924
0,846166013485003
0,825830688283379
0,793315052321853
0,773003075286541
0,746322171621806
0,728988989841735
0,720475193116296
0,69444278669614
0,683626183746354
0,673971912680145
0,656014176153194
0,656678577257854
0,627972182322322
0,635051430599682
0,619744787550195
0,607463881366507
0,599639739031948
0,599730046464785
0,596041970802026
0,589970177455028
0,584249852982059
0,5858943689904
0,578441720624448
0,576341171996254
0,577811306997378
0,586580099790904
0,586271873372742
0,581689744238533
0,576492646984665
0,576654587348329
0,581440802169112
0,587115785541079
0,597741671586055
0,598942173051786
0,601435549116351
0,610989769218768
0,623155362263285
0,627163524721197
0,622200473121379
0,633031629146072
0,644562596261874
0,652243385357133
0,646344078406867
0,660617046576073
0,661758165788689
0,663576311257299
0,654141781780538
0,656859341129032
0,658554752119729
0,67068943322396
0,6681446545133
0,677071863739546
0,676413839541877
0,678089441872468
0,677703079414333
0,67567217615525
0,679540484798071
0,682349357357767
0,673287638047553
0,668042396477732
0,667480701125411
0,678377067132404
0,679237438407509
0,668586223556532
0,664432965905426
0,657442049746738
0,658963167767226
0,664770576720685
0,654212135671206
0,651474417561793
0,648594038028886
0,648749319608157
0,648377036007112
0,64438410261587
0,644390874763428
0,64271288764302
0,643963612545386
0,651091063335041
0,648803732266713
0,654261157784399
0,643604472323967
0,655288783284292
0,666589786291755
0,678499985395531
0,677734753816194
0,669632914518939
0,68972498207165
0,695643664584794
0,673046651293642
0,669362798509678
0,66904289741367
0,677778067702014
0,671686684147897
0,66220881689067
0,668906805278999
0,661040431677989
0,660405172780744
0,658880270942014
0,656052204114093
0,66657718611289
0,649987582522723
0,639160749481288
0,653915666502979
0,661546747179955
0,670303945076183
0,671338813096602
0,663338509515276
0,672999996807946
0,673522272092502
0,673104318872822
0,674603315266016
0,682349515704528
0,675343905081511
0,691938728833958
0,689941321738821
0,703372332545083
0,699613013147282
0,707581491743033
0,724729621244494
0,723549215302152
0,721775055266628
0,739133100670551
0,749229624198641
0,738343227462859
0,754679049738256
0,771220335475604
0,737561899313252
0,737966552335834
0,767004568874946
0,772357562615821
0,770921274096482
0,761486062356513
0,758865419546945
0,790757780032134
0,758559946812698
0,768309171728819
0,79080291032504
0,766102464432844
0,781154746002116
0,789939497891492
0,778723051315466
0,794480028646725
0,813879084890642
0,813381400308585
0,802297451644848
0,765675459326709
0,767504818572486
0,831134050711254
0,816973960621733
0,806095807363497
0,804317233775143
0,805919666713524
0,80145948463111
0,823852398152472
0,803676824287856
0,787022661166675
0,797105528881205
0,783907691593833
0,801812645281711
0,779886360254728
0,786927919040522
0,782691308835536
0,797300416055902
0,840789923418631
0,852350749465785
0,82307712411884
0,82261909066358
0,812769669574086
0,810151909938858
0,819459533528864
0,828130193931743
0,867979321900625
0,845148257179851
0,860503307335764
0,864829510655365
0,849364511658395
0,876175252795776
0,886881468767649
0,849119670064255
0,836978612629109
0,813279002382621
0,847860764780512
0,87318342591842
0,869260288732448
0,865822345505156
0,853182836722752
0,888132473915797
0,94215693463488
0,911424474925298
0,914967557043265
0,948326071309186
0,932819533630576
0,881158358626847
0,915978693423199
0,965840721872952
0,952227745911946
0,93985832241966
0,957170847630373
0,999835615720912
0,972027029599573
0,965253712548762
0,974229949864534
0,972801325151037
1,02387524141852
1,08535730114178
1,02846976957481
1,00093836461194
1,07124569850076
1,04910456846739
1,06521929092713
1,05049543398121
0,968812787218966
1,04900896926095
1,14295588375838
1,07217150739829
0,991198525998864
1,12788076189942
1,11138875110022
1,11936694046979
1,11713098598274
1,09257347370868
1,13149541594599
1,23355819918758
1,06655292891198
1,08434486177766
1,10096596253579
1,14605720700803
1,15549376331478
1,26408420451725
1,10087639298336
1,03082687421556
1,23234891099234
1,2838696766039
1,14681636997735
1,18547846953401
1,21188725908036
1,28206639113322
1,28176072743593
1,291254820929
1,29616717980024
1,24997746294701
1,21479223621652
1,08315472300209
1,00508885975613
1,25261717703218
1,35505511626255
1,17848773783465
1,34811526026942
1,20414928552504
1,10626782272067
1,24011794016819
1,16185719899552
1,18531964338718
1,07432275718079
1,17157360131353
1,04032423440732
1,23982809536195
1,32875797454835
1,22317955344408
1,4123430078009
1,37179733475194
1,27271050576071
1,32169296559307
1,29369316988494
1,48447719958707
1,2452410977694
1,21644332731686
1,13047876537458
1,22323124503097
1,28487091752553
1,25156459645607
1,22352892434579
1,23527939679861
1,24108246289897
1,36850986597815
1,12817456914059
1,82895957837906
1,49072985447874
1,13129227474325
1,34328883584867
1,70298529734733
1,47249848717471
1,38065817762143
1,24949952668151
1,40213597206011
1,25479029735737
1,99805674858882
1,61621747302236
1,90268580557973
1,1351829341188
1,30276010924271
2,23339124000734
2,34302722737664
1,60925198996345
1,90645863212162
2,13971564910942
1,50434516096838
1,22858872627092
1,36315982107998
1,5376030192872
5
1,49561985851655
1,93110196059401
1,32945046275889
5
1,15853573696328
1,57330027863223
1,36887928454608
1,08026471317406
2,13961032755637
1,737614122763
5
1,78075979595804
1,18481688080225
1,27900730984458
1,22070760262761
2,23474113668828
1,69485805661175
5
1,82202937637703
1,47282854336896
5
5
1,14127273486912
1,51105638712988
5
5
5
5
1,0113648243043
5
5
1,20876068660374
5
5
1,57068370010054
0,956998515175858
0,8347004874575
0,813185776854364
0,934218895836129
1,02211061353825
2,1777719534309
5
1,2885282353113
1,0417488359995
0,966121035536643
1,71374810313434
1,19260414907942
2,43764999480769
5
5
