3596
4000,36533379555
650,420452594757
1
2
2
0,0436998305809697
0,0474485176343273
0,0377782753542794
0,0442431324622928
0,0394360556515054
0,0474078644560015
0,0422546065750664
0,050600354220734
0,0383469607693756
0,053280229904342
0,032946803736634
0,0442147827016197
0,038211665249316
0,0499700687384069
0,0415262291023938
0,0397397462606695
0,0470041651553733
0,0431481244927338
0,0363538287838571
0,039632257889796
0,0404470106612994
0,0414762961040522
0,0351586578358672
0,0425925234493417
0,0345352833378048
0,0339565646981387
0,0459417461206824
0,0451234314971259
0,0336605441102425
0,0448140104200602
0,035746322921389
0,0432493724403972
0,0508767623480477
0,0486623447386781
0,0380647040271774
0,044569799732702
0,0398894541896387
0,0477801267317683
0,0414247201012445
0,0490787953284114
0,0421791785795404
0,0489669112354797
0,0433262758111035
0,0496046169446704
0,0341665409397446
0,03826833990792
0,0371176041349455
0,0442995715379836
0,0361295376267874
0,0427212927285
0,0479538339377673
0,0436344181797817
0,036795372555778
0,0556626030467074
0,0355306142513029
0,0483074512646782
0,0456337057128345
0,0478160620469152
0,0347605148676276
0,0321885198787181
0,0372252027204105
0,056338267597659
0,0466021322369386
0,0437464408208996
0,0380525478569879
0,0479925155845856
0,0457947367103303
0,0409305278267852
0,0364317778146799
0,0426301226830005
0,044186137428919
0,0495448226187256
0,0496962944642113
0,050430022081526
0,0440434475578934
0,0475263043598196
0,0323010396087449
0,0357510672243124
0,0290434736365796
0,0411536411291822
0,0429252038769527
0,0450093845439722
0,0422043377185667
0,025709691548305
0,0306695888336879
0,0596175451479549
0,0323327467346375
0,0205713352760018
0,0476501973008165
0,0511866603537406
0,0344925521282497
0,0421107914906518
0,0399399243100404
0,0456011750070153
0,0318682083455053
0,0415229599638114
0,0347405593201558
0,038438114048963
0,0404786999101197
0,0351656757591383
0,0435346704106161
0,0484021149088096
0,0551416760905502
0,0410174883207546
0,0531430727917033
0,0740939242638449
0,013069638608734
0,0744896663029994
0,0535521571370361
0,049364114153964
0,0371503758346442
0,0312291881401981
0,0318007807510405
0,0334273662061279
0,0270562209965681
0,0347833090450379
0,0638452004223915
0,048869387349664
0,0407438355351942
0,0337785651211625
0,0263226137740477
0,043719809634712
0,0812767384543069
0,0458309994467773
0,0355017717813425
0,0384223425475428
0,0279116382292474
0,0591914633442747
0,0656454329243916
0,0461449331446205
0,0341939711194589
0,0327968191271321
0,027232246365451
0,022562422989994
0,0458386583385734
0,0602834055160387
0,0253123248012933
0,0337431175439882
0,023423068284826
0,0949904741555294
0,0553962482863323
0,0378053173603234
0,0235543211749081
0,0245830391797555
0,0678661659282593
0,0523306878762429
0,0211963628099923
0,0544989687854374
0,0478105225619024
0,0424522716865325
0,032784012335252
0,0269844775046111
0,0424773048396086
0,0383321069933419
-0,00698943147594227
0,0249048319231609
0,0848210664171087
0,0581065504687598
0,0818548337438002
0,0604599705990749
0,0345740192674664
0,0553899781483348
0,0330081201157547
0,0466122037096671
0,0281273878752025
0,0262257370896586
0,0330653933130115
0,0788832982109613
0,0284279220782125
0,0384666694761332
0,0574609986524097
0,0518700613113509
0,00812624045222386
0,0703085231896352
0,0661787603695569
0,0252161168784077
0,0713517313502634
0,0554234309819454
0,0187082210724165
0,0329225290386153
0,0620255681942624
0,0453739593506879
0,0372078524924275
0,0415300025921376
0,0278879488898009
0,0402992434581037
0,0390573868583567
0,0410865905240693
0,0321351777390625
0,0192077938898155
0,0247333241031272
0,0836868555392568
0,065830700564917
0,0530916526085872
0,028962338087436
0,021250407321765
0,0238996085786568
0,0819854284924735
0,0365176572534481
0,0452336371045099
0,0294688036680263
0,0377736330766717
0,0354628463321501
0,0425227584004104
0,0186555032095858
0,0209826542182532
0,0522586146858122
0,0688082098883947
0,0371068565629064
0,0421869052466594
0,0175426326328936
0,0204350682785182
0,0463134020929659
0,0897247320088527
0,0377336474378409
0,0447597722709747
0,0230753611228961
0,0460497704281659
0,0541001704472767
0,0438122970849806
0,0328675906995126
0,0375619997608733
0,0291819577043869
0,0446721854188071
0,0346642020279246
0,0424138524201743
0,0379079082079315
0,0424283726426091
0,0361835794777366
0,0436200127427076
0,040781539399595
0,0498011374410838
0,0362374032134744
0,0417044677793192
0,0301252324650723
0,041216058312086
0,0538296656878441
0,0467829347320584
0,0428982444047535
0,0479125554235665
0,0318022102967473
0,0383611276660773
0,0393426703470534
0,0470087285272821
0,0246264319204525
0,0327262965115581
0,0503629969780954
0,0654961572999671
0,0258481428835545
0,0423845916635652
0,0315825942371802
0,065097579219616
0,0334734577181802
0,0525708967127694
0,0329792313150359
0,0376494469845265
0,0148451934879968
0,0646738779726131
0,0407236996367398
0,0406756145441386
0,0393083283913579
0,0574685732198557
0,032410068707317
0,0277243947921691
-0,00204805900270702
0,0878802221855274
0,0642285966880323
0,0210649991282168
0,0694253942341764
0,0709195110818185
0,0438387895727104
0,0439235517115776
-0,00831366125272109
0,0930468792213932
0,102764169797508
0,0560270665551262
0,0403601673567922
0,0517575718735543
0,0395882866326584
0,0366761577578512
0,030014720326777
0,0400187782728328
0,0512209275480355
0,0878295171953299
0,0790261310947718
0,0504296759967202
0,0257537492643929
0,0753765829743699
0,0361732997415799
0,0544799396131649
0,028045088758517
0,0458285371210796
0,0421790997366516
0,0647901741876247
0,0473197463063681
0,0589469151940931
0,0280335739237056
0,0689852469031523
0,0544033146995908
0,0446635437595687
0,0434495484278328
0,0565158417935915
0,0422714187184954
0,0528215643443056
0,0434827744225518
0,0568900574084445
0,033888667156656
0,0271958192441208
0,0758293916010619
0,0712292926147227
0,0445856339574795
0,0838750504329586
0,0586084440838463
0,0544401166452506
0,0451399838042923
0,0490628264213512
0,0423895837264463
0,0372764886046229
0,0272152036639278
0,0653569365411562
0,0626263218392043
0,0489301354865351
0,0516192256546199
0,0480760699888865
0,0473441135441848
0,0539562880440368
0,0474822721427009
0,0516116239936011
0,051304895242026
0,049396910586616
0,0480874606203364
0,0727153224215448
0,0385937021723473
0,0595978358758021
0,0971133371707889
0,0629756021727587
0,0544769620860815
0,0578933553452056
0,053682336632664
0,0603588148189145
0,0505457731973302
0,0579044272362891
0,0529297047611584
0,073426429778691
0,0694458042456335
0,0554732592067676
0,0361865967519935
0,119851985324487
0,110104144950844
0,100223027039116
0,0596961273238796
0,0558936262784289
0,0545689614993411
0,102601240968872
0,0735341504657688
0,102474307040479
0,0774286245747157
0,0825440016634511
0,0725619623760919
0,0783295734260812
0,0789677824755759
0,0844860469841562
0,0848959992484483
0,0823508370710297
0,0840231309298093
0,0868630073305805
0,0738174504873443
0,0858569594976309
0,115123644882532
0,108148463710871
0,0894100343488556
0,0961989191542883
0,0870042020654832
0,100015879786829
0,123664804177325
0,120713401819562
0,109982218070823
0,113413976817854
0,135142896692542
0,125623506843744
0,102654639199301
0,105287976268787
0,10067790583555
0,122634500472545
0,111206438944393
0,116021959018969
0,114770063699158
0,132072541496749
0,113359851394361
0,125869839048948
0,11300540458337
0,12587178798911
0,131316128468676
0,150981852378612
0,122065443397348
0,131423942138341
0,0995072076428205
0,207832845206068
0,171127123909582
0,168619846387681
0,138318284412059
0,16008583273672
0,145183045916429
0,156724646267424
0,143119508030339
0,168668701861365
0,14353983632118
0,17617845010239
0,171848486660258
0,179127399468752
0,163385537325056
0,174878175469489
0,167509248379257
0,187725549679599
0,169376215531826
0,201587538617871
0,17905501841318
0,172145766730623
0,172595248951581
0,214424033304747
0,202476351049766
0,207049215232516
0,191653367342579
0,197921159738604
0,193834643275972
0,194583612503096
0,203118139090023
0,215589213140421
0,200708816197241
0,216766403152542
0,214057656717463
0,216270121374374
0,210177654889601
0,242064003917049
0,229057078401741
0,234883240606563
0,231874549835869
0,236019881574786
0,214317399660822
0,235565326093041
0,229006949747608
0,279418069523448
0,245076452452842
0,27763473869323
0,244242994705363
0,240447536064473
0,248073373449822
0,257219794039456
0,242886269535086
0,279863720434455
0,273008519820154
0,267304362492482
0,255261682724077
0,283002517866697
0,272293268537414
0,278425941830883
0,273148360581737
0,304648816338588
0,28180219511206
0,298278317798711
0,290742615016404
0,300883732850908
0,301768387216974
0,357636069311531
0,338613657266415
0,346081751327715
0,303085615944366
0,316978475668585
0,321933124487329
0,318202924397687
0,301676499793828
0,323458716916063
0,3333723465108
0,360077362460344
0,321218432391455
0,334454153397627
0,356641731725294
0,361046662730594
0,355636910834653
0,358445210481014
0,346525902042628
0,380224987145078
0,348214466950315
0,354539963944412
0,375524286430039
0,372540945017608
0,370411243350688
0,402120417708389
0,385912576582132
0,405305465289492
0,381883438588042
0,41426479057934
0,398924232732158
0,426075245688817
0,411194293324423
0,412930316255114
0,396258924139279
0,433767284786965
0,413710947096258
0,416486321960511
0,415551796497912
0,432162375656105
0,410548149857837
0,458521242533382
0,421248769644717
0,451674369794591
0,430217360859638
0,451188792942901
0,442916959810808
0,479950952172497
0,461122047531099
0,489546917978495
0,462115309863336
0,481239528709066
0,470247625839778
0,501508753903513
0,456009422429186
0,474651162956121
0,476293039462981
0,49923071248768
0,498244139577391
0,522066235675538
0,501566787933113
0,505920283633406
0,499915417391601
0,541959782967038
0,520471658417378
0,528531893914141
0,516381995197662
0,553043192433989
0,52622451251739
0,552892490624412
0,49716159798439
0,543549206606125
0,542269735043472
0,575309372044265
0,538601727716019
0,57101262935901
0,5579684411394
0,580070817153357
0,554123488521481
0,586107265097071
0,601633075828301
0,620671361331426
0,562504139962073
0,612675087862046
0,601243617778297
0,626060688548377
0,565938206458613
0,579374218461678
0,570983015998078
0,64252797070108
0,574475936679067
0,628895355743409
0,634616597371172
0,640357694775679
0,635588333352549
0,655854969280304
0,630529818238024
0,66073180240374
0,609651094412701
0,623551732225686
0,619496376698274
0,690210408440062
0,640187447631834
0,65131998603737
0,640943231496528
0,693539938656178
0,616896425473089
0,682788443401686
0,674474522264288
0,700809163507603
0,665473066089612
0,736046527212195
0,678590211995502
0,734343203423599
0,715482725527392
0,716243786258781
0,700066449608878
0,720330786493371
0,713183070097996
0,788591911998478
0,682283069257165
0,742102768191097
0,757305698058308
0,762485334541895
0,727105070367336
0,754049577693573
0,713014831717093
0,759930378220794
0,719569024084329
0,772858025339109
0,781151404264148
0,809105586050902
0,725684611663898
0,782669749615948
0,729692458341864
0,790374210362632
0,733804066821343
0,780574808575646
0,765255388318795
0,794363305023041
0,747247127882237
0,824129968376263
0,781467726617509
0,800465592383055
0,766134120233719
0,819159715390354
0,783973117038492
0,831426915661516
0,784334831260826
0,848915310015216
0,801872190289191
0,871658250395181
0,815772200196863
0,868935666949782
0,805897018163223
0,864017351730554
0,855147653811759
0,878582544144806
0,880476336650459
0,898543187891728
0,870243184921972
0,88194743300714
0,809510114628777
0,845887287839655
0,830943281017111
0,907056320905335
0,880683157609291
0,878372232965834
0,852000278470114
0,932724669997043
0,894396207788444
0,877013116470526
0,872430621103894
0,918915196464017
0,884370222322156
0,93438673348188
0,844014294883868
0,910038292791517
0,878352403016877
0,879032110280386
0,850501147250891
0,948459715556178
0,885176381994398
0,951837630230709
0,926341908150563
0,998753558184194
0,952366476666354
0,95580667027808
0,901666407215994
0,985887409259825
0,912403468280835
1,00184151701672
0,932226310910597
0,960030232212769
0,946274137968518
0,952542797258729
0,882798107733571
0,974357906331654
0,951368556321486
0,963285608976136
0,94185719305506
1,0287669753719
0,968981726441579
0,968421003092237
0,954352797141243
1,00011182055644
0,962058406030781
1,0208044900159
0,911413011333241
0,994002475683775
0,97096545657903
0,986498062843794
0,929712784481077
0,978777535614461
0,988596764764138
1,02657623955226
0,982851513145958
1,02220300390094
0,992235748957411
1,07665374500141
1,00293533775071
0,992864580069703
1,02651505145055
1,04622562757258
0,965618432091475
1,031384690839
1,04423454296436
1,04334938626288
0,956523369779184
1,05446345412902
1,02255968757699
1,07401532706121
0,991234670282265
1,01280333159906
1,0281004753115
1,07121284943431
1,0187761842368
1,04224044843514
1,00048119898375
1,04549776244011
0,998712365621099
1,04040512602039
0,991622102785422
1,08384293876437
0,992494781315651
1,01689004107894
0,973605763557215
1,05139639175754
1,02835544738106
1,07973607986303
0,996298435763686
1,08652200710376
1,04355973733764
1,07928427954144
0,971991562043856
1,06173708417639
1,00168114174387
1,07671349176067
1,06782809942156
1,02509691007485
1,0510793610456
1,08865074084192
1,00336336846475
1,10242703738104
1,01274418772565
1,07087429853274
1,03428229933346
1,05298718813213
1,0415291264106
1,06988750302322
1,06965871078506
1,08926107874709
1,03908428209585
1,09864352773263
1,05934832298565
1,05389084757687
1,0353694244488
1,06721629744846
1,00432727656095
1,08111811528098
0,947110921998777
1,05024036838832
1,02458457977645
1,02414775039721
1,039778374754
1,11252093001366
1,00541731786206
1,06639130180054
0,996201208888319
1,06978389981927
0,992391672538426
1,12293283424024
1,01598093228488
1,05159668920139
1,05688684946158
1,06143918736744
1,02701562084958
1,09733883621372
1,0546567864311
1,07453023082135
1,02803499970969
1,10483292498495
1,01478306661243
1,08651258832425
0,984091726731818
1,07830239216758
1,09724913152022
1,10855013136142
1,01547800201488
1,10613776236611
1,01776581363838
1,10497840233668
1,04313623590065
1,02263071963684
1,01953141819533
1,02580587140156
1,02842702476447
1,04945374384222
0,98180699119286
1,0667361532303
1,02629965323198
1,09078068505665
1,02620620465395
1,07476478941723
1,034628027437
1,03927281459451
1,03425984591713
1,03511312430748
1,00879670871613
1,0543392070138
1,0419432459639
1,03982257663871
1,0539520088264
1,11051443733791
1,00483458267009
1,03983024477778
1,00510782989771
1,03544559908837
1,03287833456596
1,10213392754119
1,03114259673713
1,01536181921359
0,995605778245618
1,05160242375636
0,988144236989395
1,02193442984094
1,01394916645084
1,02765495097029
0,995849304768795
1,00602344026992
0,992955943954719
1,05177357261272
0,985654209038401
1,0265380712087
0,969711981394078
1,02581187026975
0,994626795196666
1,0144840692673
0,974963341089727
1,02498674915551
0,949712393327624
0,999188022212975
0,993877614336373
1,03339261892244
0,972683344289866
0,967072975619104
0,948584447839865
0,994024448093989
0,99874900255912
0,990778779315231
0,922297972436892
0,997874197292387
0,950773428064534
0,963657276012672
0,947500432863874
0,984316145527075
0,946975065091481
0,951286219811818
0,948858404677947
0,943990017238189
0,896152718293279
0,970731678008961
0,896309575950224
0,952084250592064
0,929930350673429
0,9585460895405
0,923370462887703
0,944516228719392
0,895143441802024
0,931457811823002
0,906908733921338
0,935068172864748
0,917503921724488
0,949311975183401
0,901127742352366
0,945904218597124
0,882896346660513
0,90736760414835
0,915416324386626
0,93113137933914
0,886849516152807
0,910401047029223
0,885478408085407
0,908111524120998
0,890751445295526
0,888215183942197
0,861729052767192
0,895238062531306
0,846859331978402
0,881258824938735
0,833307310638189
0,884056124584768
0,830320238679652
0,84303424163944
0,839721815768626
0,857539398783542
0,835588783281661
0,862919044127811
0,831590592442424
0,84311132461009
0,808844035658567
0,86473557536402
0,800453040594951
0,841583582191172
0,799177699119669
0,857243313671287
0,808809000082576
0,838566610857286
0,789015484444071
0,836341861695291
0,784498455476317
0,818279134705284
0,777019447012052
0,782014333957622
0,802469517407363
0,811987910452313
0,773691215388451
0,792584640761626
0,774776479066633
0,798336906309043
0,770351867217012
0,769454574614811
0,728002675491841
0,77341987239066
0,753596525510015
0,770901249975882
0,729620650211378
0,766845062438184
0,738342667451293
0,739595783688521
0,702468801297269
0,73248660746857
0,728581006889942
0,738955186814619
0,703388498370011
0,726189130548366
0,704669118679657
0,729761709689531
0,6825806344867
0,709935282936962
0,684777626228727
0,703375011828866
0,677655036354066
0,697109398738573
0,675030232409793
0,697651546111458
0,678036052263795
0,693327573091797
0,665149354086236
0,67302975976205
0,644312629343218
0,688969145219538
0,664330208899752
0,647433271763612
0,633184454938299
0,655197350796536
0,640309411858784
0,675680381847255
0,632825358200586
0,646794241558298
0,609550208326599
0,649210559194979
0,626070978184346
0,636966718600738
0,610079369020985
0,638044749470494
0,616265568251115
0,62060548893563
0,596865876776277
0,628124371687672
0,602470235015621
0,597037878786934
0,58267075284815
0,613707876676874
0,570814646764209
0,608582854417706
0,585214797661268
0,594455273897253
0,582928658108798
0,581199430418056
0,560853724741474
0,582994750205836
0,566211138270447
0,588320729063933
0,552795777594583
0,568925878668739
0,546638937358414
0,564725203542945
0,548724653338931
0,566046646349095
0,551502406425844
0,548514617790473
0,529589893262561
0,559954975493562
0,531057807708189
0,551384508945421
0,535551618640512
0,545621455499712
0,524200901757891
0,544786008153461
0,511445512956207
0,533451599131921
0,517814032581379
0,532558318989101
0,515361038074699
0,514481385321055
0,490174784789807
0,510826875363967
0,496696755505167
0,515388560612878
0,497449391127421
0,505012475834254
0,489679636597026
0,511763990322449
0,468853381135959
0,497457876294991
0,484359773471213
0,488310322872722
0,473011924027849
0,47757918561521
0,473673617367132
0,478064356821884
0,467682669940597
0,472955376719717
0,469268724344611
0,475544349851244
0,453321008205468
0,463742207741964
0,444632775462466
0,455741439009106
0,446271848805736
0,460611656416992
0,436475010348064
0,449642935843244
0,436648187748409
0,443510657179005
0,430011537513139
0,445615189820963
0,432632704414506
0,445612669099247
0,425266463595407
0,440650637208816
0,417311939657839
0,43091381969193
0,415138327761825
0,424677070529029
0,412807587337988
0,422532624725246
0,419016633349561
0,417552331330335
0,406475855462276
0,415259630015226
0,401650109659032
0,417061349638921
0,404051917247274
0,402776888906623
0,385561758346018
0,394960587010749
0,388356872264681
0,392192762426802
0,385083138300846
0,399040619997187
0,374863087523197
0,386588062510433
0,371400100203919
0,376847148143601
0,369822377245005
0,392775776369388
0,370807303436353
0,377269723560607
0,362945525827575
0,36922142343774
0,35640080275946
0,368569865878939
0,36154741849493
0,363725096780524
0,347520846404858
0,371691778666533
0,343576506782035
0,361496146676905
0,34796064924421
0,35672185450167
0,337908472980681
0,353250191842732
0,341946339887925
0,350296181649673
0,342970199661071
0,349578253637592
0,336724189071213
0,356624385251311
0,340328328878356
0,355346885585782
0,336064292858285
0,34549258338474
0,334971463009923
0,352881254989484
0,334002701058045
0,337970960011796
0,329065156864586
0,341230191268635
0,331148731827081
0,350800918135062
0,330684421991964
0,348177158433478
0,33453422645872
0,3461302971133
0,337713051621077
0,347042844384933
0,333940451951198
0,345151191569018
0,337878389726506
0,34781060724808
0,333219602408937
0,347111684992025
0,338355365208023
0,362914540338935
0,34495249270396
0,350794632154664
0,334572673758251
0,353691853194343
0,345022214023312
0,352866128647987
0,348522265938008
0,359083216399253
0,355117597527821
0,362153774247722
0,361663105307414
0,368479733993957
0,350164685006152
0,372751236723422
0,361197758044032
0,371688394047964
0,363940120235309
0,375496818845314
0,3585226842496
0,37160525249666
0,368629542511466
0,389552021922601
0,371035106894905
0,385712237988107
0,36771280650159
0,387478752705006
0,377108350382024
0,405485570798268
0,382934728955834
0,397420897394475
0,381143475924649
0,410255897250517
0,398085377510792
0,411588533006806
0,388949769150432
0,41241833164187
0,39893798439193
0,405146574153895
0,403666176517104
0,423147809135066
0,408992515853795
0,435523529892556
0,421551819887285
0,432648455682998
0,42167545029933
0,433612199266203
0,422670032125869
0,440224429702441
0,427164455040856
0,442969389546973
0,42999489240435
0,447210046438729
0,434928255567739
0,448180609857718
0,443807624504873
0,438903025468857
0,4320762840651
0,438254596222476
0,423491476835095
0,451348410950456
0,422058405566859
0,447740432337015
0,428776240499636
0,444884978559481
0,418598678847206
0,447962886505878
0,427156799940591
0,43659727180947
0,424587824637316
0,430387491292872
0,418106473823192
0,44546894460632
0,430257961059955
0,426220876727814
0,425488667308293
0,437059200027579
0,428245299398153
0,436113689994103
0,433943711227963
0,441570061527826
0,41315269853604
0,4516583103707
0,424638986167236
0,439415779151787
0,431740264380126
0,440492949705344
0,430978788466664
0,443081395245601
0,42360404912161
0,439872060762923
0,425147382297813
0,441971947961704
0,426340282273128
0,436150237310374
0,432041013067644
0,441995422832498
0,426161806592073
0,44469514258098
0,425405415001903
0,44382239277601
0,426539228089451
0,430341351344859
0,430517102763127
0,44065354933521
0,412564473836103
0,426973446447649
0,424584619070632
0,437399811200853
0,421586341901341
0,425231123971938
0,406963321020528
0,431374471430023
0,417179868825972
0,425666677072216
0,408341028693207
0,427421615485069
0,401882138995825
0,410901206029121
0,398623792437776
0,401006412826817
0,395150166219104
0,400602079168819
0,388567443795397
0,393728996647198
0,382684502427552
0,392387246273566
0,379032994026331
0,383176285970672
0,378487883889847
0,383163029170263
0,362439718595114
0,365480696352517
0,357154561044455
0,373842404446852
0,354021474734233
0,359339501715398
0,347301793798609
0,356299948464521
0,344365718229659
0,344140505569776
0,334261515898903
0,350443240613101
0,329805252752004
0,342186849494044
0,333901487294221
0,342730335851043
0,330980988408432
0,334781331943074
0,327401226761474
0,331241738220322
0,317673219460591
0,324768770648627
0,314878568549033
0,321031299347886
0,31182950141093
0,323906410608769
0,305304428432752
0,311682948431599
0,303564001261149
0,315199300420824
0,298675581704031
0,316300792566154
0,299752894200878
0,308270941395013
0,30018616994228
0,304420285512654
0,293728860372733
0,298260975781001
0,290331822520045
0,300264697033866
0,286962018069162
0,293055125917872
0,283062625568814
0,290756434711827
0,28936498393787
0,29234738894775
0,28080223788093
0,287195634070053
0,27487541799993
0,281772623514481
0,276996759176952
0,284289927948837
0,270482445103463
0,27914728067546
0,268547791710807
0,277291128175225
0,265723287814011
0,270238625458154
0,264829074323228
0,263984126386028
0,258909540237847
0,269795868699249
0,257750912817637
0,270097771508328
0,25006544423423
0,266321125960044
0,25192747867761
0,26343046585166
0,254194669525311
0,261405423987817
0,257118657075467
0,259358761946662
0,249864315437185
0,261513018354062
0,253728430389878
0,255163586486997
0,250108778894531
0,253179191654681
0,242585577769879
0,254144168572994
0,247721390158599
0,252296115955435
0,241407944102236
0,243008104951951
0,237287115860865
0,246293631924728
0,237504009018917
0,250170279587178
0,235559822007254
0,24293675664068
0,233950403245867
0,237875301584436
0,232988735469659
0,241108638758355
0,23009687829155
0,235532585807154
0,231104427052316
0,2420748329943
0,227497652037534
0,233596279078851
0,23055791897722
0,236262802910713
0,225526373190676
0,233953305775301
0,225182430122004
0,231218135839557
0,226237503555784
0,22824324903546
0,225804046816654
0,228941789156102
0,224662931770077
0,232762051056259
0,219410277742333
0,227942641014009
0,216512474382524
0,225236325427107
0,215609190809571
0,229449243801718
0,21498632346954
0,223582509990927
0,211410883051625
0,224378549770505
0,218814640952968
0,227023650907733
0,214049393159356
0,222899098856771
0,216491878902689
0,232396690037582
0,210044739417714
0,222513474875437
0,210329182629664
0,214478303923972
0,210038421794955
0,221573095016044
0,209556392426151
0,214932622702187
0,210197918029202
0,216889970441141
0,208900506117442
0,215212599031934
0,207824246288975
0,217947781182045
0,206727720683373
0,219114876982971
0,208862798961852
0,212280582414536
0,211015395054918
0,212380327049611
0,211444222200288
0,211083948592906
0,202959186566885
0,213059736936109
0,201672417532769
0,208844036142579
0,206131691259625
0,207418273138365
0,201497431489581
0,206019779491269
0,203393144996093
0,209821726845207
0,201871130981032
0,205821746488544
0,199832400865958
0,208680351828456
0,198603990264257
0,207289480823767
0,190989959869156
0,200695298504319
0,194518841422438
0,199098157256316
0,190989039038636
0,200677032800396
0,188880275545888
0,195393324455406
0,192806314856494
0,199506049698059
0,187715469002192
0,195238330409997
0,186622121066396
0,195734023212967
0,189060218549454
0,1957248537178
0,185571555542533
0,191378085212014
0,187009166952947
0,190591030801041
0,180541439251581
0,187647437688148
0,182073857851863
0,187711206424746
0,179182661652372
0,187648073910676
0,181566978953401
0,181185375573168
0,172634688266235
0,187180235606999
0,176955348177159
0,181591439529409
0,177728570382984
0,180882023782651
0,176168045510354
0,181419712807488
0,173530878096498
0,183112425007382
0,165557172654696
0,176804899259434
0,169529132535424
0,178848308720065
0,167811285441481
0,173309660610228
0,172715299597388
0,173089266839376
0,16232256973937
0,175469213289595
0,166316769668817
0,170180385198293
0,159995927438949
0,170870062838212
0,16087149869071
0,167820395946789
0,158051933899861
0,166918607956524
0,156814499859594
0,165049123293139
0,15826664200431
0,164714165995426
0,153589431072649
0,163711278272184
0,153860619681986
0,156950782032001
0,152204653383475
0,160246691845108
0,148812492880123
0,155964643449335
0,154186903917037
0,150189759459319
0,145418373307541
0,154199289165942
0,142929952497226
0,149847738908537
0,148667944073545
0,147179925423129
0,143200864917842
0,146373789738304
0,142868767731921
0,145371920832805
0,14241406678448
0,145851720961563
0,139871705139062
0,14756611551242
0,14120537143516
0,14342581101493
0,134666365291833
0,144618901386516
0,133253443760727
0,139559347917369
0,137915638396799
0,141798726361976
0,136327534992853
0,13798611966572
0,130247359880932
0,138542852393071
0,135440748613845
0,139581460671844
0,133360557412294
0,138396500107291
0,13088354430895
0,136183510102736
0,126980062377582
0,139689189757915
0,128169135729396
0,134609490697462
0,130371017942847
0,131562973479015
0,128202120937227
0,130947390238289
0,121619419491299
0,134017734816122
0,125849909801004
0,129278151200041
0,12372647009469
0,128296192783336
0,124782387813799
0,129230469754119
0,121710080200066
0,126698388578984
0,119710736049954
0,125065001427217
0,125139436529357
0,130211603178224
0,122926698205269
0,126493216648346
0,119364930020541
0,124953447787289
0,1176900528558
0,12544779369999
0,115106726662411
0,122893341939272
0,116306005301427
0,12603850382292
0,116326919354159
0,120727975198439
0,112247287364186
0,122543502762618
0,112234512142335
0,118774277295678
0,112966418803051
0,122577745594337
0,11287769978469
0,115543664798307
0,115130156238255
0,117184481346366
0,110920338905004
0,117836319961331
0,113249446464606
0,117701955471279
0,109688835808297
0,119484230889324
0,111380307972999
0,113612847130374
0,112369395033532
0,117829179995658
0,111138245591856
0,114217858347295
0,110200257267141
0,116834687140214
0,108286802052142
0,117648503076962
0,107467258191986
0,112766815950256
0,110688671000282
0,11328266852307
0,108733877001312
0,113889510908344
0,107170492091343
0,110812118358861
0,105106786436166
0,113637604645372
0,104086571891046
0,110596287944949
0,107080432051813
0,11164620717276
0,10867634396306
0,112735944420626
0,102599512924619
0,110801568769402
0,102130580010287
0,111148269791582
0,0990254518055075
0,10930466772557
0,103833953154609
0,108155302908473
0,0978459387640969
0,106075798424522
0,100375551579317
0,106872972007008
0,100300981133457
0,106796118299934
0,0985764937152478
0,109342434344171
0,104009567739773
0,106904668892007
0,0984292678997707
0,103722713877542
0,0994094122590305
0,104723674387167
0,0960408830309553
0,108826354623118
0,100209446153613
0,10140562060305
0,0960868653132593
0,103406553698708
0,0965824944591328
0,0994702643776124
0,0926388549926814
0,101593439409585
0,0961278304666561
0,101824559096425
0,0975712537954543
0,104694694475017
0,0978269665544853
0,0994966080241709
0,0937786880124176
0,0974647694186961
0,0991222859510848
0,100143759628852
0,0929166089652114
0,0978176786601744
0,0902386965796921
0,0965219095668252
0,0913898869390034
0,0985977636975758
0,0920340096761827
0,100711979242042
0,0919603756104057
0,0980647301390091
0,0912131279859938
0,0921498574594678
0,0896347742006268
0,100918776196716
0,0904471705590338
0,0964969057923214
0,0855453754816023
0,0924915220906521
0,0884519831186027
0,0941513112564893
0,0881059586122327
0,0943439557761793
0,0858181037680439
0,0931493076985593
0,0863463438972098
0,0898947522790947
0,0847830086688757
0,0904245463740551
0,0859475851692271
0,0909705897798453
0,0836289028453129
0,0888456400960615
0,0817646353730831
0,0884494255080178
0,0802006792415522
0,088053499869276
0,0809301698798503
0,0856388631833114
0,0804241871223314
0,0852652414770107
0,0793613321976461
0,0810114397282607
0,0804892986936776
0,0882072204792252
0,0794824269872478
0,0834027509589641
0,0790212089151693
0,0836290234830991
0,0751236912916365
0,0817245670990779
0,0773790366298958
0,0827433007734498
0,0771149177627732
0,0797781214956598
0,0739214492885296
0,0803859338799596
0,0777856232020213
0,0804610626798905
0,0740409633821338
0,0803382846955843
0,0760124918442689
0,0807488471503462
0,0715611972797383
0,0794311150689509
0,0732202733808325
0,0789324758462527
0,0759122172087229
0,0761720065554112
0,073002823250088
0,079863271005116
0,0709480231575529
0,0768955420191198
0,0695641116750461
0,0762667013441471
0,0730174000462903
0,07606896866369
0,0716282296008591
0,0729014933132062
0,0698526149568691
0,0769239118557101
0,0686490928063663
0,0754370216259278
0,0684047694175382
0,0719127176414962
0,0676552424472008
0,0742845345565464
0,0668775300455204
0,0750956993643798
0,0667591456598614
0,0720749640628256
0,0661682408195434
0,0717421942059591
0,0670907745233065
0,0715476626407387
0,0621405971195406
0,0689584300116246
0,0658409215456221
0,0687672410827952
0,0655243666439963
0,0707339178974561
0,0622594107968815
0,0695290776110289
0,0641336022460735
0,0705127035590338
0,0650751625070403
0,0684444274521276
0,0615239046243228
0,0646843152881301
0,0604579395219891
0,0678405655929682
0,064269979126396
0,06590601063502
0,0623062339976506
0,0680314517458668
0,0622827737486987
0,0661159371075417
0,0614444993335774
0,06854165756361
0,0625283705711203
0,0676470263145242
0,0646007845261223
0,0686747008328028
0,0627744518353336
0,0695613048032441
0,0601799640857969
0,0679686648200915
0,0580614086994845
0,0714430551116889
0,0642366875747746
0,0704472918160134
0,0611866829231572
0,0721069601302139
0,0578732694505729
0,0744927171097081
0,0652799348749873
0,074004913373733
0,0514952392438763
0,0585721867835664
0,051256673720966
0,0692352841349292
0,0626701547434297
0,0659597195197383
0,047476412774283
0,069859052026078
0,0499247150928669
0,060701807742175
0,0546415921806619
0,0690652688304157
0,0590278150932466
0,0708664543605492
0,0527355368888959
0,0685221156613946
0,0567820316042226
0,0720978576857362
0,0538939428078874
0,0670780572720529
0,0582613721725021
0,0700994669460197
0,0475044017482473
0,0648725996185783
0,0498926637338324
0,0643098634335812
0,0522893761502521
0,0643767496585514
0,0448866430132037
0,0619541462918759
0,0474057169740943
0,0680785356840752
0,0507023723551524
0,0646425377140394
0,0574212215342381
0,0681345464006206
0,0560598260231215
0,0666111356074041
0,0449837372397181
0,0552265879118397
0,0531430104099892
0,0695588039438735
0,0598771394947362
0,0685204371032287
0,053047939681815
0,0527515436460878
0,0601058021919184
0,0660680730087331
0,0630446193028758
0,0467158703633316
0,0634373102259928
0,0636993860913011
0,0643632718527378
0,0429734309860179
0,0729389142112744
0,0584373562444099
0,0739661426281534
0,0513390876531498
0,0735770180106498
0,0514508948411849
0,0660347549662475
0,0573256221252349
0,0596730613414444
0,0603898844595283
0,0557281764655782
0,0620826838540366
0,053904202674143
0,064272880718863
0,053537803191369
0,0626046618668471
0,0580884383105682
0,0577233988944465
0,0555476037327295
0,0570005901769881
0,0575790546917888
0,0570670921562128
0,0576446963957231
0,0595385920230603
0,057391015233597
0,0590490821607325
0,0556280654186625
0,0543029118380144
0,0541162697399355
0,0582088834994985
0,0559440806335463
0,055628362773885
0,0559513998322456
0,0565865779977616
0,0547175349510305
0,0586967877126035
0,0533860222744809
0,0580681327706781
0,058248201685793
0,0568936816511961
0,0540733936443391
0,057849921114868
0,0515962285259008
0,0577500632547258
0,0523477440760435
0,0570267353990157
0,0550542599194827
0,0606870945493884
0,0515403899533163
0,057625269716533
0,0570362368972008
0,0580315807020253
0,0552938114313394
0,0597570061292099
0,0568197705763649
0,0574112868296646
0,0570046897833006
0,0593460341383408
0,054395141118294
0,0556491751695421
0,0544149414172526
0,0582438928295487
0,0537198849899979
0,0575312947149536
0,0553609341578469
0,0593398348685235
0,0594639445080258
0,0575531992405481
0,0561822230213917
0,0595754876914477
0,0589034037258249
0,0603161105636999
0,0566181246345046
0,060460691473264
0,0546926890948654
0,061599625326064
0,0552941138048894
0,0606580690184412
0,056579989886272
0,0587100823563399
0,0554871088744785
0,0572031106910097
0,0562362368116965
0,0568038433544365
0,0563036082246435
0,0567661625030062
0,0557034248497901
0,0592288470964529
0,0561538467750307
0,0594407085908701
0,0547916342432502
0,0609252629116841
0,0546523717812046
0,0575760737185817
0,0538205580972927
0,0585510755142172
0,0571214246034483
0,0602591078537002
0,0573270941113491
0,062953756105258
0,0558734697740903
0,0600699770420216
0,0560278865031193
0,0575616560402991
0,0541028195408786
0,0639708699965863
0,0580890522070306
0,0616786445990562
0,0585137957915591
0,0599658930118514
0,0589310224103907
0,059585276371489
0,0573848520790449
0,0613974123811936
0,0581532837087217
0,0632721974894095
0,0597982704223661
0,0612284831730736
0,0591053836039379
0,0631177582223863
0,0575252723830003
0,0607788604479612
0,0575730934399289
0,0632550477235569
0,0572506641498989
0,0637025377398097
0,0589549963294882
0,0633154397959254
0,0580330795118051
0,0615158636679022
0,0600214775894845
0,0619117757416613
0,0611305536542553
0,062430004317755
0,0591105076531246
0,0626619758794017
0,0607939265607411
0,0666091338491354
0,0595031663452166
0,0630168861605569
0,0618156455981438
0,0630914095532773
0,062712821694346
0,0616040509043654
0,0622674663619397
0,0638650101083124
0,0602411329836074
0,0622634199699655
0,0612049837680451
0,0607948291636563
0,0630159519650635
0,0624705752521169
0,0630875964440452
0,0641851862246238
0,0593244252632233
0,0627868910712388
0,0608309918673557
0,0623675792233826
0,0622259713167571
0,0644000258310066
0,0625683669795548
0,0673035291814436
0,0614965247404471
0,066410842229835
0,0618823990146983
0,0647876848682709
0,063781094466319
0,065762123778562
0,061397264718454
0,0684438808553729
0,0609687817304604
0,066032986168234
0,0635933746787269
0,0662134820213616
0,0656515512799479
0,0669259001684918
0,062457598811468
0,0648786837692607
0,064181226030307
0,066974064622748
0,0632979650228941
0,0676078100677569
0,0650561247093635
0,0656092302874313
0,0632587705067976
0,0666318262947838
0,0634511061512657
0,0652842915572121
0,0654862459698651
0,0667294371964099
0,0624143533701795
0,0651650644813328
0,0624671795160974
0,0645639193403994
0,0614025789560226
0,0665424345397701
0,0604755032338366
0,0649637477178535
0,0621110008765483
0,0654682022267899
0,0618753213144289
0,0635262179914967
0,0590608776899953
0,0640309556549331
0,0609873209506174
0,0638493955797488
0,0595145794333871
0,0640152901468312
0,0597535468159047
0,0633430053742012
0,0632651774675059
0,0640013773345641
0,0612539856712358
0,0635431713549662
0,060191840620459
0,0625415214510279
0,0601717838029794
0,0626961111954715
0,0606774703657349
0,0645300253693247
0,0581100872840379
0,06220101392559
0,0572034148605992
0,0623356590053383
0,0589482756456209
0,0615896668077526
0,0580782974940162
0,0610967518038724
0,0609195640232738
0,0648520915557156
0,0588197816574043
0,0582308911979808
0,0565166935887946
0,0621767733506737
0,0579385996951014
0,0643281341907989
0,0588625285843404
0,0621641423192293
0,0578968134002679
0,0651140530049583
0,0604285098094932
0,0598869127165515
0,0566605777172476
0,0593313290193526
0,054852743230865
0,0630919468234772
0,0605103242724477
0,0578673251805168
0,0595847215923456
0,0592133050767218
0,0576411581660674
0,0625862251792553
0,0580211975051446
0,0612645328897248
0,057044404709496
0,0611341331327833
0,05409759334221
0,0611862564493271
0,0565815853687768
0,0601772678060318
0,0571571095197378
0,0608916171870042
0,0587963129751245
0,0582958531804184
0,0558025328526128
0,0592857834607066
0,05887564876087
0,0611392047271651
0,0547747384289251
0,0581659935434821
0,0540393286117962
0,060846787576233
0,0592315255808901
0,0583969448095776
0,0553745716339927
0,0577747035107799
0,0562409982716494
0,0581884075566085
0,0562035588523203
0,0564059056877771
0,0538773145740346
0,0579549010730909
0,0554514134616418
0,0581254520122052
0,0564491526016316
0,057903498451278
0,0560492195386573
0,0576424934329901
0,0554068496064871
0,0581122988402091
0,0549607401331758
0,05924360028813
0,0533506869132048
0,0588950031103778
0,0547219996867298
0,0560765498145963
0,0539019423416197
0,0573495190150372
0,0535685256882873
0,0577881573670309
0,0550309985124383
0,0574737068767103
0,0522347485727028
0,0557743692148513
0,0525469602772219
0,0564374202792468
0,0533809717504034
0,0565767401271793
0,051374314797369
0,0530848718597862
0,0519228262306185
0,0547184653768082
0,0505269589405098
0,0546139761575888
0,051887444834903
0,0551437211230008
0,0504284571422991
0,0537898389319145
0,050256397744848
0,0543360796198104
0,0510399523583868
0,0512191435035689
0,0499950460025454
0,0525641535728049
0,0510929569109494
0,0541039416892133
0,0487595763332348
0,051383102520909
0,0483096779552738
0,0540530372125951
0,0459304510936022
0,0486003501029966
0,0455966994384009
0,0499817893370448
0,0470613672372102
0,0521038201162894
0,0472047521757025
0,0511397210616006
0,0468140861432743
0,0477308679937206
0,0444609909261742
0,0482353890568468
0,0458903760165093
0,0497533726870992
0,046913463495277
0,0490051360264626
0,0447945730734949
0,0491472923060778
0,0430214218129749
0,0511833241672499
0,0426674738945592
0,0560886277400742
0,0479334356066565
0,0455234412733196
0,0462355330118449
0,0481493135928791
0,0456289885627605
0,047326201939353
0,044688827848867
0,0470985139346067
0,0455528315896422
0,045423412132237
0,0449236927504506
0,0448535090067327
0,044146172875277
0,0469571595643083
0,0422377249205693
0,0492254960961076
0,043843610354354
0,0468560323236635
0,0416885028187821
0,0455749435600386
0,0420935164608392
0,0447585440583194
0,0420190741704031
0,0457698979938808
0,0421136172126031
0,0486261136347145
0,0477889291611242
0,0456172240167334
0,046327204824015
0,0471579600540976
0,0442283941162299
0,0434463185606634
0,0424349960025687
0,0426713987213426
0,0408791717929846
0,0418626800155489
0,0426069614248579
0,0451313704419725
0,0402352728426202
0,0451746911974146
0,038389910310123
0,0437370663688146
0,0404047382479479
0,0438695268119497
0,0439163214590608
0,0419367808581876
0,0393585899780934
0,0445757006579618
0,0397714520753474
0,0397841569651149
0,0401558481829417
0,036596187764435
0,0538059259065412
0,0456077487664744
0,0400448074534079
0,0448395556634913
0,0388086703971775
0,042207804864099
0,0373245003008882
0,0418573804367568
0,040374085048614
0,0443277814335729
0,0413744791752139
0,0444717889094563
0,03954734159341
0,0399697469413702
0,0387794279121955
0,0427505193450355
0,0390315417689507
0,0428546521311224
0,0369542171152274
0,0404112588998496
0,0363012328035323
0,0482331674418098
0,0433391906958436
0,040294913602816
0,0380016419404446
0,0370469707864745
0,0390151696742618
0,0557861470042882
0,0325439518697004
0,047813498376252
0,0355933298036305
0,0451867579182
0,0346737580964671
0,0439643232308449
0,0352037222253686
0,0485648070801824
0,0373416924347005
0,0449363125026569
0,0418129214918542
0,0438744211525081
0,0368888688229167
0,0394237960875537
0,0366058487492017
0,0404264944579101
0,0379831288701556
0,0421789850529108
0,0363043691302145
0,0417337226704903
0,0376577883663021
0,0430342973773565
0,0357032688268376
0,0476797169018476
0,0387693685990044
0,04227640250016
0,0348506397533983
0,0404759807285357
0,0303566278978458
0,0568780205852553
0,0396851266609165
0,038538132192032
0,0382026861753787
0,0394450589736631
0,0392585376012923
0,0409143264104459
0,0391769124890012
0,039761981723703
0,0389559763156669
0,0406657222164185
0,0391417151097253
0,0375013038328514
0,0393952380120905
0,0411152773232626
0,0382598365636633
0,0396651691554165
0,0374979291203724
0,0399493156002088
0,0422780204638253
0,0405476286303663
0,0353905062439054
0,0599763939352671
0,0384713666403778
0,0528985373616081
0,0401494445042564
0,0420813603160981
0,036583818420731
0,0417920295745641
0,0372045168319164
0,044995544819146
0,0362809644166445
0,0407724603942982
0,0375304807429881
0,0409292133902382
0,0364653045835749
0,0408562095126424
0,0356280075464758
0,0440733001213026
0,0397796207873969
0,0401479908634468
0,0359924981666932
0,0383613639505022
0,0373790209475475
0,0385443903096794
0,0417586252057684
0,0381267499792633
0,0394022216670137
0,0304616440285355
0,0719391932596266
0,0396672897196122
0,0452867062238337
0,0380975115473707
0,0371725998950011
0,0402600272555267
0,0395024397503066
0,0463282130590973
0,041322937966666
0,0396697924589591
0,0393967085485816
0,0432145649891748
0,041074187669178
0,0407875644869991
0,0299015404268651
0,0563206281416194
0,050485136652555
0,0397605232346879
0,0420837981591044
0,0298260891981325
0,0545505742270034
0,0519128774898233
0,0385128118376254
0,0489120809458623
0,0387488947355446
0,0475593033689653
0,0387548008738258
0,0469177808812474
0,0422599752479093
0,0467950907767862
0,0380367207820198
0,0450324167542974
0,0413224323362392
0,0457970901996183
0,042845352889149
0,046934748940557
0,0507382446996972
0,0458415703980795
0,0411466454307355
0,0526773159976393
0,0420018950792993
0,0445005633374646
0,0397737903600263
0,0482215880891515
0,0440207748391186
0,0566856160842536
0,0434100984387824
0,0491662924573698
0,0557965310269038
0,0474744843477381
0,041453017406228
0,053845428447101
0,041287697840511
0,0525615271499309
0,0254497477096417
0,0722319223032666
0,0476077858981654
0,0567390079437285
0,0514986885785862
0,044130147603471
0,0494280693831681
0,0461932523377163
0,0450521314925597
0,0436204833266401
0,059946733839678
0,0384682797039374
0,0525561722648196
0,0389355870969275
0,065534211565626
0,0478561473027809
0,0525414275360161
0,0481476605895155
0,0505936659996162
0,0459161283305895
0,0604214217862927
0,0360213614106651
0,0509063172524742
0,0783295117794817
0,0530301330352144
0,0653212136539756
0,0437113078375277
0,0734919262417386
0,0644066006436271
0,0465103924982858
0,0601132296400918
0,0479227192737276
0,0566679752398848
0,0406820861563656
0,0688767667417174
0,0736040892008486
0,047996758946339
0,0639943187540922
0,047901387158484
0,0550756703971539
0,0760663687924982
0,0525728207932492
0,0632270619744716
0,0584188790680871
0,0564483533881036
0,0453866106174357
0,0984996459876264
0,0472607488937177
0,0879668413362131
0,0662975033128229
0,0730456928056715
0,06817164468045
0,0670631312997613
0,0651704653878912
0,0787597430338815
0,0692807789197773
0,0624854886918083
0,0587823526155643
0,0946275552754255
0,0736581755728651
0,0704401463485499
0,0802050074869039
0,0555755989961892
0,0659949741465539
0,115765601484638
0,100132718827593
0,0830563010440436
0,0768487368979072
0,0875605499578919
0,0902641533912541
0,0758721152511726
0,0848404060950858
0,0794786775435358
0,0822885731911249
0,0820529904500795
0,0873081901092855
0,0930979626586985
0,084799253735195
0,0921492741384253
0,0775223036450721
0,0931170215626469
0,112356986600332
0,121686302204857
0,106423338633871
0,101757005735808
0,130361338544795
0,0986470849025524
0,110981269887161
0,0969587078477845
0,114970410768445
0,10579861695178
0,108760505240768
0,104362011624568
0,113668953327612
0,135307973684152
0,109615303133383
0,143601079656959
0,12516020418847
0,113203286383873
0,107374339407841
0,159333752093993
0,193718353492105
0,122843384462036
0,166277786450927
0,101144089631115
0,22253213739801
0,165743646146324
0,16525559845891
0,161602115209555
0,171251065777062
0,166940397332988
0,195116414876027
0,187658428657947
0,203821634054323
0,194928060645362
0,198134543802424
0,166016133201682
0,29896195416158
0,254894776267752
0,25564274678414
0,225331746379811
0,247592944945851
0,257411763113328
0,260948754992172
0,246096783208886
0,271142769858183
0,234984778974097
0,329625920483372
0,294174386404572
0,285464472686698
0,292480443299632
0,308333471942782
0,313431688942671
0,292304658587471
0,385480608803806
0,320174408342118
0,347475242063685
0,328054581558005
0,355126711272819
0,347087686578185
0,370395484241352
0,386125740197233
0,368849568582801
0,381130898909486
0,374610390244168
0,388859276531446
0,389687733503175
0,397949096916621
0,38831085035923
0,401331497611331
0,444071250666459
0,479248429814551
0,479176270141972
0,405891609397296
0,422414480592024
0,401937962668963
0,433648707559627
0,440692814911368
0,405938224745183
0,469750175558255
0,407472487771813
0,434116390228452
0,427422132159846
0,428349711818283
0,432451324385129
0,431976012635964
0,43656882349673
0,420477712501104
0,454135434867458
0,385642052595727
0,517032445442548
0,43925269919448
0,430102964333145
0,42036720616139
0,418578376121852
0,415723433428717
0,42699169769482
0,413120594516226
0,432686643200119
0,421762394571085
0,406595090007175
0,407908496416495
0,393538561754489
0,441501197387798
0,397993764659252
0,398737955902025
0,388159354317844
0,37938274511717
0,381648123129592
0,346254713789896
0,423737455409652
0,392267222074033
0,358405760427189
0,36790530321268
0,353247293871525
0,362514762490768
0,353527879170577
0,363389769601106
0,359030094101024
0,346899404864122
0,346237439985197
0,351345739045269
0,339989489689378
0,342939717607745
0,33552075690424
0,350266057075676
0,332890590848758
0,342283828909372
0,335210313734657
0,338465535128917
0,329610904017784
0,334320658339451
0,332451263205705
0,335089649401879
0,332976024547358
0,335373037943843
0,326771459735268
0,335302998951273
0,323837934679066
0,334751848144902
0,325878165629991
0,327790978231952
0,320819833064356
0,329837709567711
0,316652418656046
0,329368852912195
0,320547037673537
0,330892528367542
0,317921212253497
0,327392974734809
0,320739258909385
0,318088135609645
0,317011265527647
0,314185732759165
0,365967639451053
0,31028208950667
0,320963880511111
0,311092337936767
0,307544163132538
0,305303922498995
0,309910879742845
0,345364639315769
0,303052365552314
0,304590104035572
0,300308533424979
0,304758920353557
0,313175742376993
0,301180269355919
0,288693873880172
0,297462821790417
0,246336828746415
0,405742281478225
0,256943561751959
0,385959482353529
0,298299844435491
0,293176205952649
0,273732218494277
0,324992674605818
0,293146617365618
0,273465092869983
0,293583655590174
0,282262646996306
0,300432971037997
0,275869406261515
0,27739260050881
0,274335947714722
0,274795627155875
0,296595077613557
0,283150532462829
0,26187702463249
0,305983483627175
0,28166552270489
0,2663059578755
0,316947594438033
0,294735098395653
0,266187454912335
0,24805948678986
0,260041378446031
0,239113374337383
0,285601705082016
0,270818201683913
0,24870171463866
0,258008136533787
0,232331220571102
0,243920564387319
0,245432209327765
0,249507373827671
0,226039509660209
0,242835616232251
0,24780467195176
0,198948531365991
0,259976196545482
0,22392897710214
0,285066243297002
0,225479986529632
0,225161386539182
0,207393294476504
0,257016028555054
0,226429670155861
0,222068574550536
0,217161092699497
0,210541880578854
0,22678440247003
0,220925400521898
0,192458158696575
0,223744895729111
0,202885659128324
0,212696201639118
0,228224042836131
0,241881632387894
0,217183810951105
0,193958886980664
0,188300814570481
0,206249477204284
0,185382771364322
0,201453411553634
0,17339152428895
0,224900341532652
0,177163506947615
0,217183185452278
0,210606299268448
0,188933479795364
0,195058812401057
0,199402713687965
0,191603888655147
0,226194125135426
0,218375060475134
0,231108353557655
0,195936799559616
0,226964704954573
0,212343952410679
0,212101597040356
0,212663590033942
0,218413961748394
0,220656330160646
0,229518131751646
0,232307153434351
0,23758816644324
0,236284539123133
0,251392187744684
0,240183497146144
0,278870829678972
0,261264691535543
0,248640571236394
0,304795891727601
0,283414954265272
0,309174410485685
0,279364108834514
0,297315393114477
0,292407050913438
0,288866708721445
0,304524707776928
0,295073192130392
0,332594933479673
0,320905494589039
0,31044923659401
0,3294576460144
0,319934637936236
0,336929523840184
0,324293344789149
0,368156803259274
0,308116924959284
0,406178888231418
0,350501876226533
0,353442177550337
0,344269289248584
0,346564768035897
0,36216181390681
0,346950897093619
0,35926182741886
0,351757707795196
0,361088549856841
0,36749465234096
0,353609318381741
0,361881247853169
0,358350342176849
0,364715107522177
0,363832288462435
0,364740255504698
0,368257691896762
0,371251370533995
0,379758551900367
0,367084671160188
0,40471683023919
0,42004173153232
0,374329370744385
0,399059195845899
0,382863442004995
0,400793463469788
0,390797149719695
0,403970914501782
0,411828394839346
0,401681433976285
0,408503690074815
0,405710388357595
0,408803120654886
0,422338719466135
0,422177020253616
0,429831377409243
0,404319459449911
0,434607155725516
0,376742706629118
0,487346966332729
0,441407811820238
0,447639133693156
0,443232235280491
0,436083673936112
0,435722014311362
0,436645038277756
0,443579591063392
0,440433085432768
0,44241924428478
0,439490516510576
0,448273312188255
0,447312029171211
0,443494462943593
0,436679639522015
0,455653972003718
0,457241890190162
0,441522808579848
0,444692475357565
0,433835549004574
0,443544650021317
0,439404599501385
0,459208575618914
0,436522231062098
0,44284476401436
0,435607914186249
0,459777348919915
0,460956045093654
0,438321760564937
0,441093946995888
0,452440526026933
0,43650353685246
0,451903111104202
0,432240895111491
0,461608752146214
0,457826359279876
0,452582948371616
0,450398168859742
0,451107087428216
0,458474914652135
0,450759837616151
0,459636717709284
0,460829597294029
0,46772931006579
0,464669717317545
0,469970518984627
0,463270627213561
0,474657000820992
0,471223206398652
0,472246628568567
0,469932690567502
0,459620936130107
0,462856055783918
0,456679204742403
0,462576345040824
0,455477750647594
0,450102125939624
0,445007136639827
0,44242647485962
0,439171017256314
0,448209523528984
0,45440815247719
0,420035556122228
0,442012174699345
0,419906683151427
0,427106584893305
0,414404101049931
0,419189845639238
0,415254028254264
0,4175025547481
0,410244222559871
0,406232981229447
0,40261888403816
0,402602434484365
0,400512198901583
0,402003638425825
0,399809841863824
0,399021246142832
0,398897135216574
0,398051822858053
0,395752639574312
0,401133007948565
0,390657375711851
0,396702947838155
0,391750248445844
0,414593964444233
0,40095536526065
0,401153764439394
0,395884799806899
0,397293327314578
0,386453655413816
0,393874798219794
0,391106612918952
0,388656709461912
0,38818276978014
0,389721918822066
0,392384806830848
0,389482115558855
0,389415173185304
0,390059849888233
0,389934106666166
0,383861258734516
0,390166298124953
0,388268274732635
0,38452357251819
0,387089837243885
0,389972114491491
0,389352459731842
0,394123419611034
0,385573138015113
0,390549133400231
0,390896481990344
0,390150346580314
0,391986535745813
0,38728562907791
0,389006701399422
0,38828879778281
0,389213609420823
0,386834655284719
0,388637732466783
0,38684226616501
0,386174788186709
0,382621222539211
0,377565029607303
0,379122949777628
0,376661386200089
0,376440586367604
0,378306424933038
0,374220926935791
0,363654625428607
0,362759920285722
0,363256353977395
0,357572923158424
0,353934708218981
0,357037181517436
0,354708793126518
0,349771687188106
0,349204307366943
0,344165313528943
0,340695741587277
0,33961102744053
0,341328696128418
0,341858418720144
0,339448814176511
0,336266875490315
0,336710528818104
0,334658379891771
0,334864132999828
0,333037875234099
0,334888432941378
0,333344663140939
0,332090208696464
0,336356099604324
0,33724903247048
0,336958919177073
0,336979676848491
0,33648977939461
0,342272428704389
0,347155930853494
0,346453036518031
0,344699242788046
0,348139239643886
0,344132689141018
0,348715466811758
0,34935941918927
0,351561318731671
0,352736286869091
0,355976546787016
0,355802237225042
0,360603720734785
0,355864996932987
0,357393772347457
0,355473688439934
0,354698393629417
0,357097933492916
0,35844652573474
0,358106982881213
0,357805064874704
0,357036155617153
0,35434323916604
0,353401693812628
0,352863538491134
0,352346588781444
0,351936883830369
0,3513570728592
0,349791049218805
0,346377699613925
0,348652785232138
0,344715590393066
0,342331777691136
0,340674962875
0,338771385394167
0,341442121227745
0,340689794210701
0,336048270997283
0,336575217824544
0,334067123861943
0,332093875590026
0,333391015839149
0,330397516822275
0,331122821251165
0,33215259376858
0,325974919236974
0,324776677724349
0,324019935933511
0,322132110548146
0,321269423112533
0,321699489834602
0,32165398129591
0,322089066992994
0,318644610084287
0,317530484339537
0,314897046820828
0,315378176743716
0,311485091727621
0,311883302912094
0,309553578056775
0,304075719103797
0,304764136160078
0,303622993733825
0,29815651036245
0,29658978614666
0,296152797440916
0,295260751057233
0,290452813353111
0,287325328928896
0,286543018827725
0,284201412154612
0,283196292357198
0,283614843217056
0,283098241507467
0,280415437074707
0,281551292634865
0,281731223694682
0,278376846848406
0,278286254828787
0,277769216721592
0,275290591192329
0,274563974806593
0,274341595733833
0,270159906074874
0,267829032935925
0,263298461553933
0,260956206787549
0,25691888151317
0,254480340717252
0,250076054096284
0,245923164363197
0,245293245859533
0,24555097451875
0,245132428194862
0,247726124724513
0,246591416048795
0,249490105266087
0,255009331250497
0,261453127173402
0,264554328085095
0,27216025700996
0,281604931175251
0,291296811834606
0,302941666844755
0,311636431590582
0,323841566656422
0,337813449282205
0,348931080705751
0,36417538445276
0,373460727973137
0,383509083402757
0,400378491986126
0,412334311959602
0,422245842577638
0,436863005554862
0,446763529301865
0,457797293770468
0,471997219833417
0,484492721405466
0,493891633411195
0,504796969004103
0,513995142292395
0,523441640821345
0,528226869935674
0,534537436839611
0,5402308455831
0,551926196072743
0,5614564891232
0,557914358762395
0,563150706712974
0,571487674854064
0,570745672104832
0,574452412299808
0,574050455040407
0,570932011962781
0,57504105092516
0,572593203175209
0,574342164998644
0,573285069641157
0,573579806257091
0,576535590753406
0,575706551855928
0,577559277563184
0,579726424301264
0,580975754934144
0,581421148664822
0,590826055663665
0,595452479228778
0,595255249636735
0,603151694256938
0,611401157475735
0,611434922881905
0,618015147634684
0,620755194384517
0,63041087483
0,636954306304645
0,642084595773877
0,653278546225363
0,662995222281563
0,672765977824874
0,679478141546862
0,688882386420373
0,702714926186273
0,71265305582667
0,721197032481754
0,728126692915503
0,734681669835449
0,731895099571704
0,73131209086124
0,737840208130497
0,745908144747365
0,737364803563489
0,738554107861443
0,740053853252963
0,730449003920288
0,725067960151636
0,719559936574842
0,721791441358628
0,724264079903582
0,721003203612953
0,725467200553304
0,738790322932992
0,743504494859258
0,743634407706944
0,767491506500678
0,770090420230883
0,774936688203593
0,783555166329624
0,807895041854604
0,812883960997608
0,824000750405222
0,831850154344252
0,849011170268217
0,862951978494537
0,869764065787253
0,890555373510816
0,902711533583932
0,905209837187334
0,920334672645131
0,931667195713069
0,940025092176581
0,965856379865967
0,981133161898531
0,981903023327803
1,01096971697242
1,02563839215854
1,0601667363709
1,08340847625249
1,08930848537228
1,09387629710711
1,12481310566175
1,13012374586161
1,12960324822446
1,14215268083484
1,18215692845848
1,20403004670906
1,20521343304975
1,21607935634097
1,21914415740644
1,19274836875152
1,21061291095782
1,23254004527973
1,21834142845208
1,21047926611754
1,22663440770237
1,20972830479839
1,23088797148512
1,21430890037505
1,20896340537094
1,20811635201242
1,21140749969671
1,22639701100085
1,21531438881125
1,19903257301984
1,19431706015793
1,19745215690483
1,22080462245113
1,24984950680252
1,2506272864885
1,25151112612357
1,27686592017911
1,29152157958799
1,30792950800352
1,32670893177242
1,35056928755375
1,32472879153655
1,32941652661502
1,36460358043289
1,37259007016509
1,37166344409419
1,40194195596641
1,37538197945995
1,38874799837192
1,40348243672179
1,42743322327294
1,41972985433381
1,44586669544394
1,43754519674445
1,44438617754631
1,43693948981355
1,48727634862462
1,46790244112022
1,50173429784854
1,47173306487296
1,48319432770657
1,47059674438641
1,46062663839198
1,4765777463281
1,51655224453337
1,44585708444601
1,48026690554246
1,53222401417351
1,43847946756654
1,40314609158803
1,45613272430224
1,41091646756526
1,39841496412741
1,37560661864289
1,38181440969024
1,40301901298348
1,36511979963306
1,27339022523792
1,2607099868784
1,19759982175682
1,16188060996104
1,14031662829241
1,09206935413296
1,03645361141081
1,01801541690546
1,00444394333029
0,978751409392208
0,945320298759353
0,935843938201486
0,928136940391658
0,931670730257195
0,925956683449107
0,908429665390899
0,893445622181193
0,891281804748636
0,892101797556308
0,883880165010919
0,860192352181612
0,850521094687202
0,847171915248633
0,827606333247011
0,817306223407954
0,808490556059517
0,787114799381421
0,76224141216701
0,742894564007939
0,72842078924507
0,708334384461855
0,68799166791353
0,663894241543106
0,634701711676
0,605213090761552
0,580958631843072
0,552275228115048
0,534885939844656
0,504483248821823
0,483626558547839
0,458339393506631
0,433826272523464
0,418375939909716
0,402960966371381
0,382001239163453
0,371606423165392
0,357753568158559
0,346925653925571
0,334255507582837
0,326306223982558
0,319764463213669
0,309386226214528
0,298187334860568
0,30008553804659
0,299253243985932
0,29306337790545
0,294342827103506
0,285429223540262
0,282942801912186
0,281325068232545
0,285869204704759
0,28956706326094
0,286719127299616
0,284268426175068
0,284892155035488
0,297262202638769
0,295458833975129
0,292426141769481
0,294225590314227
0,297907149421366
0,29648089226607
0,296841214510101
0,29189084281388
0,290513751618228
0,286979899744606
0,286270987127298
0,281396014016775
0,281580993865672
0,284065067965196
0,275688447798251
0,274533017356496
0,271543256246474
0,273731435398779
0,272097736239777
0,271195191758966
0,27634105884771
0,276384368370498
0,276831594714915
0,276406810446525
0,278653976688343
0,283447430414702
0,289434190874312
0,288076977337087
0,290868153427515
0,294508054782994
0,294188959954552
0,294266000309893
0,298819412389703
0,29955858558495
0,300216234275255
0,300317832494784
0,304531643502372
0,306368351089453
0,308843364308547
0,312435236298695
0,308897427110523
0,30747727102395
0,30981887853503
0,313080025553979
0,316543940833042
0,308844471842822
0,316946081750324
0,324647091855219
0,328847287215635
0,338195439458387
0,337504745986906
0,349973412278855
0,350311896545867
0,361441050051182
0,369081396802928
0,376508474744421
0,386877576635177
0,406304989743818
0,42500057403755
0,411709112384769
0,41976426102766
0,433607472221579
0,423216850009305
0,427541376282081
0,422250056983664
0,412626555358592
0,411232969625167
0,396319239461351
0,405796875788732
0,390955373134897
0,390371350652558
0,386884994537376
0,38007284084897
0,382048955092491
0,384087194801068
0,381417651529989
0,382308084731576
0,378058771387146
0,384826031027804
0,384702431155707
0,378696595337375
0,388490392089848
0,387659122985311
0,373220111113668
0,370106094853455
0,375252642614526
0,358812906588072
0,360298085718469
0,364724522809005
0,352216619005695
0,352997546205588
0,35398928545783
0,345003684996588
0,353619881764332
0,345965734656262
0,3387538912517
0,343716356676157
0,342385780535558
0,33607225575587
0,3385613798938
0,338706943853977
0,331040146853899
0,338076103972459
0,332364628486711
0,332217958512211
0,328069646402498
0,32539477270322
0,322895141442946
0,326768603097385
0,319221604579624
0,331682663489458
0,328984096918554
0,3298657277867
0,32318386379655
0,317232145149194
0,32688692282493
0,321023972951349
0,305724649014475
0,312893725669588
0,319503907758331
0,324539321540876
0,314352353927972
0,313463693309921
0,313005365416747
0,308609497416588
0,309560448831691
0,314357854992005
0,305239579970629
0,313775089977591
0,308389065079876
0,326619900269893
0,301074905945958
0,319810456886623
0,307121940948624
0,315371833769645
0,305166404776221
0,325310534831096
0,316898187041665
0,325101743544041
0,315190253460333
0,322905600411034
0,317296399317561
0,322993547684194
0,327067281174116
0,340513312585972
0,338314799726344
0,333189039632978
0,337684676043672
0,329600043850284
0,337198119964519
0,3444001806902
0,363902257841542
0,338682709580223
0,35205516672588
0,360069381871541
0,362078725821979
0,364179444531768
0,365571090221913
0,368955988018308
0,37508549327973
0,390719299437566
0,387762979731123
0,40163591419465
0,392149064988043
0,429266780138724
0,432698318845265
0,435219804576848
0,438590877331532
0,446508386245571
0,455169601537893
0,486243658639201
0,490772829309262
0,543947297164162
0,516892321374081
0,536603929897134
0,538747076030213
0,535354182602728
0,552299986230847
0,534545736414656
0,541875787355893
0,530044469021828
0,543474141774494
0,583976352284951
0,524839463791068
0,548678431954178
0,522723459408105
0,546026635232757
0,520024727726257
0,52540275416359
0,542580657339625
0,547842702280146
0,523527165189179
0,533323908797843
0,513346794580397
0,544292918683456
0,519333062616846
0,526034767940921
0,505624897966871
0,527429822484867
0,501804343927433
0,52968796998307
0,484855627452839
0,526269635066942
0,519344215289111
0,491631645154117
0,494075250435446
0,49839712897284
0,467954397013366
0,490222076531968
0,477140051969752
0,483887663176118
0,5005527088145
0,493640579706487
0,485180290639058
0,48666124714358
0,450994409891587
0,444235758705263
0,490825276703186
0,499261633142352
0,490125937054663
0,507575159500395
0,455898569574569
0,481438992109304
0,465943242128892
0,482510894884955
0,480893143246491
0,493169206996096
0,509515675541425
0,544992100616537
0,574515602016925
0,587471561764165
0,510216145155708
0,527944023204288
0,482056604859884
0,472955881550812
0,479001002063271
0,503749163533372
0,522195271609521
0,55980833143833
0,52831791983802
0,518705268750447
0,534338958786545
0,576408818753508
0,55030388955186
0,523624447966306
0,525703075323723
0,533384060423696
0,515594706673162
0,575206164605502
0,533032074261467
0,533281255425075
0,572798765599347
0,585881824550573
0,630088413371838
0,558732172858353
0,527385832273949
0,636730543932161
0,555367838549722
0,603676675214084
0,555466780850173
0,700044749288689
0,645719790992282
0,663368541717173
0,766283555698229
0,706796835522548
0,664436084905697
0,807335706064126
0,767781237249652
0,796943164075345
0,592241755638444
0,696735571857855
0,655421554472041
0,678338437052948
0,637485995761357
0,723850913000296
0,753868764732103
0,625022374441368
0,5838399753313
0,755104742604657
0,522902822424007
0,597902128619516
0,615851971134731
0,577471330978727
0,572762546964761
0,60719415596371
0,572696640948455
0,757795816952531
0,685984082779625
0,543111688104582
0,528877270910332
0,997061449841035
0,576078488031106
0,815956462528092
0,611996151766925
0,677968014674678
0,639377729421001
0,504388417631271
0,621462860951084
0,713264427000203
0,605822897432366
0,704193317196417
0,648853456041298
0,844219422711111
0,580498306946152
1,05998342166294
0,645206425172191
1,20439936902655
0,786832324127293
0,832987974947414
0,493398789954526
0,655205228995881
0,716814793652573
0,597216577931772
0,514643736715768
0,733194840666167
0,585952750388948
1,15598935574004
0,483037488324009
0,51146290562312
0,550990493131124
0,827296378103543
0,596730212460866
0,500957319120365
