3596
4000,36533379555
650,420452594757
1
2
2
0,0578039844189267
0,0663199835566026
0,0558017504934676
0,0716348985765977
0,0597581254983842
0,0754566870102743
0,0584102309625515
0,0741232276709197
0,053787832830982
0,0744953648293242
0,049963135848819
0,0641860748240302
0,0555230740341916
0,0651694305398019
0,0551411526884174
0,0618906302966863
0,0586970428003934
0,0631300355795084
0,0538357591773621
0,0645920265150582
0,0585818332089091
0,0602333775767681
0,0486144212204844
0,0678655665406878
0,0568421265860423
0,0607291128558065
0,0576615813601594
0,0658691278070153
0,0519209255441882
0,0622722907412363
0,0529587462636699
0,0683631368036967
0,0618976660681196
0,0621212764685365
0,0628213061479186
0,0745773292174292
0,0486436611178595
0,0659472785830235
0,0619636213490051
0,0762112278005885
0,0627485135051019
0,0640964237845526
0,0588157705267629
0,0621185616652628
0,0515303771110687
0,0697552195994132
0,0571180421450386
0,0661160432219356
0,0533674084439763
0,0696920340627687
0,0611437801855752
0,0617018611703698
0,0638693613708017
0,0830287046825966
0,0494474220702288
0,0768151129843037
0,0660912512389147
0,0705207765482699
0,0562712887957753
0,0645062712794901
0,0676991550013593
0,0823477257584809
0,0536045281189963
0,0649259629596071
0,0584261827659541
0,0768884842009128
0,0547060785264632
0,0679098557238893
0,049961172006546
0,0626680103286108
0,052216521325695
0,0778334656818579
0,0706420622861946
0,0696104724500328
0,0663169034472999
0,0729972002216159
0,0517066959582807
0,0684388240879209
0,0454990517039858
0,070768075218124
0,0738853364500059
0,070824390171005
0,0499256784313241
0,0596323280851228
0,0507540923106772
0,0901281697365038
0,0522910623023422
0,053630556458891
0,0796597108852076
0,0745018122340857
0,0513054192832815
0,063686657774236
0,0528470029405861
0,0714010803064926
0,050721339194642
0,0698088922117049
0,0512391408202453
0,0555336707805937
0,0566733552166883
0,0650670611706095
0,062872111749177
0,0716246558106693
0,100987182267225
0,0658142360807655
0,0898320230837703
0,0887075728088842
0,0307538972176849
0,120357887979289
0,0685809774664296
0,0736642497940494
0,0526319550973679
0,0651090618390148
0,0532014813381143
0,0694738386573988
0,0525283992052049
0,0683657784668893
0,0947683557068529
0,0742716389430844
0,0585555208460973
0,0555766325284803
0,0447153586484968
0,0894161907289004
0,113947680760941
0,062905060895522
0,061370820876873
0,0588293509140541
0,0554508747958178
0,102437285470773
0,091148891073966
0,0628260821434444
0,0525468410962058
0,0568802363525175
0,045742360935695
0,0476154961093271
0,0908572463727849
0,0759004756092779
0,0454164687066935
0,0597325540901489
0,0492058305133709
0,115214477069576
0,0705010969733716
0,0620028272748805
0,0393470949522238
0,0599507083277435
0,101332391301794
0,0805498621156654
0,0453412117150907
0,0792528193152768
0,0709807378485996
0,0572884591381179
0,0510598505922226
0,0522373889529677
0,0720206624387188
0,0639686325753236
0,0159772100479619
0,0744001943781649
0,146860630188442
0,0884794871421541
0,105407516069612
0,0739094776544612
0,0602085213289067
0,0768930204035161
0,0528039927546094
0,0599476685072593
0,0486409254177932
0,0553363951425043
0,0591569569269448
0,100974058993382
0,0485753378470368
0,0722656699043989
0,0897227366869922
0,0754533488167503
0,0370643514298611
0,117269709421889
0,0834214576268184
0,0508820918116007
0,099663692048731
0,0734625128492481
0,0408744948461879
0,0573935801360402
0,0916016945323614
0,0614333168799535
0,0567964497172291
0,0587164226260578
0,0528918453811364
0,0712302838969506
0,061595748873663
0,0587466414467079
0,0573726154752148
0,0386624317825008
0,0628519158914066
0,120874647392721
0,0937495197795803
0,0711305044999454
0,0606527241218139
0,0412821219662705
0,0618108523605404
0,104649708989209
0,0459388167723175
0,0589921168430336
0,0489665131444273
0,0535719057306361
0,0496094489508574
0,0591742845003799
0,0471318517035559
0,0448705453182995
0,0865876165831186
0,0908081711385725
0,055237785403901
0,0651086837939886
0,046821995502721
0,0524514652436725
0,0861036094740497
0,108557783579146
0,0496044073135663
0,0696798674738347
0,0439901194353248
0,0708387212545977
0,076384750051174
0,0617408222569456
0,0500896265063419
0,0610216245231895
0,0474357183753445
0,0605034067614614
0,0518255278461459
0,0599290070474265
0,0508012289232727
0,0590097150459187
0,0525708730522575
0,0560171663898909
0,0629941541845649
0,0669129269609491
0,0561102755736141
0,0639272622456709
0,0487560118076602
0,0656535037206443
0,0809629364912269
0,060917501969108
0,059796054934502
0,058268244045034
0,0478857931413964
0,0578408068788976
0,0556467326474688
0,056411755788544
0,0442303273626231
0,0476623034967835
0,0773830497677402
0,0765616266724179
0,0430278070017866
0,0578236240588793
0,0579818433730322
0,0919032039053525
0,044377093300944
0,0649861854100555
0,0533368127435307
0,060359213826538
0,0369072924964689
0,0923262634758837
0,0671278485860897
0,0626310191288109
0,0650725551651381
0,0813143211150462
0,044997866114428
0,0521124965219147
0,0339956879238169
0,133442204932309
0,0864017887426687
0,0441044897481922
0,107920216644929
0,0945997557661715
0,0646986798727463
0,0607051863827539
0,00858300033162073
0,174796362139629
0,13608570947151
0,0713166217348952
0,0655550971860904
0,0745116120382789
0,0499146825586892
0,0571592783310622
0,063479019142958
0,0726941664659488
0,0934902073375176
0,113916086834853
0,108286938694508
0,0679942681048809
0,0638009744625243
0,103337203499879
0,056111735941313
0,0706713899627966
0,0459848639860436
0,0702236730965764
0,0661652762366244
0,0890030180358578
0,0667871052177282
0,082416115397805
0,0513149009010504
0,0889429472407178
0,0680758698769489
0,0612846975414076
0,0602543475446113
0,076653944348456
0,0542179417540807
0,065398366675826
0,0644350548858421
0,076773681386009
0,0507571379016694
0,0539471645730219
0,110169168327067
0,0991637726168868
0,0640832982937499
0,104192160588754
0,0695393168685104
0,0654918581043654
0,0579127584887792
0,0678642054530237
0,0588875649642633
0,0558541041937125
0,0499763623137809
0,0871559378901766
0,0781459821779857
0,0624093518760087
0,0690881077960507
0,0591203631822549
0,0618325759183919
0,0730092429445623
0,0590594240005458
0,0659697462819351
0,0650141506367027
0,0587174006175567
0,0764309657882137
0,0989636026015566
0,0603332926040987
0,0855294849064776
0,122526067485138
0,0736393544413664
0,0641580914633417
0,0668562167542009
0,0598448529102255
0,0663112088555059
0,0667804330958571
0,0682418793380987
0,0720757517125543
0,0914551793773584
0,0808209652196239
0,0788468589007268
0,0705799088345184
0,146592191058612
0,137965107657709
0,112367290440646
0,0732555408120836
0,0708417451034596
0,0814101288042752
0,119889437568002
0,0811055324515176
0,127958235536038
0,0844491017795792
0,0884300582887962
0,082199729510377
0,0814437661331311
0,0810420999005756
0,0849521876700572
0,0886006766024115
0,0836072862108473
0,0861502501386557
0,0929058048287812
0,0885844346638169
0,0914164581735425
0,133914466040374
0,114561096836846
0,0921285420670248
0,104989294352263
0,0995458900196882
0,11364770881098
0,144843185218636
0,131735120078218
0,143579402182721
0,137735607822816
0,148688501387987
0,123492162765237
0,109472753599684
0,111264902562276
0,106420198323235
0,117351640756219
0,108318537653483
0,11525369470457
0,119438047486951
0,126607227747408
0,11584709995448
0,12381859439945
0,106787089978657
0,123542074945797
0,144309299407839
0,144038813373572
0,11962176171559
0,134640983112355
0,115448666298375
0,214192654684561
0,163861157855483
0,153763539704321
0,134608095040932
0,155828783126835
0,128716095962351
0,145410524854862
0,136421903114145
0,155103185288588
0,145734203107314
0,179908682434643
0,172671280797837
0,179874620030569
0,170958558576524
0,16135382966131
0,163466584429259
0,171595085161953
0,162956339323638
0,206959902628896
0,16722441311486
0,166996727796639
0,186861558883451
0,197633347857025
0,176769562196216
0,192813707375316
0,179213649331555
0,172915273281628
0,169152714082225
0,179723144023457
0,183101192928997
0,196698841255483
0,191776780391741
0,190594239761456
0,196898254659495
0,190277454726455
0,188441514509078
0,209465976995823
0,205380553749989
0,209099885370731
0,214036778503705
0,212169892464494
0,185816934719035
0,200447839850553
0,216213941979186
0,259997456507222
0,230284791622665
0,254939460595125
0,222469191199325
0,218223812392872
0,230418867312212
0,225131609925076
0,219783048912409
0,24691671462508
0,23372139919483
0,229355109946797
0,233564521275679
0,246436392422665
0,23101657511118
0,243226317434176
0,250969822783764
0,254690342326481
0,25114585891802
0,258543152621673
0,249325291109285
0,263510931679399
0,282619405030912
0,304236098587711
0,310329126612162
0,308555321349172
0,278013403525513
0,28070761442486
0,275229899454951
0,273334257654383
0,283779177419827
0,28278223844342
0,287244649003939
0,2870038089847
0,288564348928466
0,291471505746652
0,301903773440812
0,310058864335751
0,314432656715012
0,309969850444244
0,308885583017754
0,301182462014214
0,297154834459733
0,310082107511712
0,32761460373537
0,323865363692475
0,336221106405352
0,352169121509878
0,342954848997357
0,330127456531622
0,347778323194688
0,336801200814071
0,343098752734676
0,35186125856025
0,334374835430363
0,347122454037108
0,367527388114526
0,373036704172898
0,366127068995933
0,364256735558035
0,356140177508373
0,363002683592406
0,366959606282824
0,378441068936095
0,359273232372165
0,387217707087772
0,382491077836124
0,379371052208304
0,385713480222515
0,397289615898593
0,400271343504259
0,404060216557936
0,409848337738752
0,396887112172672
0,409736518910635
0,42568528970894
0,404942638665388
0,411894983302933
0,424232901771531
0,408763245052268
0,401685831882874
0,433030648279139
0,43357134579353
0,434744682193984
0,434061571734495
0,462870454198962
0,442100848527261
0,430626663467077
0,453263452915655
0,451679690328116
0,448030622378496
0,458832231990329
0,484137921968133
0,47248602000208
0,45691171242402
0,475530016051056
0,480240060021474
0,488625480514197
0,484901513674624
0,480892633661307
0,494037622159775
0,486184986467535
0,495738686812417
0,488611935462925
0,483467676186594
0,495251731803068
0,515845693482325
0,508966410863059
0,515786033125395
0,530563205414572
0,516797030243828
0,549375777149034
0,540809295072482
0,534691273718169
0,540107061047614
0,514285154168875
0,55786158298671
0,539239841228337
0,52439961213749
0,536067564520324
0,550653273396478
0,565562090237
0,559770614875924
0,566426990796751
0,572664528797554
0,562389758789052
0,578477690212703
0,563843098022496
0,554817697184365
0,563502374827044
0,576963000130082
0,579892640745804
0,58260817210319
0,583094008465076
0,599462859761674
0,594100321071629
0,5860435439448
0,590304661490484
0,633936820653856
0,649111179692697
0,621101604926728
0,60345053303601
0,602342385928576
0,638634419919465
0,624916351136223
0,65029014527726
0,650172093788191
0,61260561664195
0,634082121747751
0,649751825076533
0,630504599143907
0,659244438896834
0,646253682861858
0,666144861036411
0,651766441433377
0,657380742558775
0,673220904751007
0,662051805651754
0,67756975111656
0,667418290752411
0,648591267435132
0,647745008049378
0,654570353835836
0,665146583091742
0,714276681527587
0,6679377316832
0,67982252309415
0,712654037088203
0,685376408553424
0,660255483995245
0,687132148930665
0,692840635112941
0,690377240568408
0,743709605541183
0,717533867205075
0,717884814359678
0,741637303484468
0,74741809012464
0,747940509045752
0,728669713323588
0,713775290203194
0,707340291831818
0,720868951777841
0,714330091513661
0,770765424384714
0,727799256502738
0,749964581559814
0,735029078768286
0,753662771502816
0,742549779451835
0,748462769002985
0,733544482485155
0,72592002406486
0,699989532102498
0,741440996862572
0,767310031027685
0,775742933858795
0,74645383411906
0,767039347298501
0,741782991180346
0,746599583342257
0,774532491974191
0,774484933499925
0,788685307314393
0,784020014519492
0,801842558254326
0,852635697072051
0,774399240406998
0,769929426624575
0,789525611748933
0,798648771595701
0,803086557120923
0,79663596557903
0,762424922349103
0,80053458343368
0,817069471549274
0,825737362175821
0,808569375977917
0,8539876019668
0,794071170020299
0,813869610652723
0,807386097351866
0,851014745317064
0,834770868428731
0,811464007375645
0,812366774152707
0,823448958737919
0,825584047805257
0,817939518164271
0,834990330862944
0,824568775218031
0,814731362731144
0,84466218723937
0,81667870824306
0,829575296281596
0,815192742215955
0,860571776375737
0,843963335401583
0,829386602798516
0,825723171535144
0,864385424832942
0,808261521133547
0,85779371367679
0,823190638098884
0,839016449409505
0,840012016143829
0,851952223010799
0,826347397141505
0,833200899329517
0,834026431303132
0,862568916160858
0,831852041366175
0,84522622253979
0,844443238113436
0,849387774825408
0,836225381143954
0,837006742889458
0,84776861130112
0,861721281087657
0,857704932791044
0,884022635602712
0,866925960247998
0,862818168688696
0,849396503980756
0,853078791432778
0,860993968472806
0,868409459890088
0,82655810562885
0,887647577352927
0,879893626484963
0,892598418489954
0,847058535101234
0,879086429429316
0,86734114472806
0,894552690586602
0,90356104638678
0,847611769418464
0,852511792963265
0,872738459839994
0,858917479538629
0,872461791574449
0,897422976924061
0,903904118093588
0,884813225481866
0,898691559840042
0,852578009328972
0,909919537321697
0,865507652922576
0,882950013110282
0,850262834907779
0,909205610014304
0,859503605423465
0,892211228825898
0,861581793945933
0,878734080820989
0,844417910241046
0,855545727584123
0,856447285204107
0,876359165687735
0,868462430079558
0,840951615148956
0,838494936545401
0,877780581290999
0,837524282777117
0,861689512360864
0,871436460010172
0,859225387908979
0,835583284332305
0,88711527365686
0,846672259009014
0,858551837923201
0,882011927121328
0,901517341059163
0,856393266531817
0,900483376707039
0,854618820507599
0,88602544203808
0,845029082092459
0,857983185349515
0,872854299520623
0,885905046999735
0,874315942421539
0,852051158281915
0,857898891774392
0,875381847861097
0,840594912254646
0,847129203630087
0,865953812685479
0,882307350772318
0,837507031832322
0,886823889659884
0,876299879047282
0,850942101724725
0,840731250382781
0,856904083832122
0,848509284482386
0,907981167811269
0,835974170641561
0,860733735043295
0,848144347591434
0,859921124156045
0,845612416069103
0,840903609365682
0,832190369676469
0,826384173388395
0,836938055457264
0,845750984851936
0,823968541278463
0,86436162663595
0,825263782481473
0,839695111824898
0,836951122343047
0,886376676536012
0,86066310599637
0,829473875665943
0,817937335074448
0,839558976208136
0,824183567585451
0,823396648460739
0,826645749937571
0,836457188954014
0,835475651734176
0,858764424074055
0,814104312033199
0,831269804335071
0,828405372335842
0,811552845899147
0,796459561714608
0,820001642937955
0,85473877639215
0,829004537491638
0,809622158984419
0,842046093552329
0,80306484786024
0,831873345572901
0,798554844466513
0,795832398225788
0,79418257477676
0,818087312458084
0,774863257888403
0,798434525768196
0,775475555405437
0,804942200897481
0,766559541010276
0,802764271046314
0,77572355306382
0,771977556018953
0,791202242704355
0,816131363129061
0,783142305436713
0,792461446677896
0,772901889385987
0,772234533030031
0,739599939071124
0,785166831707234
0,757178392555538
0,751345625191303
0,762598103309853
0,78932875073138
0,744592912920191
0,770889382832128
0,743893339954823
0,762924433156987
0,760529111583293
0,767679484815094
0,736595234605773
0,761911407584222
0,740060012403942
0,741462384925567
0,741168303548871
0,751841869386402
0,731736334945011
0,739940704316382
0,719497059473783
0,764320654804616
0,710585836580579
0,713681896497471
0,708644245458844
0,711095720892993
0,705006381170472
0,732670440904648
0,709818970687354
0,72977536365429
0,714473194223251
0,731883670543533
0,697780566933815
0,701493946458365
0,670831781131413
0,712784197334619
0,683108130064519
0,689772975528222
0,682746704030561
0,697738389409569
0,675224467626211
0,69840810201769
0,686453978703228
0,674309192743685
0,673239944061922
0,675271819998797
0,666602517469501
0,662854259401323
0,65316814725597
0,655834214334334
0,637265985322578
0,673434623743424
0,64673125009125
0,668715573263477
0,633939022264119
0,663350774046227
0,640809677777341
0,63833890029278
0,644679107035436
0,635417279092271
0,621663235855188
0,644103103138003
0,623497066626718
0,639863722246059
0,623899890088718
0,61739194758683
0,605994212803703
0,631097735561525
0,598998381569472
0,617314359627648
0,582175900291992
0,609631863634477
0,599450828550415
0,599251883865265
0,601399579990049
0,604007266576641
0,58903944706247
0,593571005142764
0,583112862393765
0,585202065973184
0,585502677689953
0,574239412194069
0,569126339644009
0,579601835023734
0,563241200643939
0,564635293776931
0,571935998113248
0,573619704798755
0,561843401342347
0,556001143564514
0,546941767451164
0,558215446538578
0,565034861924571
0,550028095936388
0,545721750447448
0,549127755981382
0,533023287601823
0,541840673475154
0,534075047321324
0,527448647558121
0,522192137777987
0,530584200378484
0,515578921016854
0,515189349358557
0,509794811378911
0,514158304940545
0,515720212309198
0,513698046975897
0,503760059600862
0,506988378914336
0,510406785840236
0,513642792395056
0,501670549838174
0,519387750910975
0,48744394964634
0,495837603414441
0,485647486181397
0,491980143378662
0,482802163187618
0,483376800549125
0,47584120700942
0,492119026181956
0,483046741129175
0,478493078953682
0,473080251042427
0,473695826785836
0,475868146176996
0,469930646825103
0,471578340368841
0,480346290768659
0,463161379572406
0,456575192567347
0,465279926392686
0,459815907008358
0,451001518077876
0,460634332867374
0,4623016997421
0,450162992454945
0,444743450244538
0,449875639658117
0,437384093054257
0,434975848226118
0,444967939997147
0,442294832211236
0,43395356663038
0,431402888601353
0,428305912400081
0,430575767251757
0,424929272393416
0,424446898245404
0,430112248392682
0,428608823270974
0,421848285101151
0,422650236471526
0,420516342273552
0,419944778177184
0,411879373505642
0,413095039453029
0,398478339321757
0,411288433741091
0,407072946370206
0,406615530214693
0,400694130187339
0,412501534281097
0,407296025038935
0,397839589423278
0,396915646557718
0,395979291351046
0,394670114626484
0,394391161748202
0,390886405996052
0,387904238425472
0,387348146459914
0,400213589309768
0,378984086792175
0,374173189896373
0,37966026470101
0,37946986432696
0,3714693649184
0,373562978855151
0,375633905993529
0,368641538350995
0,368878541078008
0,371717843543557
0,367910387351443
0,371281074209802
0,366030404856495
0,356717104483355
0,361909873686005
0,35534676331009
0,361339185516103
0,35525299499364
0,358552201946211
0,355807896181134
0,354932237039919
0,354319817813266
0,342239320855076
0,349052301308836
0,341871007725769
0,344888100529587
0,340066421680996
0,343464584032937
0,335154673663148
0,341835509478497
0,327316217456132
0,336236545037288
0,327634852817716
0,335592303261304
0,328111144120737
0,327967461383952
0,324296134192116
0,324419612078133
0,325951189376928
0,330891852655005
0,326731170017376
0,319056188468984
0,315548141136535
0,31501314552349
0,311999524766016
0,314828920288737
0,30693774857097
0,311836856727235
0,307260033271407
0,310158624584029
0,312902642139365
0,315391545793273
0,301479108316518
0,310718626153384
0,301216661788678
0,307068635497748
0,300228823799229
0,304197861916924
0,298459508717424
0,301793907595352
0,301341865248192
0,305456448824932
0,303082221242657
0,298945073432483
0,297671470531323
0,291579582546806
0,296472177254536
0,299019274384427
0,289585273553099
0,292986315086381
0,298324180088419
0,292773427042774
0,291411260213222
0,292319776078726
0,29306580964472
0,296754762848335
0,290094826969294
0,292639411421589
0,298173809221856
0,299705900844029
0,294804468554583
0,293136577264003
0,299057848120991
0,292828535554633
0,293075027008865
0,303441853466717
0,301201125976158
0,298714643172083
0,299741509162061
0,305540628525844
0,310165516838096
0,302956423703957
0,293408709928247
0,302793737688541
0,309352546405502
0,306518831855273
0,309952154074334
0,308193531135142
0,308480436120734
0,315442983620901
0,306970447565757
0,312476716212887
0,31605632865215
0,307880641984693
0,315499617014259
0,31107721516657
0,316254096505432
0,315973019473315
0,316724003637771
0,323169150117582
0,323979870664853
0,329896718033602
0,325083653768504
0,341665925056967
0,329455403235674
0,335456682751888
0,332678111438543
0,337613303193339
0,337842232466772
0,340718802454535
0,345143781403977
0,345665824491937
0,345469324964415
0,35629978658096
0,352616932901495
0,356751421636769
0,357821365378211
0,371256242355332
0,363575637825148
0,370366586983026
0,358774315557734
0,362049821294249
0,374073034909418
0,3775624190023
0,370771636311222
0,380761453051783
0,369754007146356
0,378629375287499
0,389449200899292
0,394364231729108
0,383637638309579
0,390873287012194
0,386842153958198
0,390714684726399
0,390522000926559
0,390787603321892
0,381724602573201
0,39243046806786
0,38173459535866
0,39328225875797
0,38127154456092
0,389018544007397
0,382836574062602
0,374500707818761
0,378087108650691
0,385383720462537
0,375417329198036
0,383960245095205
0,377076657412489
0,38919875912574
0,379201419213956
0,388501988302594
0,382505774023121
0,384957865852409
0,38136973680828
0,38523271826356
0,381743781410629
0,375588642095014
0,379190542606949
0,3880973720703
0,38300918689389
0,379292697354742
0,384320565321047
0,384944727650095
0,37811819043044
0,374475655859005
0,378376526924585
0,37639539199639
0,381341380559152
0,379451626593214
0,38496193803813
0,378972776460437
0,383122499763516
0,381010900101252
0,381612247809725
0,381537487137856
0,38357096133584
0,376440211936478
0,385548930407952
0,38639467335899
0,37490787278922
0,390066312047045
0,381886938424753
0,382834469671214
0,371369555607545
0,369441044782984
0,366272137501608
0,367596694637523
0,378262647712473
0,369282194864446
0,362083440422877
0,369277125555472
0,366255360013598
0,364232161560016
0,359223849775642
0,362291373510265
0,356897706105775
0,358179774051142
0,352870558748755
0,354951835985835
0,34034420336619
0,353890721561168
0,339179361514154
0,349313111082578
0,341281846212723
0,340476214510126
0,344373791310579
0,3263695643255
0,332332104533451
0,328808190676548
0,327198499424537
0,335417281275964
0,315865473461328
0,325203115915936
0,313735887350804
0,317865572559325
0,31259544252482
0,309166586742031
0,304707922659281
0,317660370212453
0,305029643046891
0,307083269925911
0,309035918254142
0,302236807178034
0,296557247619337
0,296219389243251
0,300669695461147
0,297811308127347
0,297186127187221
0,293331875766509
0,290833791128323
0,288288696174646
0,287897938682282
0,287039772497012
0,285157828841855
0,286453485409265
0,280293400715967
0,284585758778611
0,275732119950799
0,280013914788232
0,280405540512108
0,277117743031401
0,278461620061399
0,272979866930563
0,271988206204081
0,272893601131439
0,267512830747689
0,271636899986342
0,262276807283469
0,264158240230657
0,26974184076433
0,268623865378077
0,261702473072121
0,266997498098269
0,260353273793059
0,261235994174563
0,252075383152503
0,26040743873541
0,257489660733866
0,252759616444945
0,255951747899638
0,255193725561683
0,247904180898062
0,252367869082765
0,248885682574284
0,247052681982235
0,244307704914056
0,2442708506459
0,242278817301655
0,244555811203139
0,243695740298481
0,23849649570372
0,245173138278415
0,243092138527843
0,240914673120868
0,244802411601527
0,231764112447788
0,237266836222687
0,237223741252757
0,237973728142858
0,228778822038886
0,239772552918279
0,228754797514767
0,23509795648563
0,230782379145058
0,229172012867064
0,226924637085347
0,232164583869125
0,229548867178995
0,22745443918373
0,222552138589807
0,228716137169331
0,230108879368509
0,225296013431418
0,222432001610739
0,225261196262902
0,221083566311141
0,224004112463958
0,226066323307269
0,222701373792138
0,221539369212232
0,219820194661874
0,21733008203677
0,225890659736373
0,224242989438994
0,217316070895612
0,216527820521569
0,214772017333565
0,219079192856935
0,217270449652089
0,212667554843868
0,218382210969373
0,220020846621122
0,213631152958383
0,208504487145845
0,20920308509283
0,210450548267741
0,206956725087016
0,208175850253739
0,21059774372932
0,206558379826614
0,213538277086611
0,21583770286245
0,208744060925689
0,20918708519861
0,203846410724494
0,204505206947443
0,20590578854345
0,206014514158414
0,207080509435535
0,207026955206967
0,202083264817425
0,202525315118956
0,208729780285363
0,2079466022365
0,20252461588399
0,202282458825502
0,199117043894964
0,205604794629574
0,203419125815657
0,205005718523539
0,202508121856462
0,198205422680224
0,200470538045363
0,201232283602059
0,197039217840883
0,191924656443057
0,201968644625466
0,195987801578971
0,19638192044436
0,201108015956497
0,200589836813291
0,197481305691063
0,19150188335233
0,199946329943541
0,195582145753395
0,192288959325895
0,194753245256566
0,191171876354447
0,190553744990215
0,192672723339256
0,193758100477888
0,195593329602553
0,195217576224072
0,188692177642025
0,194204321818534
0,189239019607017
0,190441379982674
0,18859871612995
0,187991233666972
0,190104915212658
0,189398220583462
0,190296705704666
0,189667044555554
0,18469197604878
0,189681133002997
0,185943101612915
0,180445391851234
0,18406645111112
0,188396346076961
0,188674270712083
0,183090758119322
0,184754856533078
0,185212941813941
0,180863778764778
0,181029504678926
0,176070025124603
0,182399430877679
0,181949700648862
0,179178325696842
0,178809710892115
0,177149848992955
0,178406938625733
0,178473505309845
0,181193332119959
0,18139213949845
0,174394691156586
0,169128299505245
0,168473871296445
0,174995194035207
0,172051391604579
0,171060578042268
0,171336075998405
0,171963490291198
0,167027834620051
0,17043678365139
0,167997093636055
0,172440440053788
0,167657867942169
0,168343469239592
0,16732984156083
0,168775903425757
0,166689361651821
0,16779156290461
0,164730907479528
0,162378172854785
0,165318238125093
0,16503163054131
0,160343335456509
0,160452303611441
0,163998897130568
0,164458116428012
0,161419344882919
0,161291133977076
0,163670579724084
0,161379094043202
0,158272199433127
0,156886822903284
0,157323062463999
0,158330210337094
0,158669438558238
0,153218220563391
0,15382904081713
0,153872679327384
0,149506937327215
0,155306628930578
0,15400009375405
0,153849536159268
0,149023395750036
0,155012289234381
0,148992458495374
0,146521035751451
0,146903221272053
0,146325959643491
0,142008325965756
0,145573528134195
0,143683388293925
0,140858909575203
0,145743760462017
0,141858548978666
0,141485327399114
0,143674995331869
0,141463289482939
0,137568416690328
0,138603970825842
0,13912513513086
0,133538095505385
0,136975607721543
0,137059936699384
0,133811242043919
0,139063319018039
0,132606183765063
0,132449665708333
0,136237442111049
0,134066735208806
0,132297983327016
0,130567899806821
0,12953040146535
0,130618680211622
0,13235292364115
0,131065832981216
0,130955488069144
0,128839812512975
0,130353620210626
0,129975014273382
0,12706197918986
0,12464771812979
0,13020442845041
0,13252051690278
0,124997774216883
0,127211888687248
0,127498006086708
0,125596661280191
0,129102196518257
0,123245956386544
0,121679199252494
0,121244940453213
0,120304591610729
0,121262501803016
0,119255403914162
0,121255066261537
0,11976266064371
0,121836161852417
0,12065956589841
0,123131884264159
0,119555599699985
0,122063231166229
0,117191797313926
0,115734151659151
0,11847734289642
0,119704634961749
0,115565120427076
0,115115147348597
0,11674945239768
0,115974841888921
0,11582858607326
0,117371999232066
0,111742771298331
0,114442224279383
0,114938733595595
0,114428308672625
0,115692149956849
0,109376969882369
0,111592302610721
0,113131492963146
0,111967553669785
0,109740771991408
0,110581594820458
0,113000541367731
0,113311413676403
0,1080386379795
0,111482684784425
0,111181324565158
0,109168792348729
0,114678113475394
0,110109255471247
0,110599864575307
0,10716363531273
0,1079477645748
0,108611532995262
0,106624045167364
0,107581333369004
0,107916754856571
0,107362974642646
0,10857566550638
0,108817518373939
0,105926213922002
0,108889405567277
0,108240400798914
0,108656604106509
0,105406370221761
0,106797076332487
0,105313103660521
0,10433545560202
0,105808883134004
0,108818979777135
0,107176501721268
0,103858964284219
0,105876286088422
0,104979169823472
0,102050334609335
0,103500022210423
0,107213111868299
0,101869475762594
0,105278125227621
0,101045415573399
0,101198239353993
0,100468674778985
0,102375193758881
0,0994400375998501
0,101582856320656
0,0985607623950584
0,0982930457422665
0,0989177969253384
0,101476004985617
0,0995235452646468
0,100335352485444
0,0994015443924668
0,100457975294473
0,0974525859297714
0,103012408692939
0,0982964153477137
0,0969485205076218
0,094124638765947
0,0962543670327624
0,0966909109966639
0,0964318742892881
0,0929121966780264
0,097958245323648
0,0933766004009412
0,0935537088963212
0,0935223582597787
0,0968014197086108
0,0961859338490527
0,0962281689077231
0,0934910283931041
0,0964768454218887
0,0926299498152421
0,0949959139791296
0,0938998065634439
0,0971646952298935
0,0926375464387477
0,0933803852021039
0,0941869748219141
0,0926438118425126
0,0941957902138488
0,0946011503916312
0,0946129291043166
0,0943629025676494
0,0912719360214917
0,0927607839157884
0,0911015843140571
0,095150383107916
0,0900364999800808
0,0941354783583085
0,0905232777781706
0,0901394884705317
0,0919673211446108
0,0882371929013782
0,0902623812154639
0,0914197182879174
0,0885859559367225
0,0916114267056799
0,0880758475058195
0,0869806650564195
0,0867923605188441
0,0880461394425157
0,0856049552764386
0,0874580878900859
0,0856548905848527
0,0874983479286107
0,0864652615769815
0,0846505700821596
0,0862314188607738
0,0870569794044366
0,0831987231180193
0,0837218968645899
0,0831567290787344
0,0844620906322331
0,0829168690628223
0,0847181255543502
0,0790200157436589
0,0806434145382676
0,0792302136082682
0,081321934227636
0,0776543030385763
0,0820723235213846
0,08019515314898
0,07810872543348
0,0777609673869207
0,0807532287205026
0,0788371379194241
0,0811812497117119
0,0784465555854786
0,0783655981094608
0,0776586857312281
0,0792609751678504
0,0762055720840532
0,0778897750344386
0,0772847627774093
0,0789134932831622
0,0774459161401315
0,0772827988482512
0,076138397582839
0,0753621281502995
0,0748025720346871
0,0770120892182725
0,0729975437819145
0,0747398337294898
0,0731345650526281
0,0749684763747468
0,0742137573945628
0,0763713317079466
0,0739703378366169
0,0726836621691853
0,0719051891077934
0,0735871064963432
0,0723796894937572
0,0730588260018574
0,0717023536882581
0,0721502509906952
0,0726455038583448
0,0727285515447887
0,0713727237739662
0,0710166364610372
0,0701596595000403
0,0734435719978321
0,0688210701208516
0,0719560729247743
0,0702485839206107
0,0714922007201529
0,0680396216249127
0,0698269018574436
0,0705503195579672
0,0706269464984826
0,0632009589832614
0,0695935988881396
0,0666319687832689
0,0690029590896625
0,0694266745426884
0,0650221060107889
0,0644558778243108
0,0647926284582351
0,0652187883968161
0,0645308716674949
0,0669931977415111
0,0653542571272392
0,0616271857511587
0,0660184662049454
0,0642450752479347
0,0635221274341205
0,0639463714061769
0,0656862156554493
0,0613895031752828
0,0626253438494219
0,0623053278958573
0,0622371254608485
0,0622963334969342
0,0612075962204328
0,0618876846376195
0,0622504860032139
0,0627341425067293
0,0647101414369784
0,0628232198350944
0,0607951024537321
0,0614181464538279
0,0623249235089377
0,0629991178629288
0,0616281891159357
0,0625174401205155
0,0675339648961828
0,0623710793605101
0,0634621837092037
0,0634249937677966
0,0660797831201347
0,0661150686128922
0,0658465018137526
0,0674589968457392
0,0654652654108273
0,0616315809950611
0,0642925873459824
0,0589252455957164
0,0625881857046425
0,0595063574282276
0,0598923967704837
0,057659709126235
0,0556928667798572
0,0581242635445705
0,0586685387189408
0,0505471088480347
0,0556432968651781
0,0582267759244917
0,0578845259348995
0,0536521548476727
0,0585457084343505
0,0562780912474643
0,0610735083252694
0,0611571955821302
0,0557228032410378
0,0565815887402545
0,0602613794874078
0,0580451104380006
0,0607532002491342
0,0629493817271967
0,0617509141985881
0,0575351210284365
0,0556500199334371
0,0561895560887523
0,0590273519317905
0,0595525060335836
0,0543137012205163
0,0562472246634549
0,051749820212693
0,0582882490101135
0,0507910404021005
0,0585974534551825
0,0477074951725397
0,0620525202887023
0,0459751716175504
0,0604575082387139
0,0429285696349898
0,0695455759992575
0,0382714152118394
0,0701538456806034
0,0417742642943107
0,069934336328837
0,0355270397554889
0,0781504336468353
0,0316241148204307
0,0820980275470546
0,0320219986472999
0,0822908646736931
0,0278810650092118
0,0838827423557028
0,0356211924569795
0,0783720570479313
0,0317900149506387
0,0821934919277673
0,0458812366998444
0,072535651898871
0,0509258018499464
0,0630750762225168
0,0580089075827229
0,0511106254419713
0,0633769706048555
0,0463345567095244
0,0715607218158357
0,0451659713604307
0,0660305443053605
0,0460345005346966
0,0649938599694681
0,0518923209684141
0,0584561458637739
0,0550173467700908
0,0547280114966068
0,0581662654870136
0,0527234306579432
0,0535303287422606
0,0554719523132655
0,053391084042758
0,0594482345482762
0,0521702967334316
0,0593874252866255
0,0517651364116636
0,0539046844835593
0,0525229485502717
0,0551478123232117
0,0516079064363803
0,0534788682462068
0,0518926838766135
0,0560798727483565
0,0510876895250633
0,0560863410748545
0,050468840075637
0,0532508350881246
0,0523823258642835
0,0539787564489087
0,0504363760014218
0,0550749357728382
0,0531823027998641
0,0537146171128262
0,0494221816849944
0,0557666113828473
0,0500829602218265
0,0552150339677686
0,0521099789908713
0,0559245075402147
0,0514199028397074
0,0549567510539086
0,0527002656499201
0,0551117679490992
0,0538098323448211
0,0542085006797477
0,0531830155617341
0,05506561573385
0,0528690561052247
0,0532870969447535
0,0498762054013348
0,0559708150602753
0,0510686153341724
0,0545947311251842
0,0545401406176485
0,0573845452306391
0,05506300718527
0,055795137904287
0,0533835681298632
0,0530802771753343
0,0513252938317322
0,0573664028630168
0,0535755846248435
0,0530501660551678
0,0505798638209706
0,0564273685076266
0,0534638232122704
0,0554871882077563
0,0531450465708344
0,0568037764740599
0,051028504044763
0,0528160810405253
0,0520857365364759
0,0539254082044996
0,0535230221793218
0,0538301332192418
0,053120066062592
0,0574384329994191
0,0530846687936294
0,0541224946896485
0,0508472802589988
0,0560700126243894
0,0522949105342189
0,0530951022619195
0,0509004528591139
0,0546150894886408
0,0523570134872221
0,0550717040247536
0,0553930405611244
0,058152983275156
0,0502160265684885
0,0536804972026391
0,053697725993824
0,0548626147929827
0,0521519496185357
0,0563820449675657
0,0517572691803789
0,0577489779140571
0,0530780616054449
0,0555840360069922
0,0562749747270084
0,055740149421581
0,0548524321101887
0,0571668311108439
0,0549786237979875
0,0575454638927818
0,0532931403486169
0,0552047874558892
0,0557022850362538
0,0570211307548427
0,0529015763510265
0,0552654827872897
0,0536791748861652
0,0577451886069747
0,0524816150642124
0,0583581924630569
0,0544032714064258
0,0565934279757134
0,0567372854759107
0,0574999827515482
0,0534770997698433
0,0571806729045101
0,0534570273014498
0,0573694404754606
0,0542940715296243
0,0574001676573147
0,0561558494845808
0,0596787969702554
0,0563157822660761
0,0592549060383373
0,0551847585756721
0,0581154232492118
0,056621019766259
0,0579067721636167
0,0566953988125979
0,0601343793203834
0,0563955419493338
0,0563858468592246
0,0552302942174775
0,0567435619347133
0,0562311053719181
0,058844675999069
0,0571228860727266
0,0568299296224783
0,055277924163815
0,0598645503284426
0,0553709225824283
0,0567641211229491
0,0567204727871343
0,0597816631226392
0,0572816579793868
0,0600426411298333
0,0543950053813741
0,0584306264631681
0,0558526265471172
0,0589720211582796
0,0581161140798399
0,0587260496077107
0,0572081134436922
0,0611840531543234
0,0564352108398595
0,0613711206896868
0,0582554552515434
0,0598073776178388
0,0599044556054289
0,0634187268896895
0,0593433438594073
0,0582764027270954
0,0572461710763597
0,061342206467554
0,0591759961624211
0,0632820727825887
0,0614803794232466
0,0610946645981309
0,0569987526696556
0,0616271575238328
0,0580819359135325
0,0594995876297503
0,0573173289543916
0,0594836221882748
0,0566849313692984
0,0591995115132474
0,0560085061672248
0,060486075194648
0,0577201172909822
0,0586051547998749
0,0580976013489011
0,0600219314570153
0,0575251783158524
0,0593140183767627
0,05469906853459
0,0574624249867781
0,0535889640780742
0,0573128421558817
0,0556388431642676
0,0585052832877709
0,0553768219981501
0,0593427813795898
0,0549882411644734
0,0585030444471552
0,0568936862580075
0,0594762825545009
0,0576937274223885
0,0574560399982094
0,0548601709459261
0,059955132870721
0,056217558775487
0,056656912661574
0,0542429621597047
0,0583526146138364
0,0517269582789189
0,0551813598830517
0,0535288394119547
0,0552683064011642
0,0539062302002369
0,0582594984587093
0,0530178404154672
0,055388807070352
0,0553544638475729
0,0577938284245826
0,05463189609841
0,055634323686778
0,0521938416967332
0,0550453902158337
0,0546243784322058
0,0567239812912498
0,0530623565556211
0,0582748143973546
0,0511087146472571
0,0559770153808451
0,0555595241163341
0,0564741638146465
0,0541699525866722
0,0538967026861209
0,0515720811058302
0,0565632190581812
0,0545291939207967
0,0544046373832367
0,0535416031354536
0,0564641733565278
0,051782054074659
0,0564104885603756
0,0525425198646451
0,0570909916369804
0,0512980825023267
0,0540314613283069
0,0506996062829526
0,0562455457975229
0,0541142285317445
0,0553472116434026
0,0512473163829466
0,0539024480867861
0,0531858540863845
0,0555536067851506
0,0510361059546152
0,0545798887331042
0,0542080862689995
0,0548667303225513
0,049152630847485
0,0536978087708152
0,0490623611715031
0,05256000799812
0,054710538657984
0,0566048010857926
0,0502894189649924
0,0503409539000861
0,0533407324213884
0,0540195500405684
0,0518635931427165
0,0517864617504339
0,0514552104816626
0,053287653163652
0,0502052395442697
0,0525435460709994
0,0505432253670853
0,0517257858432161
0,0528316163464698
0,0558478261075201
0,0494570774713813
0,0530237786575931
0,0515031896232314
0,051276658267078
0,0476205733929988
0,0536419750525446
0,0503183502758034
0,0528324829459673
0,0509504017800329
0,055459186964949
0,050025681668698
0,0537452564540838
0,0487429719189662
0,0526742315976466
0,0479652841552716
0,054871711494842
0,0476041585268006
0,0494829074939844
0,0474742650222938
0,0510997102976055
0,0485958186650612
0,0493151010289088
0,0497687594641826
0,0518791721101854
0,0474064868710602
0,0497294128919974
0,0470667583041759
0,0509785537060016
0,04568095440953
0,0500092779370545
0,0470643147855999
0,049975627631503
0,045466791526738
0,0487232675162239
0,0426007523644524
0,0510591137818057
0,0478753316583334
0,0529053650169572
0,0458748983836999
0,0490671084354683
0,0460417593683446
0,0478522547996649
0,0429057253427342
0,045234826988298
0,0431787731398482
0,0480096145507218
0,04442733047358
0,0468342777672284
0,0415464066194019
0,0451223940687013
0,0423307384896515
0,0459408718981591
0,0415341931064869
0,0437451367548675
0,0429632453703054
0,0453978746375292
0,041515134462911
0,0424294465495906
0,0385629192603041
0,0444069588984853
0,0402274174755841
0,0439797934338615
0,0445035351580662
0,0525856157186437
0,04911728129685
0,0416145904461026
0,0462465899067328
0,0457001104925741
0,042748833259456
0,042994694258004
0,0415842935473886
0,0415211475981786
0,0417839188736332
0,0430715158439193
0,0408157257950205
0,0429641200528378
0,0406449808615947
0,0413037678972111
0,0394839999818627
0,0428355067544295
0,0386565289296674
0,041582748956573
0,0386760625640114
0,0411138329819434
0,0395768257320786
0,042071028918205
0,0408713248618069
0,0416599507258876
0,0415349193228643
0,0480374996030967
0,0468720087712732
0,0420149614076017
0,0400953675170931
0,0428003420650867
0,0390412063757586
0,0399467918172859
0,0387328492229462
0,039224704306157
0,0390669918467503
0,0381587832786846
0,0384549138458855
0,0406173021354596
0,0391436900645265
0,0421346648526817
0,0369776000742618
0,0411983615430713
0,039232201529014
0,0414410745816908
0,0383855753890101
0,0376086499436758
0,035097706589235
0,0430100764295666
0,0368928784864407
0,0408869911569891
0,0352962312323872
0,045398812871142
0,0493204857120474
0,0493598193403433
0,0363193026479936
0,0423403027680512
0,0346486827930623
0,0409270726207821
0,0350508825558494
0,039194069452373
0,0351634209284418
0,0409815547891369
0,0366087300597947
0,0413960711557338
0,0375542635865488
0,0381255859510659
0,0361946508895392
0,0401130653150574
0,034894847919769
0,042122433873432
0,0359085565669169
0,0385080500693591
0,0398035072214681
0,0526942706644646
0,0412472208883206
0,0425232641240233
0,029326984704184
0,0425898241722179
0,0410059378752154
0,0521394166570863
0,0341244915651621
0,0409860060456117
0,0382917666853423
0,040127473111281
0,0359111189815575
0,0373289728295274
0,0429100675218831
0,0420961223861012
0,0404707361087208
0,0416261698783221
0,0410873065673774
0,0374531993514183
0,0333435793887364
0,0366830058160729
0,0349812112836062
0,0393787602129849
0,0338081032719971
0,0388486550152118
0,0344139354133176
0,0379195374455015
0,0372412059558642
0,0370204486617218
0,0390634246194767
0,0422959134366913
0,0395207005862889
0,0381641048849246
0,035567397308606
0,0320278211162161
0,0395277685705377
0,0480764027233643
0,0426839123620585
0,0329913470221659
0,0369993361213469
0,0354642520957682
0,0354673597028949
0,0380923049119667
0,0372487698437306
0,0366170268026359
0,0328328107615843
0,0390359438180492
0,0370741324722032
0,0347150308437069
0,0344919432144045
0,0391318058387675
0,0367533771618863
0,0358529930952866
0,032936544679488
0,0409991494476595
0,0368851631072057
0,0421375038712393
0,0431850522309563
0,0609491263042547
0,0498726154250224
0,0512134120351626
0,044723955867596
0,0357279109033618
0,0366264043132883
0,0357935496605843
0,0399933372587232
0,0402387795959993
0,0353331583335727
0,0357834360402635
0,0403600394862852
0,0357882559438311
0,0367965905844151
0,0341947603308291
0,0377673535299182
0,0350866279039578
0,0377440184539506
0,0342666576431831
0,0393768457862758
0,0332163977655102
0,0369533449508489
0,0405252728498648
0,0484153032054163
0,0338512133213846
0,0361352762132902
0,0575029369487449
0,060434871607914
0,0477322999340995
0,0346222039417927
0,040264980500371
0,0332534564550658
0,0376601873872159
0,0354007093882526
0,0437036054216147
0,0371126874795081
0,0361368278428811
0,032801857205976
0,0412821614572594
0,0365799404113895
0,0388454823955329
0,0422153198294164
0,0638000460122634
0,0528797291426729
0,0431248214668341
0,0303728242485115
0,0505227199893254
0,0501105783740696
0,0506670781597451
0,0359366095838073
0,0420825321599102
0,0356008943712359
0,0403894973638643
0,0359028859171367
0,0417510815735661
0,0393247547316962
0,0416196143448316
0,038075786442398
0,0369078102460871
0,0377484452877074
0,0398667778295029
0,0372437636866377
0,0517390175880254
0,0457504695012194
0,0419391473903529
0,0431159879800952
0,0443393052001993
0,0400233592473731
0,0404645413463771
0,0385866510445544
0,0390239004752833
0,0495034829443648
0,0552676260156935
0,046234934415113
0,0550357560775455
0,0522282380692234
0,0425431522029321
0,0402290270141037
0,0535350906154007
0,0444740104426439
0,0360869551955774
0,0512051483540253
0,055366648508037
0,0729204987168118
0,0505954664326891
0,0534454090899564
0,0349363756355202
0,047304978071792
0,0340694474181958
0,0445237235562743
0,0518997113079713
0,0497738965760715
0,0394519200872238
0,0390147121837247
0,0526482761282933
0,0560294605769919
0,0514425754427605
0,0449195967221981
0,0445382697634786
0,042658607703342
0,060923929597899
0,0423049637714724
0,0505887942363768
0,0512196622115618
0,0868959334967329
0,0670726487994871
0,0510566181596919
0,0494137179590515
0,0707911261430949
0,059831358534921
0,0467310409469072
0,0468557372417752
0,0484356647339352
0,0371546117522788
0,0521088385906971
0,0669734273480557
0,0605177621023742
0,0487320271402184
0,0504363664680908
0,0474535721824218
0,0597721176339215
0,0633555895642779
0,0480216846008966
0,0531566220875198
0,0509319416850741
0,0516876228986828
0,0850071452660196
0,0709468580102422
0,0806608156378212
0,0676422468936276
0,0825675322535764
0,0621284559889744
0,0712441141660255
0,0561085869158567
0,0752550423678681
0,069747798962624
0,0672698026077023
0,0478227682488982
0,0813789429616446
0,0709381302484413
0,0719520393975524
0,059370744902551
0,0646015584503521
0,0530398357162902
0,0963071546377312
0,108768662207754
0,102261222936082
0,0687805089683399
0,0753988313588225
0,0884478458153878
0,0806574121382189
0,0668477818254435
0,0693252842894646
0,0678565114588706
0,0672894630601702
0,0695477769708228
0,0781976994881965
0,0756247522324769
0,0800335704948469
0,0665613291327969
0,0783197370990134
0,0812274631717981
0,141075006770232
0,100203409853001
0,100355538345523
0,104082795355002
0,117885318814478
0,0922566072517009
0,0866949032924429
0,0784233198776792
0,100942907922935
0,089844612686555
0,0901579004200557
0,0841882834190328
0,117773681735429
0,101128130940062
0,115169989410151
0,106965626564976
0,109754521402845
0,0838493862419532
0,12435856826254
0,185393890623068
0,149829246790566
0,115278767393812
0,119869364498064
0,122382039093185
0,1666121402627
0,132647601307307
0,119473239261344
0,119342923531692
0,119682844734634
0,125403936056247
0,13821332093387
0,142653192728357
0,154811183712753
0,13959606099493
0,144776422075461
0,148486009092965
0,243495227086027
0,223729130824812
0,180209353359652
0,160667635840674
0,183199352556435
0,185563992790187
0,175847500989523
0,17641470234661
0,168355634489944
0,196051617143153
0,214351185729393
0,211660704770229
0,188267902747162
0,214001770454026
0,218726315317611
0,215429583231236
0,252311717167088
0,246716889809636
0,233025779329268
0,220829429436705
0,235413165054057
0,227157239158716
0,239943144846041
0,253010008248598
0,265605905847109
0,245325627772626
0,254904516842385
0,251948671491749
0,262530597927444
0,262682935576913
0,263477225746857
0,27060151949659
0,305140306687279
0,295937195097008
0,416132292989484
0,306994774915145
0,29403067834526
0,265667971472137
0,295506209246427
0,297761499494174
0,312065827793732
0,319970406950879
0,315261488942254
0,276131182587378
0,281752170686469
0,284507536927807
0,276338814325692
0,28660348996821
0,281687582833549
0,276394688601881
0,302828270262825
0,294108958964773
0,325636749817924
0,318498336819135
0,303839737605789
0,275386323324154
0,292990520459559
0,270631251841015
0,290226121735214
0,267821640069108
0,297309191116428
0,2889341781938
0,284010559573173
0,267805362675439
0,274282739381765
0,290851869586025
0,300249982416948
0,26873365901091
0,27048064480244
0,255300488652931
0,266094023951712
0,239393941905847
0,275226570434786
0,280658943397305
0,270145005386968
0,243070524707743
0,253722049978874
0,239662906998706
0,250193877687579
0,23439942119445
0,251790771941907
0,242317430710807
0,235956206739607
0,233415507163085
0,236256817645725
0,225128945961996
0,231749543042302
0,228580812191083
0,23156519795703
0,226097787277272
0,22915373467033
0,223775775193754
0,229485921495346
0,223091687554006
0,22975053255233
0,224407226196397
0,233647904858315
0,223336285294924
0,220361746451087
0,216159629140093
0,225861828143665
0,215998322609956
0,227672098989399
0,215559260590047
0,219397082228636
0,216199690901496
0,221308431683047
0,210982957369859
0,214901957033795
0,208212915721062
0,217645089615384
0,20834809518201
0,213608062371365
0,20910583140689
0,210660282711847
0,205340363152119
0,267044619526306
0,228475315197034
0,216676235326659
0,198146654318746
0,207960327842086
0,194582080725161
0,202339762740079
0,229885825478463
0,226086651358858
0,197923839899734
0,194714152997268
0,191953919969629
0,212590562645807
0,19794612869818
0,195906689979226
0,188015688617314
0,185933664816932
0,208999831944912
0,263884608109495
0,275918062303596
0,260505349317755
0,206402531134753
0,177757141531944
0,202090042686987
0,212223428447532
0,182559203251243
0,173056669229796
0,17353091189648
0,223234004697102
0,189717254993639
0,179008826738285
0,167484842540609
0,172128594852848
0,196640207354333
0,202070680831471
0,18401987375986
0,197043079338185
0,203563803522625
0,19597248127659
0,218605551932833
0,243479645865047
0,195588362770647
0,171070466624999
0,157959383202773
0,162727329825729
0,161682229585194
0,216419926383534
0,168784746245411
0,181680822160482
0,151829943210374
0,156288295557436
0,151971970309785
0,179400688385384
0,154488805706584
0,166125423255018
0,179302079884983
0,151723720333857
0,161144889489207
0,175217007474491
0,18557706159998
0,210082574297522
0,15866694318889
0,139745925035753
0,187421644278173
0,18314549297812
0,158180165248372
0,164038310952388
0,135880606392827
0,153734698129455
0,162545181092782
0,144214600823474
0,161689132858124
0,164985809066642
0,172370972058037
0,19162762392362
0,209464157316596
0,198043972136751
0,150999081008418
0,137022058863208
0,133374687508488
0,145640190203453
0,135012316720221
0,135592298215609
0,171450638220251
0,145860031587595
0,142517800851714
0,18941298758389
0,153744669812117
0,140489277449717
0,140090977101335
0,141565005237633
0,148396112237306
0,175957843169665
0,197222175604391
0,17352913997821
0,173522553039173
0,182233918829031
0,163261274378397
0,160705204568029
0,161834860787119
0,166006735553708
0,16724316055963
0,184046288695988
0,171903284321771
0,178571378880974
0,185967742220041
0,185899835828096
0,214390166192866
0,219113715210603
0,197121201384873
0,241063223248708
0,228439591402237
0,283525244067038
0,229950705907945
0,225353875657194
0,219243108909144
0,229236348081813
0,233250384774612
0,237802020373453
0,253185476886948
0,274651336512796
0,249035133632582
0,255806326268213
0,252953548931914
0,26114091498944
0,26278081326195
0,294311472384437
0,274416696385105
0,334029045976972
0,313248692622703
0,303021077294908
0,276878578593418
0,271121032024452
0,285267874278181
0,286907946241397
0,273621914256771
0,277848614798561
0,288192076989904
0,306829607904645
0,284530862714735
0,290301417218977
0,280722453551581
0,28801689989568
0,287629355662887
0,296074820621033
0,28891446559832
0,293726979630126
0,297428999228288
0,304834894882251
0,292881813555774
0,369717461937468
0,322713921435645
0,312431136168312
0,309680112327533
0,319441753644799
0,316689539503898
0,319209903847796
0,328151419537258
0,333421430411926
0,324927513159369
0,327770032176479
0,325297508839842
0,334521175030448
0,345962324450077
0,360040497738841
0,335413481172046
0,346865951636653
0,332689123265868
0,388008069160058
0,380334399439253
0,366209940621598
0,365269619216145
0,362929158020817
0,353839586422802
0,348498042688307
0,351349941391019
0,352140891769906
0,353432906594902
0,35933230412915
0,354124874744052
0,357424961595336
0,354562997745086
0,351462673507217
0,355105431649647
0,37889541472207
0,355198556046602
0,352044662763718
0,348979300332345
0,346249602178254
0,344992530766561
0,369409307564988
0,366767143502822
0,356794104893687
0,34967005635541
0,361732179813585
0,367491724648194
0,363754934477531
0,333655923869718
0,350318640734999
0,341752027125194
0,350771093630869
0,341628170763447
0,355443002644447
0,379361510961163
0,363561368370517
0,357057737622059
0,357711321233707
0,354548845397937
0,362263927691691
0,356539842709846
0,361108425587438
0,36359096956144
0,363440374824445
0,369560185961716
0,37239854067837
0,371617814902865
0,385492814363279
0,386793881711745
0,385184891146389
0,371453805398306
0,382750805757777
0,367783676286091
0,371688540363614
0,377631432716326
0,372793472903696
0,362457237484294
0,365701230378735
0,359942295771338
0,365701010902064
0,384959094023815
0,364286784797368
0,360016406425269
0,357824676609808
0,346703027516117
0,352670229877813
0,340925924221872
0,345379024508664
0,343873534061658
0,346141204514842
0,335851275861654
0,339217920365997
0,337424946878676
0,333968968535197
0,332163053728275
0,334125359220969
0,329367060154667
0,334925797371213
0,329490826172254
0,331205306509367
0,326892441981951
0,327073298568096
0,32828920781361
0,328897073939026
0,33697541240338
0,344937288817642
0,345664998791111
0,332997595242397
0,330068006139374
0,329933322178045
0,319343824799827
0,330914234637936
0,319884961165593
0,325055066276218
0,319217594867027
0,327550877523145
0,322273017568615
0,319508156116469
0,320554195604923
0,324022822290725
0,315671838608667
0,319053685814962
0,316753539545255
0,318898070665463
0,315120178270279
0,320781508080895
0,320227456517098
0,328243624494352
0,315448260759671
0,31692342965754
0,313473314338125
0,314523350886384
0,315743567584164
0,316863139555639
0,31416075716135
0,314397653789987
0,31099549044746
0,310246196230006
0,309022192216468
0,316339912096733
0,307929104234574
0,310591540283763
0,307012937095087
0,309396660918144
0,303079140584922
0,302859844663182
0,299612403157808
0,298279463137581
0,299223020713749
0,295037462625464
0,294207163433811
0,291499008246747
0,286897638893582
0,28531813479665
0,281052832990789
0,283258561649247
0,278964863230905
0,277306657150187
0,274155054053742
0,271496624090361
0,27006972604027
0,275946978733829
0,269193934542419
0,270595663327113
0,264991004130475
0,267605456531895
0,26462827303049
0,265549357809622
0,262485541114093
0,266961121589146
0,263095901172234
0,265342306037778
0,263113511925006
0,267032457583907
0,264586278716972
0,270824358436017
0,266281358697306
0,270089411092641
0,273478009246318
0,269946185468338
0,272708379572445
0,273374118943874
0,272603567140813
0,278079556343628
0,277557860584611
0,274791344028805
0,277198036547644
0,281185965188361
0,278916293266311
0,280927257481461
0,283274361573484
0,283163432749347
0,279355204398617
0,286060995223101
0,281956536712202
0,279482160779031
0,280320272265016
0,283345204982812
0,282002530089255
0,280856099003807
0,282392958881016
0,279742847472425
0,278612067547061
0,279947762414409
0,275959528071161
0,275360612702515
0,276534797682432
0,275261899303602
0,277563388887268
0,274067866153467
0,268979023236746
0,27120356872281
0,270264985657275
0,273091906688252
0,268887925367016
0,270910371681949
0,267394979664256
0,267586632510784
0,266005555630105
0,265894465845069
0,262012858863297
0,265204158746082
0,263754775059843
0,26009941021324
0,258619224409584
0,261594198664056
0,256105199123094
0,259611661240701
0,25556071269135
0,254984562303629
0,250943126871628
0,252015233846071
0,247575459728764
0,248995377292569
0,245337214201232
0,245546971545036
0,245459660880225
0,240688331211672
0,24275251277387
0,239898666187888
0,236776225090793
0,237228321066139
0,234958373264678
0,234189143669132
0,232854305713371
0,233554586161901
0,230208489900885
0,229673964043082
0,226813922303893
0,229569726460631
0,228608257892858
0,231291207933021
0,229806037626373
0,227603298177853
0,225592409847613
0,229060433530324
0,226354220345109
0,224811976839401
0,221387344539416
0,22247183692433
0,216996682107125
0,217810828451409
0,213334573116371
0,211133881799746
0,206681909499701
0,204158738147151
0,199588806936109
0,199900876583189
0,196943378270484
0,196870647422453
0,195199503807651
0,198598415329148
0,194458340173987
0,196426041561648
0,201246234463248
0,206781971018374
0,211058508692072
0,215726990887969
0,220245809560122
0,228576776441213
0,235481210491893
0,245787350860957
0,253855717554967
0,264253344097314
0,275168659043035
0,28437447222914
0,295741906831976
0,306132022445526
0,316800003270925
0,327533251067278
0,339687898123046
0,352119858849206
0,361680095046971
0,379671883794499
0,392106583739732
0,404536835832193
0,413061517161747
0,428253431601175
0,440438605796166
0,45262649694427
0,462851828349242
0,471425060837985
0,48209161420318
0,492939713709794
0,501761545741022
0,504047141466969
0,505569753085839
0,514091847043757
0,519247960164531
0,522741359304392
0,524303019526613
0,525016414502719
0,525180004852477
0,521900792693835
0,521483778348864
0,520772313617277
0,515591643898664
0,518951484721287
0,510635381965723
0,509073931697293
0,509343703846603
0,505398170610398
0,507444096622761
0,510455536023775
0,511195664772097
0,51430044619971
0,511183103595352
0,516524953837155
0,518013771465038
0,523249085458232
0,527350669291863
0,524077372349474
0,532717749760279
0,542106527516271
0,545920861897426
0,55257248356639
0,558327358395251
0,567231805526172
0,576754728413374
0,580791412593011
0,586215870475334
0,593864733802652
0,598689035455383
0,610344240988883
0,609454686182822
0,614926599149471
0,61824131789209
0,615160906654076
0,616210630468123
0,619584009911759
0,613351519107114
0,614385567289476
0,6146393058342
0,615019752291478
0,612169890904192
0,618216902276048
0,619849866524485
0,618273304053932
0,62629988389156
0,637219042201921
0,633769633148575
0,6511070666504
0,6534723016969
0,661548815156477
0,666864620301957
0,675956723055601
0,681328288189156
0,696545038080348
0,693149805797972
0,711793670801283
0,715540887913255
0,725161253129886
0,744666253002143
0,743101943079481
0,763096599082226
0,779667812867848
0,778529626213744
0,795105115229151
0,819764199198539
0,837215151984728
0,85430872575398
0,876406632176314
0,890739392813698
0,914410990459893
0,937240562724052
0,94516007941876
0,948990963851192
0,970671280173249
0,988966725669592
0,991948886814295
1,00331213198072
1,01623471481584
1,03772790416243
1,02661741715442
1,01359834152637
1,03213787101253
1,01875204916934
1,00292556987991
1,02640562243556
1,04156842064858
1,02396841723422
1,010841889557
1,02048761949494
1,01093769468939
1,01523085111479
1,01402697973629
1,00233763053654
1,01656807536603
1,02587314194018
1,02534647170916
1,04141531515552
1,04655960125
1,06197375470301
1,07762655861049
1,07235745802459
1,08974547629195
1,08994102744942
1,11251544243194
1,11535413728272
1,11581994146753
1,15773297262568
1,17579880995907
1,1727235081619
1,16996746100595
1,20766496770309
1,20411086123175
1,22811893058884
1,2400636207198
1,2700638303156
1,28737723930919
1,28183160085443
1,29627503123212
1,31212859131189
1,30508804560646
1,3422731938957
1,33761417843246
1,35814550615388
1,38245667914053
1,35290083382481
1,39909578324421
1,43614369148043
1,41385430110546
1,39742711684242
1,45116481023636
1,45912351328968
1,44569223813916
1,44873973543499
1,46070375768384
1,48219958253291
1,4966824680358
1,41648315899378
1,45176407730007
1,48252674443379
1,46945373141126
1,44716536863622
1,43248884761767
1,37810888689815
1,35445015674398
1,35972456508603
1,28161604447386
1,22063469146627
1,21760663963486
1,1588347102058
1,11496590241737
1,08218393328223
1,07166817372741
1,03600614637909
1,02329392420719
1,00560151621978
0,984230070022236
0,984608872504459
0,968950313224752
0,939142515886172
0,929726883314416
0,932896976375445
0,923174724939415
0,904121286435167
0,897250391729535
0,87487094226762
0,829896766904789
0,827006569329926
0,810959124938562
0,779800491095939
0,760863446188555
0,743279737443544
0,708384741856514
0,689480979655974
0,66238024609109
0,630382512907173
0,6073129485344
0,571755309055639
0,549136766786449
0,524271859764606
0,498096221139057
0,47288118726031
0,45140330395393
0,434725694811177
0,409580033853183
0,388440930996557
0,371653824179456
0,352724367007713
0,338921282351775
0,324180840568679
0,31372138695859
0,30701794825809
0,296133559895402
0,284587573906921
0,271022005656031
0,266968485444821
0,259608728857296
0,255481829701047
0,251566176269427
0,252103289679062
0,246445150282911
0,247824688202331
0,237775967792003
0,236132430476128
0,235795987239163
0,234240292414438
0,238736679952511
0,241676464610873
0,235113585589704
0,235908742319748
0,244185732606613
0,241136373596576
0,243881831062555
0,247631443742568
0,252081045984522
0,252161827248656
0,251522444193716
0,252443685605415
0,254692800917639
0,257246230140037
0,251633307196326
0,25483986721764
0,25745302135329
0,257165098686312
0,252072687618548
0,253385673711283
0,255268463379571
0,256305444206258
0,250489026510534
0,256303634277936
0,251676312707227
0,253483453775344
0,25314912057836
0,257872707579376
0,258451110589971
0,261418999415651
0,260876763519801
0,262224485722349
0,265710315211451
0,264269793658752
0,265061586732264
0,263424756493459
0,264234554916352
0,265936075276256
0,267568116880334
0,266711683167095
0,267189925482189
0,269513649481072
0,264425432901665
0,264731207377982
0,26237201411969
0,263392585479533
0,265618225197167
0,262715467491232
0,263824476249052
0,261182905534794
0,259980144703058
0,269190813434714
0,270242696740037
0,279171607195897
0,275590619582287
0,28296878844966
0,289279882006899
0,292568983484019
0,293613341200232
0,30241234152716
0,308762166058876
0,321535187664865
0,327564977159741
0,327679814302714
0,332362950905951
0,334392606264127
0,333226636854899
0,332686910963746
0,328874923858923
0,318741392596427
0,319329876072952
0,312749883268655
0,304363870704918
0,30215718913225
0,30056247567521
0,292228393910098
0,285786291550018
0,288990278942749
0,290658510800444
0,295521903272257
0,284231475474664
0,298091212476085
0,289054157320204
0,292383067400991
0,291938961487445
0,296025298062412
0,296055494329902
0,295739291468073
0,291869077144091
0,287889120885967
0,276898557399466
0,280466844678324
0,276737860094331
0,277014504706838
0,282303853544004
0,282057455796856
0,27377140033061
0,281732433352701
0,277715730998754
0,272682989394956
0,269921802591956
0,269227055522351
0,268203312840447
0,274928087729189
0,261385092331259
0,267039043795736
0,272677070709435
0,268304837622764
0,257912331310308
0,269305667431367
0,265555154381266
0,261919872179397
0,265657692853073
0,268831809706294
0,270805260123034
0,265322286610839
0,258789940427396
0,259186982645721
0,259287715403376
0,259633850119373
0,249036193694784
0,248108158692381
0,237651226656569
0,251057936833042
0,250954334745038
0,245684405882119
0,243477842173646
0,251860309897286
0,241089251492035
0,241269569005079
0,242975118866989
0,236458049907005
0,237168775692047
0,238662236894056
0,239888605570437
0,225146088578864
0,227903274495232
0,234717901375245
0,23162161298131
0,228543322125181
0,239595109193415
0,232745751084124
0,238476952356484
0,242045632231993
0,242662521509102
0,239730296668414
0,232323577403029
0,242127075342505
0,24840231136858
0,260762059823905
0,253978810178516
0,265955878602791
0,247569614217435
0,248339744010794
0,249328912332342
0,268859346814652
0,249787043448965
0,273595623447534
0,260426902965619
0,269159575224044
0,27154336617696
0,289724784574813
0,278350549134532
0,287818854429709
0,290255197302537
0,293053289983463
0,302116284326751
0,314844461726374
0,313730272735488
0,313040615428439
0,324315920394468
0,340284579638483
0,329487126064191
0,338131880830735
0,36017728013674
0,382685092884685
0,371720361627804
0,391649948398399
0,39825004456854
0,399370545509172
0,412366560353932
0,414848935509239
0,402826609443872
0,418258230172666
0,403823139557872
0,417121979687724
0,412296654297369
0,417000304566161
0,39650728675923
0,394687552154339
0,401760696594938
0,413078711164701
0,394159197488557
0,397123695111955
0,410966743829659
0,428177963635497
0,425266426409784
0,415145817510431
0,421624574708542
0,4043085150127
0,402939362071331
0,395519361398782
0,414462894615953
0,430285031088497
0,410984811626467
0,392488357588162
0,394561519514831
0,385410712914111
0,38631276668662
0,394200922659993
0,388818673085437
0,387995064215009
0,37265043049104
0,382726266927932
0,373475678623781
0,378410522365023
0,363087180755819
0,376740384773043
0,382088826049402
0,39255760226388
0,365598785803075
0,382901361881179
0,367469116782735
0,377187282017736
0,399857164334817
0,38218356718979
0,368240967872735
0,379425187087469
0,375544507492961
0,377431279710093
0,349711613674676
0,377048346174073
0,390639472933971
0,409694466537397
0,38029604238361
0,381376258130196
0,379136614461778
0,396625163726103
0,434177639883596
0,414063899839161
0,394003012236881
0,415467666904398
0,37682341107244
0,385553605761027
0,420774123192969
0,440640981099808
0,410607067530983
0,424610924218899
0,40035729923563
0,405462705980205
0,40896692209048
0,437202994109735
0,406164440755301
0,394355393574412
0,433096201109923
0,469107397412169
0,42702677875551
0,50387532722648
0,497202790540694
0,481988664828821
0,518546911484123
0,510722737915918
0,531169357867644
0,56587804961518
0,491581189833251
0,436320771998227
0,503695491776587
0,515592892025757
0,517041018350485
0,526958539261535
0,588521998584022
0,512317593666657
0,542804308784533
0,570715963969039
0,534099968891677
0,562249298576266
0,516205299369768
0,512933001938825
0,522228767099232
0,525689688158144
0,39205694407352
0,474738055375525
0,555686911070988
0,503449905521095
0,481222833453558
0,513800077867162
0,483968127903551
0,566866899127443
0,515907643907498
0,518362104570082
0,489151077336638
0,513921681899236
0,459550999500527
0,495774824600895
0,540160806637646
0,458781056806473
0,5243231654418
0,518243536389025
0,440873033493002
0,512644148557388
0,517902089130667
0,604752530363408
0,572338110216346
0,469433687709196
0,482049006567264
0,580549056135284
0,429431111065257
0,152056579538564
0,623655311032431
0,48451120107532
0,583769327024107
0,451100292076849
0,381492765851367
0,946212505234824
0,668237870738081
0,670192845531985
0,833357185673115
0,539491675689075
0,60612095549211
0,670923410040567
0,432728467694606
0,473150957128935
0,87091787054951
0,613450222201909
0,215828495899107
0,249409346941397
0,480517056055355
