3596
4000,36533379555
650,420452594757
1
2
2
0,0654561017123385
0,0834470919612548
0,0757674963507258
0,0826449568923901
0,0749704351634439
0,0820267103943026
0,0599467247539826
0,0822198172979129
0,0604719188444181
0,0844101765598734
0,0656810148089969
0,0828428582143929
0,0570181134800505
0,0817352247174154
0,0580818518916139
0,0727924691421213
0,0634880385074904
0,0780767662286576
0,0691199755858611
0,0739916985105364
0,0622872837363191
0,0711132410415087
0,0645809823515336
0,079155267960095
0,0610879833589871
0,0706739433691255
0,0594807941051246
0,0688797831247007
0,0575048775927021
0,0778025752731689
0,0612910462093941
0,0784439213607767
0,0655915084420472
0,0728740788313459
0,065340843073012
0,0800984054814959
0,0615108899218531
0,0798670469994003
0,0626926498594876
0,0886660701097865
0,0770720512330315
0,0778847748953648
0,0605294591787575
0,0729255591289432
0,0652877938250123
0,0714637625677168
0,0593835937021982
0,0790865035789226
0,0582516730949786
0,072131617959939
0,0642360572820985
0,0689277532273355
0,0763828080093033
0,0970663754183694
0,0610848975598345
0,0843928896525314
0,0761003940306996
0,0781662714520051
0,0630623335875718
0,0736072696679089
0,0700931365984545
0,0883290401034051
0,0654878870257598
0,0759340061470053
0,0680952457808204
0,0861713706080503
0,0672310040150628
0,0807597454391312
0,0589427027448353
0,0727887431120866
0,0540878526864859
0,0950016206723712
0,0759878665228911
0,08292266616719
0,0743124904968752
0,0859267534528014
0,0557111713961767
0,0758617335080922
0,0551268849223599
0,0804680340002721
0,0745235696370157
0,0766401757991976
0,0587425893797975
0,0629044859374448
0,06875958823233
0,0976616833618595
0,0525220313164326
0,0716915460878109
0,0741062326167918
0,0828865015865415
0,0588423297381883
0,0753828469378485
0,0580892597400376
0,0746722487445742
0,0527318702565786
0,0724414585235725
0,0610271747296092
0,0683772260965309
0,0536672982458254
0,0788830705910567
0,0770493452634478
0,0866210374547051
0,108304624706059
0,0685044398216243
0,111485524487751
0,0975816785630755
0,0480457021750157
0,119861178849325
0,0669324555216996
0,0836424526199408
0,0507270975562709
0,0708270122014439
0,0585223182340637
0,073478038215801
0,0470946402166122
0,0933175573311201
0,0924295293194109
0,0766738617475541
0,0610614711508853
0,0746762341496854
0,0494765937300464
0,105802390710028
0,116724739809256
0,0739057791051431
0,0716082578026948
0,0664265320742402
0,059425845464556
0,114331911136856
0,0963341770237205
0,0764721698636318
0,0582851393725026
0,0664858620614439
0,0547190839409308
0,0591952347198376
0,0979600657221604
0,0851460722674454
0,057791449616013
0,0676535169565396
0,0669488852906282
0,14389812839813
0,0716695697359175
0,0683277271105883
0,0441390241029968
0,0708132921842106
0,0995591801568143
0,0848281313224467
0,0468974019998005
0,0928744415709488
0,0765008610428428
0,0642963753646319
0,0560264473027239
0,0606040072847725
0,0785655906142697
0,0796718881056262
0,0260442359259179
0,109960775159714
0,128789928716556
0,0996293883061243
0,132955916176208
0,073663518300879
0,0751035961533216
0,0769226154962896
0,0549502319199576
0,0654132786352988
0,0528344969409057
0,0580447773238105
0,0725174089123261
0,11295210899347
0,0596304339781457
0,0810226290812321
0,0963127425797917
0,0877803027095501
0,0423844024074348
0,139279611761714
0,0799621295352558
0,0611642963260901
0,0931290441385902
0,0832471418235701
0,0520449904738237
0,0710909315961223
0,0863529798836648
0,0687488915621117
0,0722245647146293
0,0660729788656313
0,0663001630930194
0,0874715419583358
0,0674605020243711
0,0666214660404687
0,0643899804775775
0,0550651797674604
0,0660474058603585
0,112408097938268
0,100895671695933
0,0716207558964635
0,0684590409980729
0,0542056431164939
0,0791546848081845
0,108854266172363
0,0560745602240793
0,0716339942785793
0,0538269053837587
0,0583743557081579
0,0564169562595919
0,0640446060615383
0,0547359124787743
0,047216930454056
0,0954245018932494
0,0958898244459354
0,0690256340172076
0,0623620805000488
0,0490776829618943
0,0610786801547524
0,112141128357334
0,109047964795323
0,0588590141096848
0,0788315269844399
0,0442337980921645
0,0836576612133653
0,0789922143941455
0,0702938906429105
0,0598429374358356
0,0685534850715865
0,0551612963944443
0,0652662949299977
0,0556548526009343
0,0659295037259831
0,0570664850009951
0,0709018937201733
0,0651068284652151
0,0636855937932826
0,067934084872037
0,0691680501950476
0,0541455970412685
0,0648599697508556
0,0493467253785516
0,0755018454637289
0,0915899193456869
0,0715112715857633
0,071488412740403
0,0656492304297658
0,0561014597398872
0,0676298228477075
0,0652099366327581
0,0604592891897321
0,0571574898873853
0,0575456448007884
0,0925053192083964
0,0822058245930962
0,0564500253233787
0,0650992641180498
0,071173519042436
0,0875076218195967
0,0575062071888225
0,0726229819854003
0,0604568056042614
0,0679900796500478
0,0459361379081399
0,102798331366281
0,0635388521579506
0,0649832543779671
0,0736862504020462
0,0847204742690785
0,0561254179820578
0,0654387839956629
0,0336887615689116
0,145610083618634
0,0884811469129354
0,0598576337625657
0,123517186010967
0,0972473504590196
0,0748117258085842
0,0757701922885412
0,0188090176939777
0,191474518969521
0,130470376361386
0,0800183415163292
0,0702054319476399
0,0811767540351509
0,0587813769901062
0,0687742996362814
0,0705427010858909
0,0829773406798799
0,0992865773795943
0,135445853378684
0,13024112041288
0,0738521878003838
0,0894162663983623
0,106608135192902
0,0614337474416778
0,0825808581400988
0,0535021906696571
0,0718956622831316
0,0767587307278124
0,102547139798713
0,079191057458182
0,0861586091810673
0,0610223556515706
0,117930560188107
0,0741548505187384
0,070007033212597
0,0699018856139532
0,0903428917165609
0,0576254101250477
0,0710394339823087
0,063029507213505
0,0818804092531946
0,0604824001790451
0,0644169219789629
0,11815165735428
0,100061870241315
0,0742780782416986
0,124981011464162
0,0697295969378284
0,0747995527708311
0,066567830279584
0,0771665237719199
0,0618332385098696
0,0658391628548823
0,0549140775531145
0,101313401571951
0,0789346309045653
0,0702268983971202
0,076251379412789
0,0699224320262784
0,0738738727052578
0,0788270284771151
0,0649233128381818
0,0707164027154069
0,072636832312512
0,0754241298113642
0,0765897621268403
0,11171593781649
0,060840717924326
0,110540938539704
0,130290533786359
0,0799213338672417
0,0782576013295243
0,0785203455199429
0,0797315046424413
0,0828967238598659
0,0755961553036205
0,0755025212974811
0,0770546023967495
0,108776461869459
0,087658540360267
0,0839490366120127
0,0885781933515306
0,166800903086471
0,146800444994218
0,116665282474202
0,0829871347103425
0,0839061262223523
0,101175753934083
0,137531061585817
0,0952682470467297
0,140614834048004
0,0903718891474127
0,103970510598288
0,0857678160249448
0,101819276524857
0,0915914235482262
0,0970981963415717
0,097342494578749
0,103967552877327
0,0994225137995648
0,103641747029817
0,0874628882859785
0,103248568513619
0,14655229103022
0,128017046705756
0,102274297599577
0,109413195676099
0,100407397867338
0,140254297434157
0,164435233327483
0,154155779790755
0,146571430962541
0,14315278604608
0,164849597033586
0,134587643717788
0,115152441492099
0,118900571556158
0,119750015155939
0,134220808678858
0,127025622963382
0,122542952613589
0,12489016036299
0,137558759593166
0,133538392962144
0,130801865082957
0,123471586689637
0,141145224178694
0,153399182731999
0,154333834799499
0,134544643445328
0,135717438866512
0,131752251545322
0,23344839420949
0,191425572107224
0,174789186958416
0,14097386981028
0,167564368366793
0,133555490772132
0,160740515538597
0,144209990415411
0,167658230665212
0,162836307243227
0,189966966764925
0,174568860231191
0,191522525761726
0,180044046692068
0,167601213233767
0,18046943189883
0,185985237741143
0,167775582831014
0,215595554524131
0,175116863469111
0,173443137955905
0,189425752134297
0,215428014283148
0,190408415118517
0,215852359821473
0,177807395115057
0,191962058859085
0,186103234219045
0,193918712911961
0,188686842155453
0,197826759760207
0,193356117154726
0,209039397394816
0,20368939432544
0,211620492338578
0,214263379430719
0,228762855934331
0,222242481124375
0,219177358194487
0,226712739707801
0,224964642449407
0,206936554506492
0,226722332349146
0,223735031809013
0,283987986550862
0,242749350682641
0,273759335548557
0,230960755863152
0,236303285301366
0,233460867102064
0,236485339622244
0,240955579882347
0,259714302388276
0,238534667267903
0,253174977979499
0,249410613292849
0,259655949037557
0,249925683835417
0,261786727339226
0,260201784859838
0,278850166680715
0,256409272845152
0,273507518278416
0,276057381936169
0,287406722744177
0,294759199124141
0,335229010972094
0,310413673963507
0,322929237784588
0,288425553770661
0,316296380895376
0,30210382059944
0,295781146168337
0,282599183765141
0,30566989615664
0,318952272055018
0,327878374114193
0,305870102270093
0,311103435661817
0,316784454291629
0,334677221726137
0,332801751721259
0,336692523503284
0,337086106746002
0,332133411948828
0,328176662347303
0,331004665787607
0,347350176728868
0,365223177249759
0,352693089867695
0,370446351016234
0,372277929298763
0,368952404497118
0,363754526376567
0,371392434552241
0,359262641223132
0,372532315505192
0,366699466669071
0,38644794313384
0,380217299802678
0,39253497515943
0,383958793874544
0,408095501250163
0,387208284986506
0,394451743097031
0,411236190705019
0,421851000864371
0,395919251268754
0,429376953691324
0,399981286176693
0,412941907877759
0,431666948283453
0,440770384852252
0,426195527638101
0,453849884181387
0,446139416415674
0,440214267085139
0,453398141253316
0,474021266600788
0,456236351922944
0,474264417460401
0,460099598932665
0,454089559586282
0,473007839284581
0,482297298881041
0,455817828044439
0,45883928468784
0,458285774847484
0,486129450735732
0,48719669748612
0,490102127028637
0,47363344914056
0,492932861818004
0,487329020263783
0,484163976443036
0,493127651421222
0,53328362216758
0,525347423647859
0,526678721098327
0,516818276747121
0,520990656488765
0,519767114291607
0,53248740747783
0,543484493126787
0,541289273731577
0,519793163066054
0,536434485623843
0,534432228985345
0,547591450786439
0,551879388910076
0,573946727550221
0,554238917716793
0,57446794741121
0,572579089376795
0,564157537254374
0,552164480734062
0,591958113166324
0,594908324855982
0,595361326539253
0,594419078274863
0,58694468468537
0,582509542992245
0,597203615523906
0,614487948438052
0,607631835825384
0,604725563334883
0,612422770748436
0,590427166671716
0,606772380715947
0,597131358045459
0,61596731567132
0,614957561560569
0,635751609326081
0,62562119191829
0,640198275416981
0,641729916701715
0,653382048483216
0,647960396066128
0,667351607810337
0,680481539422396
0,654995433374373
0,652059363704783
0,685840191185181
0,688971276911083
0,677532167995252
0,666238306160144
0,684461709396263
0,687725327835512
0,679591858854746
0,668006466288213
0,69281469763985
0,678492901308463
0,711800860034816
0,716742359560767
0,690098709905723
0,71018441055629
0,725912660243353
0,702479507956985
0,732636733260756
0,694571369394006
0,712726879818187
0,715257247565584
0,70906673330423
0,72529236416047
0,719287621367201
0,743280235046168
0,732220365225141
0,763880412931073
0,785322323811484
0,751537225103679
0,776819316965214
0,754407048480165
0,732642654942851
0,761408413332273
0,760346122575174
0,746316225501539
0,804597126255622
0,792831111951068
0,74950399542062
0,757363673392671
0,805242377906673
0,810251693082682
0,770306567177459
0,803794789269629
0,783565376872483
0,812271660121473
0,807420824479369
0,779892381706914
0,803340923920321
0,80526845391852
0,783461465174006
0,789089056945612
0,813611893141949
0,825859604857175
0,810431748198617
0,787685065679918
0,791821573544332
0,817497837726637
0,866287888770409
0,857505774951916
0,838467987533865
0,866990576868044
0,844008962286063
0,822465280553373
0,824706252425811
0,842029397059904
0,82701493708399
0,843392040245714
0,863237706611148
0,858781116999995
0,840865079608728
0,86584353630014
0,909807002099297
0,873972620551528
0,871865336489643
0,861528638815094
0,851499898091716
0,895102949318366
0,875253868694957
0,918536272855633
0,939363713751026
0,909755569921229
0,919778807464921
0,91032011407637
0,906943852203573
0,895150658608354
0,898014613575866
0,890030808824131
0,874900676602736
0,866583944580576
0,826612684042121
0,899075984107146
0,94319376007603
0,94593189156648
0,872279163697898
0,881038294358122
0,94247081228723
0,899102647037272
0,869447867441482
0,868303242461637
0,908872386077463
0,8909339766781
0,880371664475245
0,973696526646962
0,935097883959591
0,942402917260001
0,914874759819966
0,942705301864872
0,935025879857231
0,893465515829405
0,917506326603521
0,927630676705467
0,935281853456992
0,942203897177938
0,911915359379022
0,946396264691271
0,92638707533034
0,927601457862406
0,886803527749448
0,911947090824862
0,938150726164886
0,938704008288551
0,932765556097499
0,918316790327653
0,908668606919672
0,917938863318932
0,904764727111886
0,942231897134095
0,959594568299835
0,949597423058051
0,947921346134756
0,911425634119968
0,951776868078824
0,972680828917385
0,982838376947495
1,01694116823754
0,928063014849633
0,983649415972163
0,970316995382312
0,930070674168834
0,956458557607691
0,956572200641468
0,990498258691533
0,973463668848284
0,93350898144772
0,972321294719211
0,950670406421111
0,980496684248259
0,953800222703996
0,946475868731986
0,976131189877599
0,925177037716711
0,915103471545207
0,96083782180676
0,934417494293475
0,981855496364726
0,958683952266768
0,983304540903599
0,9717641912478
0,972455550611386
0,943332241917092
0,942644848580787
0,904106180004321
0,949646459162474
0,983719701576122
0,959409642482013
0,946917807101588
1,02411915049579
0,930949997937898
0,946527242365242
0,953631745284063
0,971999069202486
0,948320765373387
1,00168301598645
0,948323171276017
0,956975878325645
0,948935401029344
0,960860499153694
0,946211078730708
0,938391608134067
0,931448886778225
0,970751229519688
0,978337640705966
0,962626563746728
0,950970722543905
0,994235419519106
0,971532699753486
0,929288675064719
0,917475900185702
0,985040236995606
0,958265248079275
0,966056465108973
0,953894802802416
0,973105967840965
0,961693323395868
0,921194477029208
0,956412537789528
0,961074850288675
0,905301841508911
0,923938043821209
0,955681335537656
0,942365012709622
0,905566315056716
0,927195344653581
0,945419055950756
0,947504552060921
0,912780939491743
0,963161182695908
0,967547142143002
0,971423013896089
0,948484473253395
0,953182455634102
0,911268955605762
0,909040248430866
0,931592406186555
0,949236025068392
0,944048403940191
0,918720476566595
0,916356498602534
0,939268968819253
0,902889090320758
0,888922310569586
0,917810715720395
0,940120888253919
0,917918199433717
0,943870178917208
0,923292716041119
0,91788065593069
0,927217907689384
0,92290968532684
0,909574447827383
0,917882511084456
0,910530479464782
0,916751020637797
0,855166438351141
0,8747210958069
0,885345126472014
0,865473748881087
0,899079802810773
0,90660257432844
0,888959819218766
0,916764417421762
0,900012759225039
0,897158068957899
0,868808057659922
0,854965226312519
0,872997200986512
0,910755778950954
0,854948351079666
0,856801058467471
0,863960254677663
0,885611900859851
0,85225646019132
0,876189284434003
0,906609913355318
0,87246654471453
0,866562760476529
0,875545067225378
0,865630790117929
0,851720758763896
0,862323769550347
0,874170091333786
0,846425937832663
0,854640154796291
0,852885351579848
0,857315311183254
0,839938495790383
0,813360599210186
0,817764400172253
0,85809799692975
0,81874136572575
0,839147495643945
0,816407997144023
0,82824380262961
0,842605723328003
0,847995593549604
0,819592642364743
0,822891789128324
0,798218226600709
0,789663453539988
0,84281556283571
0,810528085968462
0,773149878036783
0,819334352786787
0,768975507392649
0,781012522023314
0,759087452302767
0,796381452740469
0,789701261846715
0,780964130721682
0,766510372149301
0,770609190811073
0,768370206702506
0,779032517353146
0,756734198175522
0,791361807640962
0,755973113473467
0,760992449964287
0,761400125105346
0,749859221100348
0,733872278519031
0,755578641317088
0,746171542771828
0,744876881906945
0,726172032881732
0,741050647171371
0,741841165956963
0,742197288760513
0,723757319882099
0,714797617921461
0,706361869482859
0,719706294662354
0,691034118076503
0,697432149362895
0,700945223667965
0,715147642166814
0,712497156119208
0,707384507469824
0,687219233627317
0,696110863531281
0,691083501294753
0,684520229312917
0,67113945289375
0,656555286253228
0,666127499649173
0,671092885013049
0,670729582881638
0,680331552570448
0,665073633260699
0,662704310012056
0,646749090030652
0,664715441171076
0,649057462059348
0,643273848045364
0,652650962737841
0,656316135431708
0,648075668184177
0,634467362969454
0,617797315344727
0,650394157432076
0,626072829262403
0,62574264453447
0,613597796412454
0,61009766756596
0,6203670564571
0,605845520426062
0,60992680505179
0,622185466686817
0,60556941247314
0,606253807088161
0,588404732771374
0,599706092313228
0,590155031318747
0,588140055318762
0,583744248086931
0,58471929289745
0,569724951243442
0,57577254015222
0,56121621503136
0,57384378626996
0,561988104118824
0,568517562964185
0,567555456746522
0,55740559401488
0,552345393650845
0,548213020049824
0,556132438165927
0,544324141055609
0,544257767749789
0,54409563164579
0,537322012923293
0,543807720681425
0,531381344146981
0,546302225227578
0,526795745554806
0,527784813925803
0,52572614449983
0,52756862801822
0,511940251494921
0,511743393201258
0,519549085453554
0,514618720619953
0,49862399324193
0,50264882690837
0,504630162213267
0,500216605130724
0,490898895044166
0,50907739897632
0,509794855493282
0,493226668682374
0,482106825450756
0,489574825646047
0,486069203185426
0,483326615849609
0,481358353940597
0,468925220247844
0,463768777468071
0,464310680167712
0,459625202717421
0,473108229168621
0,46057120609834
0,460813799434677
0,449562685999218
0,460526618865315
0,453439407425629
0,44884346492245
0,454935382056792
0,451694251279318
0,44927084704551
0,448979034269807
0,443244316951504
0,434102621754177
0,438220064340734
0,432112411456667
0,435280806522904
0,432205988864685
0,441378030574019
0,432083340087732
0,424223400915442
0,419431101741008
0,41439412209452
0,419333836971638
0,417415630620142
0,415114657396645
0,405006001325647
0,414939315548123
0,409906920543733
0,404409967207018
0,397288010551118
0,40685113424757
0,408278631635568
0,403413048499326
0,395033291381433
0,401149747899316
0,390965117736408
0,396484747849866
0,389094391299847
0,387196725583182
0,388966889287319
0,381783306607735
0,380529964259053
0,37694351053867
0,374804388473074
0,374354675804152
0,374385774380766
0,378927984213106
0,371711478728933
0,371982200104257
0,367025274353548
0,375773636360164
0,364663056478153
0,367531096481069
0,354940165645495
0,36487063189455
0,365198743987357
0,355160599980497
0,354756650023476
0,351698083352383
0,348234719562435
0,356543146329209
0,343636742718446
0,347721435727276
0,338977838228385
0,351475017332904
0,344181112138712
0,342475886619927
0,348857696841389
0,340210929179756
0,339610781140273
0,347946472787493
0,332227893727457
0,336875352327284
0,331293314933121
0,32597181121283
0,323095809959808
0,332060495614305
0,323442709889328
0,33039759091499
0,328762488830886
0,323268124490749
0,318666143742129
0,325975826365626
0,32628594349766
0,325956228460266
0,323872083028868
0,317360651490652
0,319044870217837
0,316491195917661
0,319528413919459
0,313655188163131
0,317244280729525
0,320615798374548
0,320587829749771
0,314752117849683
0,310620964830269
0,318239055340928
0,313394561905709
0,325248593513078
0,313321373569479
0,312822881379724
0,317514686244411
0,317046140895125
0,3174811984261
0,311821301992454
0,307850872961098
0,316713170542036
0,315326475041294
0,314754452282586
0,315211332326284
0,322753958465298
0,314106606353202
0,308755870610178
0,325720869014939
0,313474794839455
0,310724469832121
0,317272428781674
0,323793807925019
0,320569542597228
0,321031898688569
0,327962803643549
0,324747737874861
0,327053322207435
0,328283938510989
0,329494383556832
0,327575597429035
0,33233087192493
0,327497964177106
0,333083490447028
0,329111483604338
0,33662506596422
0,330541252158888
0,338662721592161
0,335713447532005
0,333281754318509
0,333808028384649
0,34013382607456
0,342143035620028
0,341249099166465
0,335506451416581
0,350662355828141
0,350642948919485
0,345678598589933
0,347191240420078
0,357797909636107
0,362038627279266
0,35543119205074
0,355432794395111
0,369383987736241
0,363031600036522
0,366743179771742
0,370684175032213
0,378981759620384
0,381436384038473
0,378441616462162
0,390004926990057
0,393761919129249
0,390727474409286
0,395804631997869
0,397757884889345
0,407698768498539
0,395306768557888
0,403519497913235
0,416140175334251
0,40801404835237
0,408874256230751
0,416990597407528
0,413059210982625
0,416351077659188
0,420053267061593
0,420023552516372
0,424727698871552
0,425275520077138
0,41897942105272
0,426203720579216
0,417292015779954
0,436123668290656
0,422158952315026
0,42052185418183
0,426082540862207
0,428516636050038
0,42377969318518
0,421694727126476
0,415760360326915
0,409411401227786
0,421225784954121
0,416820060734236
0,407685589440609
0,4119281180556
0,417494215104108
0,424819517350989
0,42049859143242
0,413091944843251
0,411842270064257
0,417349443477601
0,407817619511488
0,423188367819787
0,407070324636736
0,417569336173701
0,407187932663602
0,413228314573865
0,410359643770585
0,404382805856276
0,41042038531368
0,413203036562485
0,409169446208905
0,412158245442069
0,413584079711062
0,41498192118714
0,398686927168187
0,40963623721992
0,409711288144481
0,412384457022848
0,411408440056389
0,412312159222889
0,422136430030494
0,408923067948835
0,41230032683411
0,415744705927597
0,407334004235715
0,41080059566976
0,399093239497114
0,413220673604446
0,405785019858126
0,405989318715826
0,398482019108012
0,39425550017456
0,398879622462075
0,395620958456757
0,393206852237623
0,392535972721331
0,385888948730434
0,380421081670017
0,385563702449755
0,379392333103805
0,377853221960477
0,378394344065874
0,376186093155889
0,378970250673749
0,374075559335178
0,374078936409265
0,359768359172171
0,365938745220444
0,364418599668253
0,36093455181152
0,361947803876138
0,357313820347734
0,356820451748131
0,349052758609759
0,356336617512014
0,351004292676515
0,35309359914999
0,350485229926571
0,335633823165559
0,336315013883802
0,333170093780421
0,334210864508677
0,326665751070389
0,339223205005356
0,332151821622575
0,329033003498514
0,32347489706597
0,327381434688386
0,320208291082901
0,316860865288975
0,316528216268191
0,319943517713009
0,310971204748936
0,314754522625851
0,310368046900445
0,317588671726419
0,307235628134543
0,311010859406978
0,313877284483139
0,299026219657462
0,304692657470987
0,305668408371748
0,299926016413741
0,301991697411199
0,297235051036772
0,306147210105834
0,299393716313714
0,299098012608945
0,29950800570627
0,29529856428023
0,300487633221929
0,296002526830871
0,286767728013801
0,291972290076552
0,289593008636898
0,294426104487926
0,28728525162707
0,288128570324264
0,285345790339104
0,282534388870112
0,280511261341218
0,28696148046964
0,279473782216346
0,283421642528174
0,278372099536748
0,276583424176537
0,276373542808834
0,272448749524669
0,277480070157452
0,276034545127756
0,267965476062291
0,269955968646993
0,264145168785893
0,274450192384021
0,269112648363092
0,271092004415408
0,265313686622839
0,267111533360998
0,266962313339813
0,262373736486865
0,261381516983779
0,268788443961753
0,265793158038548
0,260643974775283
0,263983343533532
0,265534713039768
0,255320369463777
0,265794208900896
0,258026934093931
0,261123456507225
0,259130312746504
0,255840765470406
0,251700318863418
0,259148516742643
0,253345061247718
0,252073918565737
0,254792987676882
0,251764250224736
0,259055030085681
0,259060851063648
0,249025537482381
0,25539215983117
0,246469526784555
0,256954241841849
0,252639262764342
0,251382634495995
0,249932523115618
0,251309142247935
0,246916198109105
0,251051896917217
0,2468430545542
0,245002319088757
0,247968285532693
0,248695284933634
0,248320219971158
0,243980359968192
0,242356843639643
0,257458154387155
0,243097764088132
0,244391645964555
0,238235516676197
0,248281299161212
0,241476268303499
0,244658800661615
0,239769891314224
0,249967417334005
0,2409672814876
0,24269815246838
0,244915139368036
0,24051131666927
0,238263604360369
0,237663417977696
0,241143674902246
0,236315936637506
0,234115221780528
0,232035204108709
0,236799887975065
0,235265169968503
0,236565914115044
0,236396492726948
0,232167238018433
0,234267923352094
0,23379456392672
0,232083017777083
0,239398625549931
0,233626447985731
0,239296395160727
0,234975143070681
0,231037554994622
0,234422537561512
0,231166435904829
0,230513082862598
0,22978242033603
0,230663123514433
0,224478954272885
0,239123743180902
0,230279056509576
0,227498133185127
0,234364595010474
0,228312128008842
0,232179791159257
0,233868784080505
0,23266384583414
0,22698656497759
0,223622174018458
0,228383989181549
0,229045719278399
0,224639186201984
0,230081557235068
0,229093023814152
0,220358352964406
0,220766936902633
0,228204436066147
0,228702894700568
0,221819126412941
0,226128906718251
0,219697304576798
0,219265117893703
0,224083987115014
0,219281745471736
0,223800343947871
0,223973772568712
0,222217258642334
0,221431283649593
0,223100660969454
0,227132449737384
0,217077276443313
0,214050010846004
0,21439880325879
0,214372922028083
0,21598947028286
0,220710761682937
0,213356738032577
0,216649477492089
0,218076060142677
0,216257440671468
0,216208643798095
0,21551306460404
0,215044387690374
0,214835139412574
0,211531711781651
0,211148344718169
0,21182401450688
0,206694962421579
0,207845941665386
0,216270397091288
0,210246907922156
0,206238093616688
0,208245750094533
0,208968356556123
0,208151013673973
0,206553625698429
0,209842922096806
0,205412434216821
0,205280203786821
0,209409170545396
0,203166739269356
0,20498310490077
0,208179011865293
0,207055000801175
0,202710872087421
0,198540498055706
0,206041288318986
0,207638039298214
0,201618400749396
0,20129369666933
0,200099131536105
0,204862176063457
0,199098988206238
0,198923558620471
0,200348965381676
0,201423200375179
0,196615575735828
0,194970977758641
0,200444228678832
0,195243455390454
0,191596618055655
0,19402318357871
0,198874973274682
0,19575418490315
0,192423180062128
0,192670765949465
0,193654869982222
0,194072105342204
0,187894816700571
0,192224624541253
0,190669475037158
0,186156919901004
0,186900832216222
0,187761712399646
0,184069545668912
0,186162424913902
0,184810505451542
0,183297427700788
0,181166390011032
0,182619930345945
0,181420631409878
0,179180513019065
0,177170906523368
0,17730515698014
0,181223349209212
0,181550447194104
0,181540751155554
0,179763309483122
0,180008287343966
0,176051518316737
0,180300767309831
0,178847004677656
0,18069512673577
0,17816967612306
0,173468277097143
0,175465904444641
0,172116504498489
0,175070957426271
0,172783789526534
0,173358151622719
0,171687729665524
0,173134596739204
0,172505352955063
0,175709290691408
0,171249765354885
0,169490761001833
0,165512543834274
0,170709665176366
0,169496719025426
0,164028910077011
0,167391122617278
0,171232188446884
0,166915494238155
0,1665748530991
0,169159597592455
0,169064692598655
0,164474409125885
0,163383953592406
0,167954614233424
0,162457216513456
0,16364679929427
0,162507493727665
0,161410553982713
0,160688240482147
0,162169765990107
0,162233160769169
0,159225713690297
0,157219041970189
0,161198919140591
0,162895154102381
0,163797162676569
0,162495745932098
0,158710156459419
0,159824738287681
0,162134031655207
0,15707447360513
0,159933814680765
0,157511684499995
0,155458624838972
0,154499883209056
0,160156831810999
0,159480434021864
0,149886385962125
0,152407541992315
0,152131671383018
0,158050881867682
0,155875181898391
0,156212467085631
0,158100464078722
0,155704390579061
0,151617276157797
0,149254345213171
0,152706005201673
0,150294751707384
0,155985620255963
0,153044994315317
0,153470365283965
0,152489146330407
0,153337631612891
0,151893668543889
0,148299751205689
0,150834479539973
0,150472893059261
0,151326759007946
0,149501752719911
0,152323821867511
0,151217902255099
0,151206729824905
0,151240206914669
0,149873813409412
0,153336517841891
0,153601115225281
0,150403157766284
0,150052750058729
0,145721076363389
0,148026373061786
0,14579713209632
0,1440937240331
0,150342627064274
0,148836562512525
0,148005723255827
0,147456052531089
0,14613646406642
0,147375690905856
0,148125339944807
0,144476531135109
0,143126109056301
0,143458530864911
0,142245590884339
0,143526066842788
0,1446935562919
0,141590271128842
0,140846275877245
0,139001793439346
0,143448105470982
0,141569373954215
0,142353097643529
0,138142443789752
0,141445164383925
0,138875347066668
0,139575150866386
0,142750852844485
0,142875911602747
0,137024898889182
0,137788981348448
0,137800049394952
0,136449074565813
0,135939577705153
0,13783366735074
0,13338240934326
0,137279986636572
0,133610135417014
0,139918454452663
0,13635510951656
0,137808921597446
0,137936026520936
0,138341066564538
0,134527063635037
0,136897154307426
0,138660244230362
0,138314759705941
0,135156837040557
0,13690349119869
0,133953833617551
0,135427438744069
0,136973811028044
0,135781797258551
0,133593859315982
0,139351771898911
0,13655014453054
0,133274569962679
0,134757384033183
0,136084573172702
0,128844621269115
0,135367640570953
0,132814681727868
0,129877574722608
0,130396697885494
0,131452458711725
0,132663043292019
0,132695661912991
0,131302644395926
0,13283728119238
0,129356578925418
0,13153510652943
0,12916770149704
0,130862112368662
0,129109751346966
0,12528115550667
0,129103565237093
0,128971511001033
0,126866887458932
0,129231278524523
0,125733043456642
0,127666962868424
0,125249793057526
0,125462995816804
0,124530106532188
0,125152990619758
0,120903062750383
0,124803279270289
0,12263340898104
0,123552464174565
0,120757297524075
0,125609608360933
0,118434247032866
0,119677699377139
0,12010351169447
0,116519582719774
0,119087552348599
0,120139321779482
0,118718388816045
0,119749625649645
0,11956154288273
0,118105734656809
0,115034346439214
0,119429851713595
0,11793559357072
0,117867278554344
0,116420349777378
0,117634635188317
0,114939624749469
0,116461506366152
0,115588090215152
0,112988963589992
0,116420060361137
0,116759857591447
0,114463819813591
0,112043719986079
0,109703289103325
0,116104946497212
0,113709403808828
0,113782885660191
0,113430244424251
0,110386370010543
0,109312880187925
0,110451469350128
0,108320615585542
0,111641785808168
0,107925612591469
0,108916857946655
0,109722927559331
0,111300939036374
0,109138697428197
0,110606455420248
0,10504488447634
0,109026957114007
0,106914322777831
0,107850129196031
0,107512532945926
0,107247270031328
0,104241660987315
0,103120723296165
0,103498534638763
0,106224629648669
0,101905910898645
0,105629455963927
0,100637080399174
0,104304091392231
0,103669003957713
0,104420570459219
0,100209987338059
0,0993455901100857
0,0993352667467609
0,101584645547755
0,10125866844153
0,0997373442243588
0,098345042346898
0,0995669102745864
0,0979992375497014
0,097473540788383
0,0967710269795923
0,0997022015715345
0,0977348960180345
0,0971874942187118
0,0969077164447993
0,0974848696281902
0,0949901683475527
0,0957472645894515
0,096528286951367
0,098962675241753
0,0962935027912401
0,0976156055737049
0,0970408652651966
0,0966619259313709
0,0936929126469043
0,0933658482588462
0,0953477227509126
0,0962834862311246
0,0961349461454511
0,0994472905988162
0,0945452470092595
0,0969378109278691
0,0957302694611
0,0995172873514305
0,0991017178087821
0,0952380779081115
0,0981582888422099
0,095357794461057
0,0942527252706079
0,0972371389022014
0,0949386885320605
0,0940674205189874
0,0873161352987588
0,0901759318315991
0,0886512760398749
0,0880007382819365
0,0872248394143484
0,0882680082768715
0,0790472535881956
0,0873439820817785
0,0861233909457435
0,0912042884183443
0,0870549828345719
0,0857777493323642
0,0800286734392717
0,0857005527454779
0,0868930742227791
0,0895661797089565
0,0840718831889943
0,0886585555136512
0,0845515680051828
0,0925009160281896
0,0909976844929858
0,0927345711929859
0,0828518836869389
0,0878003007395871
0,0838109593789188
0,0846720585544959
0,0811344666692829
0,086071666814436
0,0802630710083931
0,0809598619606142
0,0820299364887812
0,0806408139874126
0,0837046998619633
0,0817850039071406
0,087557317149396
0,0784748262079005
0,0890609691272885
0,0759359086643877
0,0885462261678681
0,0708387533273947
0,0948142491489415
0,0757209079108111
0,0964945258460426
0,0685137387598393
0,0997119560199927
0,0621619158490384
0,110561169811407
0,0656422496283283
0,105600911962911
0,0596818266690117
0,110845552466438
0,063332952826292
0,103248753120737
0,0589030853953558
0,112015111416191
0,069806792758733
0,103861512079121
0,073804607652397
0,0952030358935878
0,0805926238930955
0,0860154750264185
0,0873629711354288
0,0795612995799223
0,0928983628504637
0,0733261255849179
0,0923462485800753
0,0759311961900114
0,0909490454037873
0,0793725379249021
0,0859533556642888
0,0840197509817391
0,0810477569548529
0,0834847016316495
0,0787581937564602
0,0819704895893873
0,07791919387056
0,0800733742009299
0,0818128845984998
0,0775161184945685
0,0835122340254532
0,0783889067466069
0,0786965795605326
0,0786858379684471
0,0797860628208311
0,0761662210163724
0,0781879594422544
0,0810231942784712
0,0788599154661999
0,0753332320241884
0,0785835498414862
0,0761395634949455
0,0802709581387899
0,0791683541194128
0,0790053345143242
0,0757255326619722
0,0791621047416511
0,0773162660114005
0,0775963329335475
0,0759225044363923
0,0801482054360181
0,0769836411106313
0,0810330662057334
0,0777047128667617
0,0806307163121955
0,0799400639534341
0,0794321802951048
0,0771456012407099
0,0810016159864278
0,0809805352404062
0,0782075560207417
0,0771645491737998
0,0783021573294559
0,0777560215983141
0,0773001588262976
0,0753512975765635
0,0811817865819793
0,0762170293007073
0,0797028942114845
0,0781047681036292
0,0800648029400489
0,0810919218421752
0,0798450079738706
0,0791373112551925
0,079104115081121
0,0764135079127196
0,0785717654943814
0,0778397726663869
0,079806689967909
0,0791815701959805
0,080965196110537
0,0794266536259262
0,0811264185518846
0,0780667175449047
0,0793287277712258
0,0761757383723868
0,0773666358450168
0,0766164082991048
0,0761781042907622
0,0777453707984029
0,0772561945771779
0,077152161955554
0,0785797770629745
0,0759091044812731
0,0784748489682265
0,076159366445948
0,0814671483086393
0,0772746691095475
0,0743753985789525
0,0736495704660686
0,0777396890484195
0,0775025012388075
0,078205156261202
0,0774304100458881
0,0819576532552757
0,0768385403716328
0,0786176999377338
0,0790496746112687
0,0782315605930191
0,0753130211850369
0,080163138220648
0,0768435150597219
0,0798980567687295
0,0785061886580075
0,0790987491245856
0,0794926365429301
0,0772868678748064
0,0790422836073584
0,0832437162870809
0,0785748120769955
0,0813155231729582
0,0811237609029141
0,079792509324434
0,079999827638992
0,0828706005228502
0,0781804855009009
0,0783422410358188
0,0808216821215407
0,0849035952336748
0,0803518416840123
0,0824970027774699
0,0801222544467446
0,0822262013318668
0,0807743227861067
0,0826187205974203
0,0785814328320374
0,0819349491732113
0,0796154444509144
0,0810712509817939
0,0797427241233951
0,0816335315953784
0,0805424957736772
0,0854383331310709
0,081061700639815
0,0811199548214576
0,0813699802297988
0,0844568503450259
0,0798984929831461
0,0801026034460051
0,0809060852854397
0,0841306771155956
0,0805055360625894
0,0796735790197456
0,0803910254510882
0,0817718872687866
0,0814840717693034
0,0818257884676708
0,0801108769838751
0,0835422650196165
0,0830744297847314
0,0843121750394368
0,0831837968901761
0,082708459417695
0,0815895064967096
0,0854383963078933
0,0834209261910689
0,0852716034224982
0,0815193110242379
0,0856184802058141
0,0815416866836168
0,0821906927256679
0,0827030628316378
0,0853647093612482
0,0860723398467396
0,0855427139021129
0,0795883783295205
0,0835997019683984
0,0836302861194098
0,0871431677321826
0,0865192870548412
0,0868908042875211
0,0841465053803732
0,085838136128811
0,0846445805593218
0,086140802900416
0,0865368015320514
0,0876342316217845
0,0845545342726168
0,0860974228992615
0,08257381447859
0,0853765343418673
0,0834330839007883
0,0840040556247561
0,0846538747901631
0,0868787273349485
0,0837807086497537
0,0857946315114744
0,0826210078819521
0,086333796183444
0,0848994243512548
0,083907582352948
0,0832067780649777
0,0844213529653294
0,0808884889250564
0,0840637982365241
0,0813278250835362
0,0815705565314742
0,0777979415264109
0,0830699556640401
0,0811790222251615
0,0832575333257657
0,08063802186716
0,0844035260162428
0,0803307256555274
0,0823592456582331
0,0808712423591567
0,0836472284309322
0,082599677667655
0,0804231764334074
0,08041731069971
0,0825655343388006
0,0807752571804543
0,0816147097274597
0,0795997001885542
0,0840552756346928
0,0774899945026668
0,0794005624971211
0,0788221351804373
0,0823875300759829
0,07858388934512
0,0801158578000355
0,0783174923129957
0,0790829416503185
0,0796015668822203
0,0827640431125394
0,0761708899709772
0,079595119638242
0,0783392556619307
0,0798709701685546
0,0784774548953234
0,080452273264428
0,0771280752407532
0,0811076140960776
0,0767048818101606
0,0808971872298315
0,0791757765151235
0,0793144744691926
0,0761165554534814
0,0764940925679324
0,0759698639190243
0,0806133913904669
0,0787937268044354
0,077949558513199
0,0792356328137563
0,0780728937644156
0,074909267775308
0,0807283113091957
0,0758011586991521
0,0789204814546636
0,0751174216097745
0,0784667710576146
0,0745724034014272
0,0792472608913345
0,0763859128689271
0,0779489887968592
0,074384948701011
0,0777173654672594
0,0773033127615366
0,0763784062352605
0,0728390751807763
0,0757950643215047
0,0768800589455801
0,077985049970667
0,0721539786737264
0,0765902054307855
0,0746621660294276
0,0775981040022629
0,0783037258865022
0,0783156289640765
0,0737814640559873
0,0762743976031667
0,0772497414861047
0,0766798346340069
0,075323255206366
0,0751802044584226
0,0751090602323235
0,0769763192660829
0,0739844801611565
0,0742835170450623
0,0736910274256007
0,0732851518683681
0,0718985104701114
0,0758769997458597
0,0731491368804376
0,0747715304039827
0,0718237270687469
0,0760193865079363
0,0721281310141333
0,0771771722180855
0,0735600007074464
0,0729253010785986
0,0715040716581706
0,0741135468039658
0,0710380941594862
0,0754757996512553
0,071544416452657
0,0737261199940788
0,0685983270586943
0,0743712062694673
0,0683100492530311
0,0717693062227585
0,0694647856419479
0,0714009780228954
0,0677441732217352
0,0697811138760066
0,0690038815457306
0,0693590576357017
0,0664172662388904
0,0704441928518565
0,0678671449563514
0,0700083323104583
0,0647423124764311
0,0692000611944697
0,0654236018333209
0,0681421213739332
0,0649445222174798
0,0679383840378639
0,0628941062794526
0,0708594921721449
0,0679439873925996
0,069274446829734
0,0616158103572779
0,0651447672338626
0,0618273951509188
0,0652885122590581
0,0607145672004113
0,0635454006253156
0,0607304655159202
0,0637229328614086
0,0619343413389347
0,0645085088998092
0,059137556517405
0,0639838302969997
0,0581365472487574
0,0621635597632981
0,0573485714910396
0,0614734822596603
0,0588524573092625
0,0603044924138068
0,0594761511138655
0,0626162657917496
0,0570378101321181
0,0594972655339714
0,0547399746399621
0,0603887725583572
0,0635205141316085
0,0709523230640928
0,0621600320771095
0,0564012600931602
0,0614973899720896
0,0614210154862775
0,0590018902174172
0,0560857598745432
0,0553298545294807
0,0569126453072377
0,057165282588961
0,0576982407987059
0,0552494422950683
0,0578259364658546
0,0552087666580125
0,0579284750857012
0,0565276986685002
0,0601868293303864
0,0542805795599981
0,0561742976021023
0,0541340961156687
0,0557738029922627
0,0534183642124748
0,055963123084389
0,0561837813147195
0,0574964194596523
0,0579313638020932
0,0616995695262714
0,0607699036912804
0,0554559757109482
0,0555559585084377
0,0559699758541168
0,0548193838521162
0,0553634143815892
0,0520008919817721
0,0530130635025623
0,0529850591303019
0,0536366488510276
0,0526778063600816
0,0531879142113969
0,0528462529866864
0,0571509810571851
0,051768049263598
0,0534634865746204
0,0514769447373632
0,0542939210672674
0,0557493111140411
0,054016704300287
0,0516191291831266
0,0550777587305336
0,0512827686503302
0,0542838321175513
0,048624128315768
0,0596662323863799
0,0630359842198606
0,0631679870202701
0,0504404620513599
0,054866081024364
0,048900943947933
0,0551501302906562
0,0496525423699621
0,0545550163394931
0,0482574865745981
0,0551976503296749
0,0502661225046831
0,0550513371323128
0,047648053480134
0,0531632835805069
0,0509570497596252
0,0528191164251071
0,048488228413454
0,0553361265907062
0,0473293056689677
0,0526785348669028
0,0536637782722232
0,0658909237238721
0,0553979268064674
0,0558099998058892
0,0427930209460514
0,0570270806508407
0,0517305919610318
0,0651917307237304
0,045651127047113
0,0523124786936058
0,0485026289337066
0,0515990477710759
0,0466484962706641
0,0483093666007774
0,0518292604280942
0,0566387548012179
0,0532720066225551
0,0522241139882898
0,0532834702643282
0,0508299754985035
0,0494027083094705
0,0490758019869925
0,0450775878196657
0,0498645649956952
0,0467329696568524
0,0514159698931704
0,0468934275984626
0,0508831984438614
0,04807757187128
0,0505745992633225
0,0527589783265549
0,0569452540023789
0,0508774805835798
0,0510527855203896
0,0447579941414166
0,0436197110636266
0,0504058324286646
0,0608620255661298
0,0564188378285436
0,0444947844142103
0,0478543616524322
0,0479745610593342
0,0494838780421092
0,0471348997785235
0,0470920463805146
0,0474991695508085
0,0464207840017804
0,0483071341597695
0,0463583931418068
0,0464130302210018
0,0475012174854225
0,0491856091861501
0,047189111107243
0,048670684748124
0,0458791158160975
0,0507108305764111
0,0455338909366899
0,0558221217210915
0,0556750003499946
0,0713623970395874
0,0606587198017885
0,0598683993025646
0,0551046771717381
0,0479023445422304
0,0492058473549921
0,0446010366205281
0,0474099924190985
0,0509856319592395
0,0471013748186301
0,0444128753798661
0,0504428644162746
0,0456660633389111
0,0477459151556959
0,0469103266242278
0,0491032011741046
0,0461816312466694
0,0486933516788962
0,0429184134231288
0,0502244597801269
0,0432200602268594
0,0513520797714746
0,0498185888384875
0,0598215790721895
0,0431506637727638
0,054250338519875
0,0641844965405038
0,0710644668978169
0,0607860295091136
0,0455176495412542
0,0521503583884076
0,0447560985793875
0,0485332427145334
0,0438641159884322
0,0538734469026149
0,0447659277363195
0,0463976194034366
0,0443470262932078
0,0518541126019986
0,0456613097121079
0,0481010213808822
0,0531492147800385
0,074115412956682
0,0625328572408695
0,0487580908607845
0,0437317262214206
0,0635541444138844
0,0605290528787613
0,0593954488039218
0,0469567560671974
0,0552017098511751
0,0478068149668926
0,051982524966845
0,0437765700741318
0,0511096817376572
0,0503052749187485
0,0517599015758228
0,0468905567797217
0,0454230037531728
0,0469556863015
0,0503158142533387
0,0491426324077891
0,0615909370906706
0,0570661551370897
0,0533414385230048
0,0537072771230613
0,0544476576135478
0,0496950412581499
0,0508855437889463
0,0487744861455239
0,0518351829033416
0,0618807587017759
0,0659859180443991
0,0609455584541488
0,0656676814102898
0,0611675642550316
0,053411601485588
0,0495969419696128
0,0653730034871783
0,052179999140629
0,05209440729947
0,0646471952738308
0,06437084989249
0,0862975154793722
0,0565556241623609
0,0656035238714264
0,0436112890751803
0,0618807408045238
0,0438557270347889
0,063280576972242
0,0600762974374362
0,0630078103060223
0,0457461348073519
0,0538307673656928
0,0645772639971986
0,06737448678813
0,0591087179168456
0,0562686214762076
0,0529498275016372
0,0582165615224639
0,0721669971272414
0,0550023459786348
0,0641855561706395
0,0666552841243877
0,101387875949213
0,0775638457929273
0,0608165899282084
0,0672526723750373
0,0803970775447103
0,0734930141488167
0,0534338875498309
0,0593645904321085
0,0579212021588269
0,0531929038353899
0,0677503717031935
0,0766130549908511
0,0734255225405168
0,0604396283620139
0,0617966145409146
0,0638263816663313
0,0694382710143071
0,0745132576398455
0,0601149841239657
0,0660325846298041
0,0589991859017006
0,0711408580720412
0,0915881585905139
0,0875716920904491
0,0918651187683301
0,0861451396328734
0,0959028086413069
0,0748081732431366
0,0810595973323809
0,0685194008848996
0,0938132413517785
0,082959564366565
0,0811677906544812
0,0652422174066481
0,102095169185535
0,0853666291252516
0,0890134363439677
0,0724273557146163
0,0822114215055867
0,0703522599250796
0,113130859872303
0,12865338652043
0,118069590049414
0,082548861925336
0,0943652150714355
0,100127564930273
0,0959834132455833
0,0819925628219485
0,0864458232943945
0,080992285812855
0,0831833148524189
0,0909186933110065
0,0964257786219208
0,0934433490838889
0,0959753669741533
0,0853451240598943
0,0999802425900513
0,101316485158165
0,16169280976343
0,115517103365489
0,126344804163035
0,12004522071606
0,136192825427265
0,108310262316755
0,105588595800729
0,0968366155479172
0,114861383260047
0,107014374543082
0,107636734336805
0,109594365380327
0,134035538593753
0,120400802701102
0,136926211704384
0,120001401718623
0,129707757932961
0,100099124151064
0,156789002516923
0,1802775313328
0,168836710369286
0,125385008596878
0,139107412740622
0,139735787056747
0,181630310597915
0,147312155726803
0,134776396784075
0,130946626104883
0,131175502797588
0,140494037458619
0,148707169852971
0,151185787812769
0,163508304704963
0,141891046200129
0,15725142793869
0,160747213180043
0,246859269150596
0,224605113025361
0,179534820469043
0,165627736511379
0,187466726323864
0,183301784406515
0,177548725286632
0,172545109575589
0,171924043459991
0,204602737954402
0,210875409853272
0,209221599745893
0,179152144408499
0,216218396093139
0,214666017553484
0,21251598807166
0,238127353688245
0,242067530144627
0,221486090751549
0,211354412492892
0,22040380928863
0,215433668121188
0,232876500719231
0,238960881004764
0,254816649524859
0,232906063397369
0,237761200604675
0,234236956699368
0,241084674703196
0,250028909052345
0,253405275873913
0,261581988148916
0,28410870092723
0,295271712079154
0,391544837802922
0,299867608568281
0,269429832605856
0,24962957886598
0,285396225779831
0,289028655888377
0,306481839012125
0,296507172075218
0,300203382267879
0,265317359813961
0,269668650401325
0,277344111417404
0,267845226353589
0,277693663856083
0,267315536600299
0,269828491495071
0,289155389644578
0,281181240782954
0,326060455485636
0,317303346541795
0,296529540454229
0,262586490888061
0,284110068450016
0,257219663769642
0,277317813693785
0,25899272709229
0,284777766490793
0,265866768193611
0,274267926712968
0,245800101522311
0,260240704005911
0,270536481976204
0,288095634113261
0,255654385834714
0,252932228945967
0,244657763008311
0,24891987246779
0,23293487391472
0,263535674574528
0,275827759638199
0,257314057534434
0,225720787813442
0,243672321208911
0,225099075897658
0,237196372114638
0,224831659508445
0,239145483978411
0,226022433393105
0,226747981946487
0,223863868013932
0,229515649091052
0,212257299478263
0,223138157921656
0,215737717174864
0,215068965696777
0,208943396062656
0,21091783179253
0,208012520713115
0,206162774015859
0,201313421004458
0,210927605401371
0,20002613758551
0,209939501027948
0,20255298718206
0,204351596177034
0,194014228634613
0,2039521533109
0,196466027302583
0,202906736311884
0,190642638766781
0,197080858599316
0,187591289389426
0,193426473241202
0,186949960241834
0,196615708279721
0,186711232070789
0,18886598462997
0,185240821499877
0,187883748875609
0,187090841710715
0,18691883296784
0,186691073877837
0,237593867716243
0,204292993987017
0,194872321846397
0,174942326679838
0,188634288626719
0,16960459663211
0,188792196323837
0,198284473544134
0,205812912578659
0,179033937917495
0,172296513784815
0,171572875707726
0,193751926120528
0,172714990964871
0,175787353967199
0,162227195707504
0,174221777985509
0,191685174506108
0,251150446003217
0,266108607245275
0,231185689938505
0,188576429038842
0,158808326529006
0,190108560324724
0,183646659921911
0,169646245088386
0,15487113090574
0,156990982861363
0,2024526422671
0,172744436920342
0,164793331693253
0,148836406854784
0,155130601124607
0,18139412805358
0,188839348485766
0,167984037693623
0,185760495139158
0,187265474547044
0,183518114703272
0,203202198581079
0,227122808158583
0,180223886996996
0,154664543309328
0,15065811660652
0,147318609175477
0,156508968395063
0,203963762689601
0,16164118263967
0,164316047862149
0,141638754085885
0,150025861157234
0,1418579526381
0,180015635371654
0,145501942604886
0,174195562278239
0,168175443673362
0,153807503040504
0,155791634027767
0,172884338258367
0,188733353264874
0,211586999242207
0,157027506930647
0,142467364580483
0,186489963786361
0,181108384803016
0,163043983400282
0,163169642460411
0,137642816504759
0,162051383674387
0,159279822427859
0,150391171490701
0,167592793411275
0,172819784836681
0,185528375337156
0,206394915612507
0,223605036429339
0,210514488954989
0,16309036333213
0,144738872473921
0,141801635367683
0,154756700249256
0,148110763311812
0,150141375548202
0,181790030036841
0,155960544854096
0,155932988354845
0,19451032474879
0,169350066328976
0,154122930234578
0,156176265144265
0,158151662202313
0,164785627778559
0,194160893497848
0,209350458219419
0,189489183054747
0,191027665619559
0,197640890081479
0,180273806784708
0,176244358048286
0,179788738848816
0,181437817764639
0,189418670034419
0,200412388056456
0,193239975162359
0,20097997375101
0,200971704443688
0,204945486801912
0,24945930108701
0,230188464680816
0,225353376815545
0,256953924235135
0,252791133854769
0,300312265009788
0,251000343311884
0,246020866416162
0,242146284779303
0,250554033680426
0,26029356628039
0,261654409447728
0,285202425204369
0,300228159682651
0,275167413750144
0,281722730691079
0,283342087275234
0,289849404285574
0,294435934590905
0,326951279264984
0,316519890922141
0,390810387038484
0,338968698395708
0,340857605310899
0,305813286529676
0,313855352805915
0,318558068870232
0,316579377803174
0,311320244141615
0,308027644078894
0,317913502017498
0,345402822659164
0,315087647484759
0,318530872668154
0,312376093896377
0,326498249874516
0,32024632318206
0,322997450591216
0,324311340156354
0,327510358849015
0,327452393019906
0,328928344950472
0,329869957749263
0,405382487359816
0,354053583759807
0,342396538792983
0,344106900815859
0,349052202058108
0,346796515984948
0,349612218158655
0,371458495582007
0,36517838023346
0,356905790904359
0,360768501113956
0,360907574481013
0,359573602869552
0,38300529318865
0,391052812958961
0,365853874162906
0,381577938279342
0,363531046603091
0,424696332820879
0,409200107675767
0,403215016640138
0,39368493822925
0,390450813011008
0,373773183164812
0,379982795680238
0,378842160064079
0,390420524597512
0,382381930069033
0,380318886671205
0,381809171064082
0,385837492827473
0,38180750637371
0,377719636086118
0,385230842977322
0,408556533965921
0,381626332785906
0,376501581081358
0,369195751368679
0,374744164603593
0,366685243954673
0,400540091575169
0,386156324524749
0,38050510102768
0,369905295653603
0,383862938059686
0,383465083410689
0,382361887491392
0,356983848120668
0,368398370233414
0,361336471748204
0,367418192999122
0,360499150038702
0,381986180262252
0,407379323606251
0,383712722427516
0,375141537979797
0,381341995865628
0,372177345560287
0,383112709893767
0,382991670304663
0,389627687146964
0,390578069479589
0,395642402854506
0,400777251682541
0,399443319998193
0,39926272405189
0,416870054318806
0,42824273621834
0,421342600076972
0,402823203234792
0,41227215740677
0,401478561437846
0,414437515743015
0,414370680829877
0,412897690990693
0,407673589102952
0,408510508031868
0,399616119184421
0,41580992880921
0,430208879106396
0,41082300252913
0,4082335684281
0,401650232370744
0,396798947815313
0,396588046950615
0,392794582631714
0,394355294446953
0,39083025307486
0,399704833278892
0,387724807662389
0,387862726522449
0,383984040607315
0,387541651690876
0,381823962640976
0,386702366498618
0,380460975172123
0,385557544663866
0,378227782152833
0,378200996624576
0,378650957784686
0,383375923576166
0,376935757628284
0,380912590315478
0,392947321885403
0,398114115848338
0,395236407046328
0,384356833763778
0,384253304474116
0,389295766150432
0,373244183646087
0,37521287900523
0,376425201511942
0,374849937086583
0,371820950781538
0,380691545241104
0,369412392827407
0,37049883389812
0,366762245763005
0,369153257966383
0,363254240386007
0,373117356888756
0,361633188631421
0,364696495619391
0,359427743835241
0,367055470677181
0,357362212516938
0,369870372142405
0,35897077137728
0,363206020014037
0,361771440244412
0,356412165845601
0,355970008788191
0,358856247890902
0,359012008787025
0,35237673629923
0,348058978843939
0,35140738928838
0,345508364409868
0,35440908065381
0,347560501737244
0,348964228576949
0,349511150583582
0,343999559812516
0,342556489148288
0,345158452645957
0,338747140640382
0,342046216191753
0,336822991470417
0,334400134612725
0,329951131664797
0,331136573026035
0,327669263164834
0,322748095652479
0,320832744115981
0,32203509731924
0,314701386667729
0,313726001294658
0,312574890987129
0,312065763661033
0,305670066305005
0,313684889929884
0,302973262565114
0,305884779372912
0,303349342947037
0,300349764533995
0,29842494482689
0,301774629441695
0,298279437698853
0,299465414635982
0,298449393137963
0,299594959969438
0,299686489386444
0,30270437901411
0,300487976109933
0,305076876043675
0,300220733738279
0,300655339972508
0,302128211212992
0,305474984401028
0,305668029103254
0,307050785882787
0,305942560419783
0,312734489472326
0,308399584926174
0,312373646497625
0,306527814964708
0,30993165235828
0,312137067006489
0,316745887627639
0,315123887024232
0,316780555871811
0,316042351089341
0,318205168916904
0,314503273848213
0,316738834807576
0,313971354982996
0,316462254547763
0,317194683593947
0,316762208318542
0,314184835238456
0,314706227896661
0,311488181539944
0,312688023249756
0,310011764104969
0,312760022360144
0,305811531484475
0,313057336309869
0,310287011590484
0,308024687585853
0,307730138651455
0,309365644977159
0,305237887923292
0,307582378040661
0,303788460662502
0,305063013792677
0,30284380906258
0,306227198312818
0,30180908668079
0,30074153690333
0,302278512194727
0,299869327207354
0,298186261567895
0,295902874592327
0,292756620036913
0,29218239688218
0,291593848276394
0,29301414071901
0,286037938536916
0,287820554235758
0,285053752973548
0,284410511014199
0,281173110630356
0,279737556633435
0,278128302532482
0,275936792749444
0,272629821231244
0,272146958897992
0,272697576582322
0,271206213400486
0,26698767356003
0,269017491401874
0,265423805757817
0,268164636304546
0,262832833968309
0,263675250832646
0,262952491930223
0,264850304735671
0,261913931034787
0,261969195796192
0,26626898364229
0,262031787115272
0,265263842943349
0,262329146030956
0,261610000088976
0,260803647013609
0,257937842345517
0,258486116452837
0,254109516347987
0,252874998404693
0,247572014511261
0,247130147482378
0,24323915405735
0,238602929457717
0,23369747035729
0,231704170622376
0,22696874159041
0,224168767281818
0,223012519785465
0,22164573945728
0,220578709287295
0,220661135751729
0,217659722776038
0,219144115499262
0,221435888633932
0,22415942753085
0,226537889465771
0,231318324229072
0,235130286770521
0,240872828584627
0,249680221716455
0,256386643055334
0,264245352236015
0,272549265773877
0,284444368746676
0,294490865515955
0,307695596360154
0,317540188559258
0,330121536342474
0,343999631601385
0,35793672196335
0,373337972984201
0,384894026470303
0,405700002467395
0,42252365452911
0,440522317360029
0,452978223022031
0,471917581857157
0,491268557159221
0,506475783875316
0,523446344777957
0,541872336100668
0,552546190152593
0,568649875535017
0,579200300798128
0,593335509943111
0,602111350791878
0,606146771542789
0,617215583296403
0,622290204319699
0,622591468980547
0,621686283850144
0,620997041222026
0,627111383884235
0,618727361476816
0,614779708286403
0,610151381121507
0,60959960059079
0,596501477999227
0,593691060620109
0,587354710248953
0,581442362812662
0,575087332407514
0,580650090087993
0,573153566406283
0,569238777372276
0,569939210048462
0,56692095795997
0,566738306161883
0,571266413625208
0,574680154360616
0,579772965668031
0,578907727717363
0,585181006472776
0,591005750472787
0,597978955681314
0,606366467411925
0,609624297927386
0,615495763129041
0,620227204068003
0,629380769245677
0,637457452615354
0,643964818625688
0,650505225050171
0,654060229217583
0,651297376315036
0,660621133636405
0,664528977754277
0,664391186070085
0,665656143563595
0,672831091229958
0,673605476052574
0,677334380840892
0,67280546587698
0,674399173544727
0,683579565153741
0,681201380112402
0,684153950888182
0,684836100392683
0,694983787036198
0,696141741956463
0,705290662763413
0,703430622139343
0,709197738891745
0,710626882921819
0,728492399835967
0,716654754565317
0,729244212319427
0,737110105354194
0,739559784571203
0,748958293870418
0,752098225020853
0,764759129847612
0,778181628980076
0,784593150376426
0,801827964815309
0,817489109948762
0,831446090959029
0,850688809617504
0,874711733066661
0,898145321072027
0,919811312388986
0,950153041518912
0,974033362707298
0,994900073830985
1,00626114603717
1,01603602848761
1,03809602363008
1,0323466509045
1,05118330089215
1,07561763876255
1,06972614088521
1,06206569500593
1,06919810780192
1,07634965671927
1,05880233682882
1,0484817843536
1,04013954588978
1,03810241057971
1,03044551160081
1,00882946229798
1,03508103276603
1,02567187647548
1,01941084238219
1,02590038424298
1,03419738352741
1,04601917803004
1,0451253350184
1,05707337608521
1,06346483542931
1,0752841049574
1,09617244685995
1,10957348381641
1,10211667551192
1,13671952007329
1,14760774225652
1,15652821202974
1,15206149514932
1,19532764697907
1,20423108150972
1,19904188076368
1,25017480643016
1,24348453466139
1,26028343977137
1,28122315584402
1,29725673476432
1,32940161365735
1,30954302147545
1,35462378149691
1,38658522331537
1,38246901785377
1,38812663650146
1,40124872366438
1,45606738207685
1,42268602323137
1,51122782477765
1,56236261225133
1,53601518580994
1,49360028572369
1,57189531592094
1,57140561886974
1,57103355756105
1,59927884518906
1,60201543744451
1,67677821707921
1,67796880100255
1,71235804634354
1,6936556254171
1,67986291362218
1,71066078311875
1,74248909228375
1,63655250669567
1,71518125700759
1,72776282020242
1,73300008393751
1,60564046080398
1,6484745268075
1,65283565358218
1,59050013151308
1,56177310925189
1,65050549136103
1,59301084766077
1,56023171697512
1,52437081180586
1,53748575920763
1,51586602987983
1,48055340670407
1,44176209174659
1,42426314873469
1,43595954994135
1,48728813576106
1,40311948262547
1,42596039417293
1,38685386592628
1,42692047553967
1,41811509991317
1,3799033411942
1,35776876052282
1,38147143220192
1,29695565910509
1,31365254125215
1,32262890252101
1,31104615272264
1,28893337623287
1,25876600779908
1,25469175977389
1,20950137202464
1,213286740822
1,16718270014679
1,15735425501024
1,12720629740208
1,08915428894332
1,05339598950544
1,01939962709846
0,95646430628566
0,925153015407142
0,888736219100265
0,831055520437793
0,787563396179412
0,740039629565223
0,704551077915777
0,666780720118708
0,635315270540281
0,612811360007415
0,580362771982788
0,557716385030047
0,534965424039691
0,510803550313299
0,509676096140204
0,486147571117891
0,464625150676014
0,461349673498726
0,450655318493258
0,440346110457475
0,433686022153021
0,427311315653728
0,421945206362523
0,414292332118646
0,408904160951486
0,409259284191
0,404628585560412
0,401629859809565
0,406133348035696
0,40321599627054
0,402360010260569
0,409222795461848
0,410105389157343
0,411240190744129
0,414964943942206
0,415810099232738
0,423106567602995
0,43211356316698
0,437302408239842
0,432220634981772
0,43060925750825
0,436207791876052
0,44761268556453
0,443940891396203
0,44511530665468
0,440011326796761
0,443753482053643
0,440526995210822
0,446076201813812
0,440917184908254
0,443244616598593
0,442631531290003
0,447035442785878
0,451028361319432
0,449484261288155
0,446670167139183
0,451161765120497
0,445369386129009
0,44570292225577
0,44673179246111
0,446274826458903
0,439903321933256
0,440121497901984
0,44270822422591
0,433745453914363
0,429828704118651
0,432739021206775
0,425934337889907
0,422075162312046
0,415278762069651
0,41423569457436
0,424164788070735
0,419017360166254
0,41166654020018
0,415481443284803
0,405218431456879
0,414532595296796
0,416364052625003
0,411405152572849
0,414890232328174
0,421955671003287
0,411731941480692
0,426507723581094
0,431700907639897
0,442836474013886
0,439100559787843
0,449909894911671
0,45064660544424
0,454906180669293
0,45182162777901
0,446107797040003
0,45137468507819
0,458120477563508
0,448656937056623
0,43645348085891
0,440639631205659
0,430399658554333
0,417481315157332
0,412129644923525
0,41587148767526
0,409906164094018
0,40018686446836
0,39688106280318
0,397007008534097
0,403891436857266
0,391485067673602
0,392048530225856
0,395926014370169
0,401531743483059
0,39141171586399
0,399805288424345
0,403427610136218
0,401925752423562
0,395831338664526
0,4000530759666
0,388653828808216
0,391726857517204
0,389050691291595
0,405482514750645
0,399754296221452
0,402750606813216
0,3946641903184
0,410016993884804
0,412358794597721
0,407167351794688
0,402031179483202
0,410814848878127
0,399391931609049
0,399871963924483
0,395208863897689
0,393764455667955
0,406569620620922
0,4028845172979
0,395915868409498
0,400855798997297
0,392182184573584
0,399664307385558
0,397979666934439
0,397118110717915
0,391409628693044
0,392011299656361
0,388307176288109
0,39537786609921
0,383931105444786
0,393307180268914
0,383809906498348
0,392881981540629
0,385452437726562
0,385183647860201
0,38098959143047
0,366407684084976
0,354741304466005
0,36026591248059
0,358268536109227
0,353402294731751
0,350954701865702
0,346217890293895
0,348777246379111
0,35079750609909
0,352097497438686
0,343788935658348
0,340621448612285
0,341983473403305
0,35245770719838
0,338055106340009
0,342106029374952
0,346901294746664
0,341981964806628
0,338621179687276
0,345305859033348
0,342949222361376
0,347823697358822
0,35557324463149
0,347658675157743
0,355006516077613
0,340581604986546
0,353526603682151
0,339864991300236
0,356193707310805
0,350125980502456
0,364501366472079
0,35545952502895
0,378952446799634
0,362177463633709
0,364398690238769
0,369466162006285
0,381193346711521
0,367349137994665
0,380812785790568
0,386437948994209
0,392413106685097
0,400565661927988
0,407067633765136
0,411685825109355
0,434976780224111
0,436767754622723
0,450946109239213
0,446109224850686
0,436399592225985
0,439092141097553
0,470459471283041
0,476286960472635
0,494612457979622
0,489004511792553
0,493227620923698
0,505736965661584
0,50317001557738
0,500344514622289
0,521040159425122
0,510367402746991
0,537520305831405
0,551777690659679
0,544694662683307
0,512546522252548
0,537936451680241
0,512582831559246
0,507172298772784
0,550623804860778
0,564666796558295
0,543652689141034
0,544488959863588
0,542571027215881
0,521979780597384
0,551477626211101
0,547026831216157
0,551036611508902
0,568280125978262
0,530035734933229
0,529526930730159
0,566781887690915
0,579677342362227
0,574923022889782
0,5658441479674
0,540340425435167
0,565302951905827
0,56618527853901
0,550158816784286
0,530996171161824
0,556809893029609
0,521991630845328
0,508697162370511
0,531561412683795
0,520062899443381
0,507030154404327
0,524787632207406
0,492993695619473
0,508126931994957
0,529352559192297
0,535248316613216
0,470504181669438
0,516584948566388
0,527523723015023
0,506513589462473
0,523189685859605
0,510155134181558
0,476034066968741
0,552537317594817
0,509192728351646
0,532209844525001
0,552664810872298
0,489962104795535
0,480097472585518
0,528101648359468
0,528892616653763
0,553932499001909
0,544212894290922
0,518618971177849
0,554163371554232
0,543149315563059
0,517225929962944
0,568999020787023
0,590358566846904
0,58709427700463
0,525603525105443
0,579142560083758
0,571278953708504
0,572587476404333
0,569068587562019
0,606436010659712
0,601620175638251
0,627838867853561
0,584220064280915
0,599173289274286
0,59255760075601
0,57391674349869
0,610767276232605
0,574694858609427
0,653193514562122
0,771529847645588
0,618539032622923
0,644118603724625
0,709140631238409
0,734406409819232
0,754051255156038
0,695729957896609
0,675447988339077
0,627389878586216
0,710788313470503
0,655450861185112
0,664295425165895
0,666908452265508
0,615298522462741
0,870304289510272
0,766282673845346
0,578411969671426
0,775575222033905
0,724624587269886
0,625838470493078
0,801005132709804
0,588701771976101
0,655265600494889
0,671874499087628
0,653825984808017
0,612457556409644
0,645303137126006
0,656325885370453
0,617942498693119
0,54344189139931
0,610945459994474
0,569018488680922
0,530669119565991
0,673434655540193
0,848785305939216
0,657593637208599
0,635893121241087
0,745677343508975
0,955448052910381
0,787820408482053
0,711676200174754
0,694316681614193
0,633020357495943
0,755686279401465
0,365607449991791
0,605699701933425
0,578838574995377
0,765455690732473
0,974533862775966
0,639171429449344
0,804218420564565
0,834542353269407
0,832754382697807
0,792146615453282
0,717468259677986
0,472495721341086
0,430424351082449
0,841747346385087
1,38781482041086
2,24066198754122
1,20608302670197
0,951723374460743
5
0,63960981929367
