3596
4000,36533379555
650,420452594757
1
2
2
0,0883273010203955
0,0995549603607069
0,0873478034274673
0,104165565927307
0,0841400752734692
0,112101662022519
0,0802815445571491
0,0979188241209644
0,0781347518652431
0,106969489484132
0,0782561424492361
0,0958722712359805
0,0814757026775041
0,101837635807761
0,0897771545262919
0,0913574151728396
0,0864831687042164
0,0882130850543458
0,0777963458325634
0,0916733799425415
0,0858521406521844
0,0984916767744606
0,0799828621219513
0,0968260823402889
0,0804032051907842
0,0926702626476479
0,0796765549930136
0,0909209127199686
0,0758115852832781
0,101113126990906
0,075418466837052
0,0967148706658196
0,082140470003775
0,099250194875604
0,0812809644377204
0,103173804666551
0,0745853972327506
0,103076979683581
0,0795232805893309
0,102973592041873
0,0953687617831697
0,0987575320384001
0,0838692897357381
0,104919124146475
0,0769309014932032
0,0931034262713185
0,0897442079983235
0,10329735231232
0,0879413327792216
0,099181323005228
0,0896382045924854
0,0973676568927817
0,0914155755211404
0,112637388444375
0,0812384174005687
0,101664839306831
0,0890867718022658
0,0997417115817109
0,0840925524594406
0,0970076667093498
0,102755759736216
0,10425928787115
0,0839618197125197
0,103170355595797
0,0843180673877843
0,105542692497168
0,0826851082194032
0,094602395706878
0,0827695974290796
0,0954298278727975
0,0771481131012197
0,107536030555302
0,0908618525634598
0,100845437227059
0,0911182054442285
0,101573485711064
0,0713544167354079
0,0933287956711756
0,0780493952553516
0,106369914758661
0,0935406000280782
0,0997939173785319
0,0791824282308223
0,0832487307748161
0,0842222497673606
0,119971691302742
0,0684824965171947
0,0938645305623353
0,0930534131547728
0,105221360340299
0,0749499818462531
0,0998720106315005
0,0693609209098988
0,0955849721502757
0,0701837269099754
0,101635029019951
0,0764382547003142
0,096442011345036
0,0736033897601055
0,106116235721289
0,0928660237025675
0,114451634514488
0,125111550239937
0,0974680843114318
0,139623696614686
0,102401042240321
0,0808721680282046
0,142323472803962
0,0833412684251807
0,110589581144676
0,0703231333534985
0,0953950385226564
0,0839572709515564
0,103211327576466
0,0622311603361367
0,109837812635353
0,103599197239245
0,0988686079659354
0,0823017805753485
0,0937588107426661
0,0651338679238148
0,137681225849112
0,119715456929159
0,0913808522265075
0,085489186152954
0,0888766843819471
0,0852489106317929
0,133166299198319
0,107329069853245
0,0945701880466007
0,0708763146495478
0,085576712921139
0,0676851673498221
0,0914002461065155
0,125552591504556
0,102315074050772
0,0834868907497279
0,0946306496562344
0,0977876308442501
0,161904471787463
0,0929088897352501
0,0873091478770845
0,0580207342927207
0,0983654646464722
0,125119811833236
0,106936898053127
0,074033836401179
0,114835407200491
0,0936144678523787
0,0891396590631592
0,0673601970074286
0,0784950299854831
0,0908191154672689
0,0912784493084659
0,0434558274572878
0,152764786352242
0,135435595800492
0,119479362021707
0,146483622383975
0,102004155253635
0,0955924724922377
0,0919056312345781
0,0822051469750333
0,083178318346708
0,0803261832751832
0,0753857361816159
0,0892034451914211
0,12175099015044
0,0730143670957017
0,107708624655574
0,112384000412831
0,0996414280016073
0,0762569684620434
0,161800449972567
0,0933749522381885
0,0847105653215687
0,120446875484212
0,0913692240698736
0,0651572837279273
0,0928928079535001
0,111853792092149
0,0902962293575225
0,0825010359026955
0,0822385258008009
0,0852427651621476
0,103666404140814
0,0778311083135148
0,0931486275004429
0,0855782792885845
0,0826320884696173
0,0890999456053057
0,145422484968258
0,113214567400993
0,0897372750027923
0,0868366173380271
0,0676042064256879
0,114159787089707
0,119833446919928
0,0777361833237248
0,0814935422895498
0,0716874039252946
0,0906881317291678
0,0759337592707079
0,0853359343523073
0,0708732811284883
0,0712252331408565
0,13031410585278
0,102394646946902
0,0835736787383864
0,095205432309327
0,067725905713531
0,0866705818138029
0,125705220528047
0,118927363912753
0,0735999612266398
0,0908521393679358
0,0723296163732648
0,107280290934153
0,0926983982085128
0,0848548604801437
0,0762163643469877
0,0858070492062783
0,0682141500890077
0,0852522761985461
0,0790498993261437
0,0866476023592587
0,072130178602346
0,0884393970177352
0,076589719315277
0,0933173089034388
0,0979505132155436
0,101608313190688
0,0807921283182749
0,0897844198704919
0,0717943776234481
0,103600831237084
0,107125137258476
0,0904728918704282
0,0868336061090011
0,0826349349909382
0,0734565914638334
0,0894587925663423
0,082632335512245
0,0806561573174099
0,0756537636725139
0,0752858843622385
0,113930230956619
0,0977198973892633
0,0849713461917637
0,0888254639273394
0,093010702767871
0,106912650938476
0,0758446734474406
0,100253166224744
0,0802192472395313
0,08117388901856
0,0828997273437869
0,126758952821326
0,0914892044076913
0,091022088428763
0,0916215818272434
0,105487428104525
0,0774464827164291
0,0910801521831179
0,0648954768570387
0,169459753580065
0,103762696927795
0,0818969633189907
0,140756170720298
0,114226720820105
0,101135750315951
0,0972072981409068
0,0471968023810838
0,211422822592764
0,135459867775648
0,0925974954694068
0,0915653326744977
0,118147655940267
0,0842250409779449
0,101400856535263
0,0902197765774606
0,117308003201456
0,127000456132499
0,148040963607241
0,14938508593869
0,0894966714269329
0,106674699227864
0,121101387821713
0,0847196127544477
0,102292983187153
0,0806163370006511
0,0963123609469225
0,0960210612288925
0,121153292301964
0,111040776508206
0,113657715484342
0,0824745697888957
0,12577025357681
0,0901384527200228
0,0971248349814882
0,0925309401531656
0,115174494532021
0,0818899172069528
0,0979672110106099
0,0873773756917393
0,108738037562851
0,0800068268118161
0,0994064153776325
0,136902626039589
0,124180092761438
0,0973150444311771
0,143375308939846
0,0870084795836715
0,100863143465252
0,0872964833250057
0,0935978985982628
0,0839531359509246
0,0910778051242736
0,0817551956164581
0,132938049246476
0,101376419572758
0,0914638523078339
0,0929416089797955
0,0977023088570554
0,092167144279257
0,0975527774777638
0,0861501736399258
0,100267035250472
0,0940178673623962
0,0995308414762543
0,12501831734416
0,144610579485756
0,0894843651794565
0,145370113468007
0,146207416907931
0,105936230366162
0,0939538330874849
0,100870890523727
0,0969105923788271
0,0966831082584403
0,107354811535952
0,113125550484702
0,111089742467865
0,129153563830073
0,112620735390358
0,110628478711995
0,12233780104296
0,204087279169865
0,166577136209024
0,14126782309098
0,112444466483316
0,0983432696028919
0,132808758269582
0,168685169050559
0,126056709366282
0,163726574996248
0,107461958901328
0,132656445564566
0,113651184172699
0,130551188428996
0,114918616977199
0,12870636612512
0,121757239916918
0,126453093735954
0,123698958520037
0,138065993159952
0,12247994811076
0,140459485530529
0,16729688133112
0,158093220283426
0,131444896996966
0,147346941182937
0,139030063341165
0,169096898623798
0,179184950233379
0,193193364334651
0,18607007362526
0,183162254608836
0,200236127751849
0,165137063318485
0,156544065632439
0,151771015908916
0,157404108495354
0,166920636956455
0,156551154960252
0,163589569534698
0,166509180183204
0,178838400036338
0,170489913476412
0,168791497120923
0,163378204869266
0,183365768819049
0,190353289983691
0,189126282822251
0,17798249396254
0,193439719247084
0,175937807219246
0,270218293603231
0,234013017548412
0,22696761651792
0,186493611910173
0,213162689084047
0,185768885935048
0,206542287723664
0,190126710932822
0,222196296589798
0,201104814675503
0,251255515649117
0,229404243939832
0,25415644696767
0,22708668733032
0,216499280446879
0,233777617086063
0,243233868587797
0,229006507893457
0,277405842012114
0,236390082235497
0,233153426531685
0,25013251944494
0,276300109321864
0,252639539428914
0,279684025249507
0,242487754019182
0,257065440838775
0,243953668730761
0,262266941494268
0,249493670772403
0,272842328801077
0,263456497900265
0,275561305308743
0,281248287890484
0,277160255339623
0,272648661369293
0,303742179781694
0,287008965748806
0,286040977491072
0,285256856594358
0,296440110593759
0,276245280281551
0,300607275613849
0,307756387648686
0,355836149904892
0,317429659833837
0,347607146370097
0,303751965921168
0,32066070037897
0,310118734656643
0,318823285278359
0,312589105260274
0,333484183408398
0,322141534786718
0,326679491878133
0,320107004379275
0,351327840839829
0,328701247573975
0,336315429745152
0,331248400034475
0,352434111845488
0,344807941796517
0,365548698762401
0,346922620098488
0,373463062845108
0,399870709545846
0,413465223124194
0,40465392102305
0,453884050500835
0,370714870757341
0,401255669963483
0,378878202744266
0,378551583334939
0,383257528704422
0,401435138510509
0,389808863048202
0,401730082655912
0,39063890404657
0,425249241621368
0,418976353343645
0,426586292455723
0,4191556110973
0,434105727266885
0,436060231828983
0,453409009094062
0,437586015681531
0,44394377170807
0,445093429752357
0,451709950136772
0,448796459760634
0,486468323707662
0,470321420837811
0,492672527928245
0,458591112583331
0,458021707882551
0,469833827816626
0,471563326468442
0,467238120003411
0,488190116512093
0,465159674966629
0,50399420407585
0,502338515894707
0,51521325636146
0,493862373436006
0,495851522366118
0,499973606791706
0,53308140854976
0,49344734686205
0,538965478236504
0,519518597768999
0,529562637828799
0,534043166469439
0,544263910004162
0,535107442444791
0,564901569391594
0,54495720789677
0,537416566119856
0,52485103216765
0,556640372978391
0,538956909205784
0,578779158236169
0,577288667727065
0,566479615012847
0,557370626006432
0,567008770156498
0,570371798009984
0,609012164770789
0,597495753573845
0,62730301052543
0,596808545863858
0,59972404269851
0,591192336236051
0,594721611634837
0,598841152328368
0,597170327577322
0,577349853143856
0,614864978682674
0,63081901629743
0,641456515077967
0,609362120610197
0,62453920223972
0,635339027774502
0,639082700043921
0,649286196775045
0,65387090844063
0,653332776461165
0,668739519550426
0,648629367519257
0,661422048386757
0,653860522080714
0,659758660659702
0,644334515592863
0,674646716795264
0,670908939309396
0,698742418162049
0,676673033219456
0,683199480252744
0,670309057306955
0,696422592060293
0,685374278634707
0,702754044448114
0,689874591368971
0,743225994382224
0,719467714440884
0,73619897147129
0,710052363240022
0,717705773497806
0,74082864332725
0,709391754530105
0,684147776374046
0,71468607327422
0,709697733530532
0,744551503834173
0,725620097245087
0,736684348304594
0,719749613555942
0,751329934775966
0,771478435865418
0,786947152936159
0,778483266422421
0,788045102749292
0,754853726961804
0,767188462216253
0,789259496307361
0,807877185777619
0,805727884871012
0,797893694402181
0,772966495548502
0,784903590566386
0,767626030935816
0,825644401920274
0,813162486457964
0,791589406756562
0,774902294457671
0,814758832972678
0,816647059241995
0,818054426006685
0,81768921132282
0,846032669381768
0,808686954783393
0,834775159313767
0,8306066720458
0,81792754002451
0,836136128898062
0,816163366084301
0,832406312105777
0,876495401143434
0,852390400145462
0,83326491455845
0,843341272622229
0,858670748846347
0,865803894529122
0,922808283270852
0,859143575175838
0,861817533422255
0,854069788649589
0,886437541093098
0,900281022700394
0,910672763613698
0,892380430788367
0,879742364956002
0,899535821535696
0,903915959051993
0,908227539701512
0,878145288336407
0,887054117907147
0,940312380104297
0,902926641563131
0,878034010045554
0,910441726597602
0,914459030050847
0,915579594760178
0,971553398480224
0,919079023003714
0,944363578506016
0,930191469533042
0,928664193737408
0,920683444047773
0,93330157329151
0,958815078791063
0,966742403726159
0,946507017861754
0,950350294832232
0,988417896559329
0,94382950539724
0,918073516362256
0,95035772931071
0,969146982968504
1,00203981052982
0,999513313725101
1,02541522089941
0,987479959081199
0,947475636621391
0,969360210253423
0,976675950143542
0,975670873407208
1,00617875807997
1,02166008705058
1,01706957953127
0,983430953958146
1,0051477610338
1,03724616366904
1,05302026365951
1,01821653280126
1,00849379973045
1,00852316062853
1,06133300117956
1,00516504009213
1,00349609294085
1,03566332754209
1,03538894486324
0,994774279640325
1,00890232599187
1,08983337307265
1,04818135448118
0,992428483968865
0,995578520641284
0,964524806594685
0,939606507473398
1,04161418788448
1,05215194876988
0,984230712111123
1,00816167415936
1,04435206328462
1,05233243828122
1,05084374308657
1,02483055985246
1,05386619054052
1,04116021628778
1,02519526215293
1,07410223110775
1,06222729813644
1,04986435720035
1,00645120238884
1,04395799007328
1,09058688403515
1,0564072977976
1,02207846835448
1,0678960636553
1,076882401772
1,06789835502657
1,05685722003146
1,0660039627254
1,12027454885212
1,04954673385246
1,03927947990644
1,08317435896236
1,04165224808661
1,09179116473318
1,09801169875281
1,0547293720739
1,09158856341266
1,06477866358088
1,11139687617716
1,06696427818381
1,06651949996769
1,07904328416598
1,07080535276385
1,07257115312517
1,06943691383247
1,11065420735295
1,1209870387251
1,10816707944598
1,07964454631925
1,05537989981305
1,08372612026656
1,11014554134157
1,10636307941288
1,07383650076351
1,08755721533236
1,09096235017193
1,08966727168785
1,0662721123869
1,03735476285002
1,08615842150313
1,09473789616092
1,07618233532286
1,11730651515655
1,10341185149183
1,08724270587298
1,08113321726912
1,09366289916712
1,1201695813977
1,08713428953651
1,02659550300733
1,04078613762377
1,02247626046971
1,11148901795669
1,09908651301208
1,07410254149062
1,0685297802838
1,06710786336652
1,07876040760111
1,08807774743198
1,08508410999118
1,10876731483894
1,06813355581016
1,07931492272331
1,04579956347346
1,05512457925209
1,09427079044681
1,05306153872048
0,99514313276655
1,08341223650605
1,1245053846999
1,06178952211742
1,06445246754063
1,12934666428774
1,12094743350823
1,11332949942468
1,073986109275
1,14193827040946
1,03839472641039
1,04050831729322
1,08580519272148
1,06850126151047
1,07854307080119
1,09618535536645
1,08902439125693
1,05462497074888
1,0794892780319
1,08519078649331
1,05756412447426
1,06464549232134
1,01965843031393
1,1056765762072
1,10290746885093
1,03767273803716
1,10360274827247
1,14773178815921
1,02941701338515
1,03532604162024
1,08065536867104
1,07040680418427
1,05293742916674
1,09193811785197
1,09753743762667
1,07150616958166
1,03495423116333
1,05916452465218
1,04275296626208
1,03073155968912
1,05478770274343
1,04157590839003
1,00758206116869
1,0100585930487
1,01050354424815
1,06723314710001
1,05255685003068
1,06688130216865
1,07088378142165
1,05192314941797
1,04040476275328
1,0839591313137
0,996909227119119
1,02626452189348
1,05741118984538
1,06897410446584
1,0070244979513
1,0235378245187
1,02942637993976
1,03166433278336
1,00988080683971
1,01731110596076
1,05350605093206
1,01367157614873
0,993137111558262
1,0186378776627
0,995255259724531
1,03281212327907
1,00548942643071
1,02665159435812
1,0003140414579
1,0182261940427
1,02128747994963
0,972438695943303
1,03187257609839
1,02650922268205
1,00495102767838
1,04637657954641
1,0177644827884
0,998657400732904
0,981723001939247
0,991801424694138
0,956395908705911
1,01911441865487
1,00757312124509
0,983161310064293
0,987836759183971
1,04696888310463
0,975624358033737
0,974758082412595
0,96173235845605
0,989151420017135
0,942533552746669
0,942149850786924
0,928576340720144
0,959393368222781
0,956143994282315
0,964966282399321
0,953398962669707
0,955019785436713
0,934274370428059
0,930037213977512
0,921426115913571
0,926974980579811
0,940832989314969
0,934273158937425
0,898107374318339
0,940908414253884
0,920500389506996
0,916781148893528
0,923796978999685
0,908230904896853
0,897927136265815
0,89887871375919
0,908987012852501
0,911052210165555
0,883614531821861
0,896751748928838
0,895415824118759
0,893931620748201
0,882847974582571
0,911317466241374
0,857824344756653
0,874508587857965
0,863996262368485
0,867090124020734
0,834400545295551
0,82766630977709
0,846637705994323
0,835312865307665
0,842672094846663
0,857191794920953
0,869272610124672
0,826360812234365
0,846040218731866
0,837561575499525
0,815066158903688
0,831398089738604
0,805885237590874
0,836742080518014
0,80479399305718
0,813571043885982
0,810342257470498
0,78702573454251
0,767716861328097
0,789513270701751
0,792351351061801
0,803099945718963
0,771615054386396
0,784097584354105
0,789360937841701
0,769868940270563
0,745359324415767
0,77736871351836
0,766203660103191
0,755483884809455
0,72928219650788
0,747153485063918
0,740810389423363
0,739179149752711
0,739112189015873
0,733506171872329
0,734253329493613
0,7245870366732
0,715385631206762
0,710314483245643
0,703675577644551
0,70164572544822
0,676635815080735
0,697826497837846
0,708503595705245
0,702740886258553
0,708114827218687
0,695886100083516
0,662977113224824
0,678244864653116
0,677297228763217
0,685919873024852
0,683366299563743
0,669581442141337
0,65725434334801
0,649761817658864
0,649454699546505
0,63700909838238
0,646579929808695
0,632164422528496
0,642746001373463
0,656119024858258
0,625195704887407
0,644188594542525
0,646559766881921
0,640724356933557
0,631266928981923
0,62876022754874
0,61916925791632
0,608953249446573
0,62452726618921
0,627418163961164
0,60986224582186
0,601857362944665
0,610836468747439
0,60713033222316
0,597805886444725
0,602997815338965
0,587310464335457
0,594937202140792
0,585762398834814
0,588142431724414
0,574603020059316
0,58616665066338
0,575012210579847
0,561605930259424
0,567122654815143
0,567979315005279
0,566936047493852
0,560133017095985
0,548521433278398
0,536714603840506
0,533913455732933
0,549648944718149
0,550856562304696
0,534956084203743
0,530738309706163
0,533355812240832
0,533721450052819
0,550387292537447
0,529690292440413
0,521299330892166
0,523338263862478
0,525230445017741
0,530322992681118
0,5185250188914
0,514568648348851
0,512695890005886
0,504718577125467
0,5068455548827
0,511298756167805
0,496121882642665
0,494089028301671
0,488856808892073
0,485525670614063
0,48994434461273
0,488202730107065
0,485272506482239
0,471199477312754
0,477790380079518
0,474115822024729
0,474495401656793
0,465556695029306
0,467004752530628
0,467169676099525
0,467895608871386
0,464394639566996
0,458605174917605
0,45948334190616
0,455489617071426
0,445508648263488
0,451070219115465
0,457106785834783
0,453702411265793
0,455478513133002
0,442320416246071
0,434907508736497
0,434794775506107
0,443757328150609
0,436575013320498
0,441455036153157
0,425570586798126
0,422284778151453
0,424014692438612
0,417451974408805
0,43244069614614
0,41977664958511
0,417576184635383
0,41224539919355
0,411595200798247
0,418653518837409
0,409838016308449
0,40822234291716
0,406811095656033
0,403327570973711
0,404619595413684
0,391948938730003
0,406374822019454
0,402390328168721
0,401855380959818
0,392588081374385
0,396242660496096
0,388141078395262
0,389967248286411
0,385029517755854
0,385739295905465
0,378175389025798
0,377478043341701
0,37227526822381
0,382672110228812
0,368454622041794
0,380363407673373
0,367270209981822
0,37097067758661
0,369949761492538
0,382640315448145
0,37540079386881
0,370647233073149
0,366731670552443
0,362728907128679
0,37862152034579
0,372501714671832
0,36541611570411
0,36944118457811
0,368720350329213
0,364604842076204
0,352593773493823
0,368466922138011
0,359568237259636
0,359666715014356
0,356555530549139
0,369908072735703
0,362989128170423
0,361866148994084
0,361475641286777
0,358827392766865
0,363234188587634
0,352192516632722
0,35937227496249
0,36580901646465
0,361938069056402
0,361583914856006
0,359376194364717
0,361325136358736
0,354447571653579
0,368563188777075
0,353183539845211
0,360859314877204
0,36507481144133
0,362311461036401
0,363532064618603
0,362282467726017
0,368575541061851
0,371093163415813
0,363624230580167
0,363252302337107
0,362791338701604
0,371236806633522
0,369652184690758
0,366171732928416
0,374506460726836
0,37896490763119
0,372468191905994
0,386527200683944
0,37146618254421
0,371824065782336
0,374676188382917
0,380604672400495
0,383032441861098
0,382308227346696
0,385566610920391
0,389919150189535
0,388312448352116
0,390547626290252
0,393510957344725
0,399825474168824
0,389349244496402
0,397414107170015
0,396897814014067
0,407525886461602
0,407543005263422
0,420751533125568
0,415842728112299
0,410827485854377
0,405384966057371
0,421094372443581
0,430703800472716
0,42663058443192
0,42628767691632
0,436662507145133
0,438975898215752
0,433356665084495
0,443206468264355
0,445400289210696
0,449512651520604
0,459308378436953
0,448618746962487
0,460113012857087
0,452886306757686
0,459333574611669
0,46142986897246
0,458979357137522
0,458066544745747
0,458443428580058
0,463392896844185
0,466224692895267
0,466371838339021
0,461511143998939
0,456833410145763
0,46928413896381
0,47525558679984
0,472514909275492
0,465196456429147
0,463652797681861
0,463825289406876
0,446957853015902
0,462644760198622
0,451240950975566
0,438818412826389
0,442059905739948
0,439785483919584
0,450920261114388
0,438290702741971
0,451566994018333
0,44078836954482
0,444769298813772
0,438384345818141
0,456610541050142
0,442205244034944
0,44020286071683
0,43518689995692
0,447221921821177
0,45102114344312
0,439687908125368
0,439514221664433
0,450120532590647
0,43092005987641
0,442133108476204
0,43945873410483
0,43363903396142
0,438392363833753
0,435814993703121
0,444991141091618
0,44285698381398
0,432900879680217
0,433258330687028
0,427818796443656
0,441581375729217
0,42264533304869
0,43085932470206
0,434500909620759
0,431762011390161
0,418167251402922
0,41464191407342
0,418561157750596
0,422162705249701
0,418890087047748
0,420153130225716
0,415671269302578
0,417459970407425
0,41556868403692
0,413615510525228
0,40101170300953
0,415522999468256
0,39470999286914
0,404725390704984
0,394606780367683
0,407246247706458
0,387731496272913
0,389249842820477
0,398470005659264
0,397716351965064
0,379832856450285
0,382757743690727
0,37888365323714
0,382452586335177
0,376735124365451
0,377942506790657
0,374082082308843
0,37899459282602
0,366932448113507
0,374272894658356
0,369569082548205
0,368112313098074
0,354504145255062
0,359993696351816
0,351748296913443
0,35462433134134
0,345152514236003
0,346785372779627
0,340829975940299
0,350076318257657
0,343598766714067
0,3385506739753
0,341663540218875
0,34031831806868
0,338261390137577
0,337328773257918
0,335514308417945
0,339097284200089
0,329116300504958
0,330461981621793
0,332887345629989
0,329525204912982
0,326893749854809
0,329731384120696
0,32704703601978
0,322848835761704
0,322697991528796
0,319058588690677
0,315147192378938
0,322689099492515
0,316697060565431
0,315406740123375
0,314798557398553
0,315123483717065
0,318836787136273
0,312849513161231
0,309185752116457
0,314889855588162
0,312569525255405
0,304997637017441
0,307722975879001
0,315513085603531
0,301931610570153
0,306441979396094
0,302816160201826
0,311136116223845
0,303888856052685
0,301143370271085
0,302976884290001
0,29615208416609
0,299988092228029
0,296304225969708
0,297676340139427
0,296237290772071
0,292587754203788
0,290335040248548
0,286744796318234
0,292024232791091
0,286747103297638
0,291023974872293
0,288943604654678
0,284972751919251
0,281091059245098
0,283605820925421
0,283963621359932
0,282008991016189
0,28475019094664
0,275868030662221
0,281324856225934
0,283330763098882
0,280746230605813
0,282428286945016
0,281590914869211
0,284712759611142
0,272742308714971
0,281449427554483
0,270478538922834
0,27616024010453
0,274241984353183
0,27576405853788
0,272125262772544
0,27177673537492
0,272469132515345
0,274421006979838
0,269744841127711
0,266998044883574
0,272752529182063
0,270692539688086
0,267987086539969
0,271685187188696
0,267838452370916
0,264883512851042
0,261430940299878
0,267156648397946
0,26310064955241
0,267699539401867
0,268870779055203
0,260482989867466
0,267439733515457
0,265306083586259
0,260860421074574
0,266279576752308
0,265456717689632
0,268238457881526
0,256779945328019
0,263628080968631
0,25999694550526
0,258654640117002
0,257017594739093
0,261163137246852
0,25757160356111
0,262414172159093
0,251757657743305
0,25611219061604
0,260857945418171
0,254296749857268
0,256534386090395
0,261706424710951
0,254707790811371
0,255909732795084
0,256063390690275
0,250181196773304
0,253607498588416
0,258130902285736
0,259704924035149
0,252012128788094
0,2491250333153
0,253038455202162
0,254809137872771
0,252441961016475
0,253567700601988
0,254484182963957
0,246645840256902
0,251746420168845
0,2452012083061
0,250652969407272
0,244197495515485
0,249519140615285
0,251075182782242
0,248388435585303
0,251902111243706
0,250205990030883
0,250249641991343
0,249333746536894
0,24993031287154
0,249802090113831
0,246731452243228
0,244929542154223
0,241020776790801
0,248255226388143
0,239975221103269
0,243586850852403
0,244340104393203
0,239158741242722
0,24350264391293
0,245185886450741
0,248434055419995
0,245223124086849
0,243211759038412
0,243581486658515
0,241757981314442
0,240913728034431
0,243587509935359
0,245760479583534
0,235361549749151
0,243299992350485
0,240631171428978
0,239987267239511
0,237977255754173
0,23603897843564
0,23830069289216
0,233459615762815
0,235341624738313
0,234727268480615
0,234631814789079
0,232098874036352
0,233745268396481
0,231227320653857
0,232084264572621
0,231240185355808
0,234908607991612
0,231966617953902
0,229590370074695
0,229539652708547
0,228110516686033
0,231867345312865
0,230123273922727
0,223311954966568
0,222022909810075
0,233096438700196
0,227555993589321
0,228190864683947
0,226621783957963
0,227701804478282
0,220263267992996
0,228725363603346
0,220953590483753
0,226621731865601
0,224419386959729
0,225219389095499
0,224297675586062
0,224933485999427
0,21951201773015
0,22110813706034
0,224541037536671
0,219570948705549
0,221821186161608
0,224385726460411
0,220311776269183
0,21516480001863
0,219032844599935
0,226492359243093
0,215393063018817
0,218765427450263
0,224035469037595
0,219955051836317
0,214081399932429
0,215980302012604
0,217875534307089
0,213524102675878
0,216632525162113
0,216717032847817
0,215826174799943
0,212514621389286
0,206471582876055
0,211113597332766
0,207716638987935
0,20617856252646
0,206948137961192
0,211628145357008
0,208820379550698
0,209482632666005
0,207887490306404
0,20369986841626
0,205947702830307
0,204799673936604
0,199896673369283
0,203600161082333
0,206343481896633
0,204768541616726
0,200182796270728
0,199912636678804
0,198274224864717
0,200484603168405
0,199308195940075
0,198736757026814
0,199495455564414
0,200722475277211
0,20236653396687
0,198691252008793
0,19908132194293
0,199617467272917
0,194168768622574
0,196960571500751
0,193430982873946
0,193569512428552
0,192996631724234
0,189860235103944
0,191136318894687
0,189613945633779
0,193733667105038
0,189348202437342
0,191107981432044
0,19579977447457
0,192520459759681
0,193004595329237
0,189897526154077
0,192552500046519
0,192937342374387
0,191082372576781
0,189565342637189
0,190868042584095
0,187556703922703
0,19029033017858
0,188530515624068
0,190423185999156
0,187266339741388
0,184963613931857
0,184192946037276
0,186224002035219
0,18595167694564
0,185843578398275
0,183329329128165
0,189158539547691
0,186953166413506
0,182896296731072
0,185389719542324
0,183064429761868
0,180652754422108
0,183555145545165
0,185754378893385
0,185450790594
0,180056396123549
0,181763726783094
0,177251673628911
0,180275146076739
0,181747550467568
0,179793046226514
0,177791837161875
0,175808240707636
0,178383211280385
0,179159561445736
0,17722169917122
0,178550132306876
0,178226692213249
0,174960803650192
0,172226797008977
0,179592501854404
0,177500628104937
0,177827363000024
0,171081225065488
0,176999361419544
0,17692259960339
0,176466201550503
0,177095363593637
0,175283895731847
0,17695679795827
0,172567216644358
0,175510378301298
0,173478456885646
0,170246906149211
0,171108824740495
0,171433982764155
0,174244518678575
0,172323881965829
0,175424166112543
0,17339206034892
0,173559519522405
0,173880007582769
0,173352876030661
0,174693353720119
0,172194348541315
0,170660749288294
0,171030761632677
0,168353626188975
0,17251762375205
0,168525811983176
0,168222438200269
0,179669533601465
0,170571062682524
0,169872216965191
0,170752604994758
0,170344517058054
0,167796962570618
0,170851987278822
0,16819991609908
0,16664068072481
0,165229280813274
0,166468364867055
0,169350002258663
0,16232863671153
0,165033594644457
0,164609243353523
0,164200682275963
0,164807887403688
0,165514408602391
0,167105371033629
0,164210352433224
0,167392403202639
0,164949612861678
0,163010970279726
0,163295170056802
0,162361995259267
0,159956099422403
0,158078173174171
0,163112402271354
0,162747022362321
0,156634851743216
0,163455047654003
0,159440138367322
0,160599626132242
0,158250732466729
0,160521231539541
0,161430537755684
0,159583470422481
0,160744207235344
0,159672655888339
0,15768380583661
0,162568533802097
0,160994802078099
0,161488318650142
0,161023294315506
0,157332069430838
0,156976423348255
0,16167386173801
0,157841769105663
0,158159205860094
0,158345933378177
0,162342628204629
0,158234444755796
0,15823003869352
0,15595919926674
0,162794469786731
0,156552791276866
0,161337781452546
0,155662538569541
0,158352526942428
0,156255157022736
0,154465814141805
0,152993824747378
0,157562603895672
0,153936203894981
0,155444787282564
0,153296873633067
0,153188692745334
0,157731803278803
0,158291480598018
0,154582706588886
0,1548862065023
0,14847165330598
0,153278643883689
0,152479827531641
0,150748092542436
0,150456303343386
0,150555635942522
0,150457824140425
0,151009179638478
0,1510584000354
0,148948719327469
0,146599237534384
0,149262610980261
0,147419958528872
0,146765071270056
0,143021151377124
0,147095917674451
0,148187533008532
0,147701818995812
0,149354827696711
0,144729761762836
0,144456706377701
0,148159456279033
0,144498537008245
0,145570925072037
0,147836540061482
0,146746380523539
0,140493252485121
0,14394737823895
0,14393785107117
0,145316596337732
0,143259640733093
0,141990059581423
0,140882378390084
0,143517575546682
0,14337017072743
0,138869749143328
0,139996003162577
0,141215974785004
0,140331641560513
0,138322431094936
0,139622085663295
0,140596837296901
0,139001090334414
0,13991892334013
0,1415326198439
0,135914974548255
0,137755225875406
0,141335035307971
0,137122801182927
0,135699336769302
0,13742887421993
0,136572617573875
0,139268319927406
0,136907298053491
0,135080054204708
0,135537623331693
0,134466356358935
0,13648625562298
0,135212478970357
0,134492116921688
0,134709607009616
0,13539864995676
0,131386904337228
0,133983949567751
0,131106115958227
0,134532449190523
0,127010966336615
0,130750521436404
0,130589371840669
0,13070993599448
0,127931788716475
0,129770581695966
0,127099915460737
0,12700250349205
0,125243859103991
0,127708983886436
0,129292390844048
0,130440109061386
0,125544755589633
0,129989623906633
0,128975448259766
0,127015551643332
0,125837850728861
0,124785703327758
0,124184612228147
0,127949255133809
0,123251400943769
0,124419344756043
0,124919878843556
0,124377865915807
0,123458053122584
0,121794977587943
0,124295482547675
0,126113806272334
0,125772051912985
0,125570069883829
0,123876807827509
0,123557059837461
0,126359403847151
0,125561913562312
0,124326139359615
0,127949631731451
0,129458157223817
0,124944062068773
0,124525681331586
0,132533331710803
0,1298331157202
0,126873774203564
0,130868858568501
0,127132017151885
0,126918408271795
0,132802260612585
0,125503027475518
0,124256428579517
0,119842107909591
0,12158166535524
0,119503860892096
0,126604117515532
0,119385540506438
0,119947312476661
0,116040270557809
0,115727996927203
0,116118262442661
0,116998136854638
0,11511859614037
0,122741321238474
0,113295498727688
0,122313286589118
0,118738429549277
0,116562194764318
0,119603678152879
0,126848324371597
0,114428939481016
0,123078394716222
0,119695184461945
0,119963058554257
0,114765947956859
0,124990155607281
0,110905173142664
0,116204543812378
0,115226194758141
0,118176862119313
0,110827350770897
0,120255554962847
0,112039013195453
0,119069000612541
0,118097050270374
0,115120860126481
0,120842017723677
0,113377986284024
0,114087190081012
0,106483706478022
0,117663144061443
0,102619204068156
0,124129443915231
0,111990618464234
0,125566905971261
0,102836711009858
0,125104220735413
0,0941561682844726
0,133651762164776
0,100867604469446
0,133296779710369
0,0927622101192431
0,142894423527031
0,101355122349955
0,137481792135292
0,0899736486455811
0,143649346395912
0,103654734562233
0,137206203732817
0,104053837192089
0,133729429304912
0,109557818823359
0,121143042310751
0,115432182143023
0,111592569088936
0,122827278198325
0,109196348448343
0,124083489548137
0,108716874679497
0,122277786104696
0,111202316466504
0,113276607936818
0,114372047097677
0,115401823588232
0,118086428026532
0,111156924728559
0,114841360841209
0,111695569037254
0,11361027391681
0,113016475793626
0,113115884452386
0,114449415594807
0,108723532564025
0,112174020739972
0,111457600140642
0,109017843661532
0,113592347662612
0,11029297325165
0,111805928510975
0,110049733428471
0,108874509531363
0,110386104113131
0,109207191613641
0,112236760198828
0,111430683633241
0,108730677936562
0,107061343055692
0,107520171123238
0,109364562305965
0,10878645734076
0,110307130289155
0,114363704486544
0,111500082087949
0,111641751732784
0,109888638806923
0,113295036440786
0,111738302658541
0,110023138788845
0,110801739783388
0,111719598804693
0,111674103983313
0,110209274794641
0,111703932591503
0,113627439945793
0,111106953612479
0,110643830992139
0,10868793275176
0,113289583933049
0,10965234484407
0,112464100481834
0,113531597990658
0,113857509311667
0,113585583980055
0,112976458424584
0,113330892948578
0,114074084411389
0,11001161494247
0,112520400521254
0,11142105001074
0,109952680973212
0,11081221729052
0,113857210302705
0,111642653904624
0,113023424619088
0,112937687443727
0,114482953066984
0,108227040712195
0,109802403184793
0,112599355955605
0,110776448958727
0,111964906296789
0,111730799829399
0,110820985031243
0,113500705111153
0,112169971097096
0,110182629164415
0,10885791021708
0,114926680126103
0,111321769621172
0,111419095230697
0,108173454815951
0,111237571327438
0,112502636373202
0,112899989866893
0,110331804523594
0,115029852019546
0,111995138144581
0,110680031099951
0,112180974189571
0,111031753359702
0,108393480259356
0,11477809063055
0,111945135847054
0,114151915640143
0,11231562203174
0,114807172816084
0,115198710033124
0,113646161988271
0,114270666525361
0,115855758547977
0,113418563724431
0,115837898565596
0,116421187409752
0,115934377112208
0,114510124508179
0,114563773503466
0,112975781002226
0,114532909769072
0,113586343356388
0,115800700933429
0,11173912083555
0,116128517458841
0,114538265871686
0,117038614646637
0,11593678383095
0,118165459994651
0,114094092539601
0,115681321763507
0,114793591709833
0,115460533702717
0,112694304608773
0,116522162796479
0,116202662254137
0,118732866477508
0,114752499353887
0,116161700492047
0,11579466022155
0,119408282223651
0,117434153750442
0,116618917060396
0,116202260499578
0,118774119709114
0,115949265387384
0,116778890804208
0,115299760102697
0,113388775639063
0,115732204323234
0,116484470721824
0,11676415830998
0,117459309036949
0,116708168931879
0,119330089437655
0,114906129373677
0,117962927597946
0,119418635922473
0,118751656652212
0,11798722761149
0,120589486513329
0,116536613775212
0,120373448069816
0,118825436216744
0,11929139869882
0,120154873218537
0,12189221752675
0,119160840631523
0,120459876726522
0,118605008840568
0,121228541427111
0,121106888224583
0,120578790840256
0,120019224403833
0,123213676067807
0,120798456469332
0,117512781865091
0,117426475822338
0,121577174569338
0,120992857771308
0,122618231144322
0,119140462548604
0,12173200134803
0,118600259471156
0,122665204410097
0,11952159382761
0,117284157395614
0,119095628742248
0,122320497818699
0,117601129935379
0,118643052703482
0,118246914458307
0,122616058924698
0,12024758215886
0,120486105251294
0,119894053807875
0,119598009337587
0,117759879149143
0,118029586879964
0,1177090180826
0,121325327524061
0,115177346991072
0,118479054542711
0,118319036412458
0,122551896884512
0,118486759999409
0,119922293338296
0,116108936105434
0,118957248021711
0,117678843403234
0,11669369791535
0,117056102004577
0,119449159136452
0,118962346121746
0,118632750498842
0,11761883606797
0,119312841268556
0,115389722838676
0,118617674716427
0,113807407300269
0,114916467302877
0,115960594861026
0,118736796504347
0,115950808783799
0,118382103557902
0,115756587497369
0,11676582830855
0,117963205618291
0,119745691720885
0,11330639992784
0,115960011098233
0,115214472991174
0,116540110940758
0,115857815696575
0,117994080468166
0,115410572127117
0,118664671645185
0,113972127621954
0,118863095848464
0,115707390503606
0,11567556497508
0,114870989362673
0,114496140696507
0,113320888976056
0,116870567324547
0,116121724226467
0,114382801932042
0,116570005802942
0,115794584803147
0,111779943869206
0,118694168003944
0,113256556342631
0,116930364738885
0,114312489410429
0,114647028249011
0,112831616344744
0,116513704295858
0,112821825225446
0,114913330965171
0,113384739114391
0,114919523313069
0,114577479298221
0,114303534201588
0,109972782326109
0,113025334709915
0,112404516171108
0,114250175369097
0,111274342818038
0,113201503605079
0,109302018644893
0,112897225971892
0,113294025649667
0,113849958954234
0,112502576505346
0,112277468535684
0,110763903033082
0,112440922806628
0,11078387132878
0,110198816037353
0,113291103782154
0,113247852238472
0,110688470194515
0,110173096474092
0,10909938850075
0,110021422389425
0,110936072281403
0,112339364573836
0,109661907748455
0,113943415085378
0,110348595480762
0,111590048936148
0,109600774233282
0,112464097970906
0,107716971463588
0,110945270351681
0,107724593714077
0,111616233149603
0,110361864715191
0,112557787363201
0,107233665211741
0,110754946866129
0,104510921882524
0,109425334170798
0,106630527095106
0,108310591188453
0,10542147607109
0,106514957124173
0,10334618265218
0,105890709124942
0,105926112258588
0,106399663236422
0,104856116799268
0,10577238433834
0,102455860187372
0,10599341706572
0,103134903691741
0,104003009112114
0,101266580013991
0,104415122309949
0,100458688184419
0,104954827434304
0,101349536845755
0,105407083876889
0,100582312155322
0,108442956829263
0,100820879832686
0,10128619175956
0,0979564333452144
0,101297062358952
0,0965311010120863
0,0987552071200412
0,0965765576898177
0,0991821296716313
0,096972071226623
0,098613175995014
0,0931189762319845
0,100417770959667
0,0949085031267606
0,0969273670065011
0,094373205741634
0,0958386982372999
0,0915862783977202
0,096131972986606
0,0946856293918459
0,0959609257219455
0,0926429144937383
0,0981405240415696
0,0931296876143212
0,0988622374463645
0,0983345167701726
0,106220141650585
0,0976575149545624
0,0907788102167424
0,0986584715514248
0,0976832536294633
0,0942153510218355
0,0934370579200713
0,0921832837688473
0,0921711907682491
0,0938122361311278
0,0923689747517795
0,0910821900759949
0,0926255338777278
0,0920241278486074
0,0927103904166563
0,0888748030115412
0,0961387370608032
0,0915613253134326
0,0935206536532341
0,0890127007561919
0,0926813629871218
0,0912513011040907
0,0915170513635331
0,0919430493648738
0,0904304170198597
0,0925697315452169
0,0977976842213615
0,0964677077212315
0,0906015653327297
0,0910462550279587
0,0914177125092512
0,0897744156755377
0,0901868059380195
0,0896552853479173
0,0872421761314563
0,0887070631726076
0,0896324932959884
0,0891843256252006
0,0882439599999501
0,0884737357998817
0,0933746933522337
0,0846918280621072
0,08824654599006
0,0864729524218311
0,0881303605273025
0,0899392687244992
0,0876093692411199
0,0841107073864188
0,0913035331617103
0,0872395335259788
0,0885028451419475
0,0880562496266777
0,0953052567473952
0,0975181901230762
0,0956749850681134
0,0843305910401307
0,0925063840777203
0,0845099863832961
0,0899237556495035
0,0839953884551302
0,0878871444765571
0,0822992630349469
0,0902659448825595
0,0851808861032276
0,0892471439696793
0,0847978740909539
0,0883937940964813
0,0851805125721861
0,0894473665196177
0,0823009726611961
0,0870714840771823
0,0822587333771995
0,087163235522289
0,0887649540642606
0,103714489236825
0,0903394303742615
0,0896962906972695
0,0797084812763188
0,0940280680026582
0,088947011530381
0,100213731690685
0,0776240627520766
0,0875016282319052
0,0811990770265261
0,0865659853850082
0,0837566095985898
0,0855662973017909
0,0877018522583311
0,0905149393322527
0,0884641098362229
0,0867875071807092
0,0855674102863715
0,0855772521420917
0,0828614545884255
0,0847792751824185
0,0808156311976171
0,0826854300306035
0,081346605979213
0,0844196667048548
0,0788744966703791
0,0843623843604431
0,0793126140135455
0,0849685811048658
0,0863439129957902
0,0908103131432289
0,0851944796569413
0,0857895775406644
0,0807097665427477
0,0802069116943677
0,0862240228283955
0,0923939245726025
0,0869018190788661
0,0793052785110503
0,0826872524367138
0,0812750052140289
0,0845662917138026
0,0798621881973903
0,0823011547256924
0,0826449666909608
0,0805852631449217
0,081395928716578
0,0829117942140726
0,0823773895268003
0,0794624198421393
0,0830476378291486
0,0803379199689104
0,0834703265749728
0,079221282709436
0,0853095381658851
0,0817098109802907
0,0865852570500039
0,0877905488805212
0,102736321059394
0,0929712861773356
0,0950643934501626
0,0882181406371466
0,0839392933283663
0,084325470697274
0,081098119787889
0,0843253863739829
0,0838547152003027
0,0817477006554651
0,0791570895567659
0,0835140417881284
0,0788789168565643
0,0816270371591025
0,0805194218158873
0,0834562641517569
0,0812272209638089
0,0823688731292966
0,0777469404331818
0,0841203989991311
0,0725837212136616
0,0857420649659191
0,0846749528147131
0,0925526742850479
0,0733593807730822
0,0899607333938788
0,101528089887908
0,105046040134298
0,0911646055260027
0,0791190948125275
0,08696379874639
0,0781309240554369
0,079785340366359
0,0785770911502306
0,0851561816076389
0,0787347884291379
0,0808010283762301
0,0786818811972377
0,0869250658727784
0,0788778489199824
0,0831175892691885
0,0899965385222951
0,108357253115728
0,0975349377714487
0,0831470337148106
0,0785934600220667
0,0960958527725707
0,0955063436922158
0,0963709166512111
0,0803707836489248
0,0898334608850376
0,0811228052464408
0,0846350889261504
0,0774608385445164
0,0887084073252947
0,0832329094134326
0,0840191207214885
0,0826874336830764
0,0778507826175246
0,0825847233114993
0,0845327765284279
0,0846152920476606
0,0958294177914457
0,0891087618560671
0,0863006002521025
0,0891304297471398
0,0932557842587514
0,0809965945926916
0,0851911390262088
0,0822898434650667
0,0857095518770367
0,0944413771060607
0,0962357616963148
0,0932922241443292
0,100751810716549
0,0953672537574141
0,0863268418966354
0,0827395724086633
0,0997634389887451
0,0862708787400113
0,0878144059596526
0,100721953070392
0,0995877185857773
0,11972520299338
0,0922481617831746
0,100355164664094
0,0791351605893186
0,0970250287692389
0,0760670882680595
0,0962900681367292
0,0913247080491097
0,0990593534819909
0,0807523273964072
0,0890993319739999
0,0959340831742888
0,102740924389998
0,0941648693999401
0,0881406994045696
0,0874656607667631
0,0913662349887777
0,106515772415029
0,0906765049852535
0,0972889498816845
0,0963052046782217
0,135387433044576
0,110961737877095
0,0944386211151215
0,0994613102950726
0,112891505106508
0,108002435476824
0,0887551649245405
0,0948984964645925
0,0921096047453631
0,0868184994597218
0,105100499132373
0,116498108581628
0,106498466841344
0,0949947792339832
0,097515169062589
0,10236381646834
0,107723730069754
0,113693496401777
0,0956079563113206
0,10542028788347
0,093769902536723
0,110228344492328
0,128149831760086
0,124366817579232
0,129149829988228
0,124193200941725
0,134469980957844
0,114169719995035
0,12285236014938
0,107652888407357
0,130081618789876
0,122180155392486
0,114793859789541
0,0976474465092565
0,134872586385841
0,123922791382896
0,126302434078842
0,109137385722792
0,120249020852867
0,109272346041677
0,151562056468325
0,166232513401027
0,156438976015837
0,121031923214116
0,130418050742374
0,134943425811181
0,133577727800269
0,117686487889673
0,121314848365935
0,120164902940981
0,119426176740941
0,124816682086556
0,133796137818464
0,127886478342362
0,131844307679748
0,125162741872578
0,136732154767061
0,141451275032516
0,199919496797285
0,150745253793894
0,165529538958071
0,15336469966549
0,176896304317308
0,146276942379217
0,143961567026735
0,138405569863484
0,158113969559206
0,146755886225685
0,144891143879232
0,146941508045664
0,169957029231603
0,161348872278579
0,179498775370906
0,162632456179458
0,17630166568017
0,144602982514684
0,205048919645071
0,212336643481124
0,224364400061656
0,174843750663032
0,190914242602384
0,19136210700036
0,230832162635559
0,195497621073035
0,182179845856892
0,180391234548772
0,18262790836262
0,186962396137548
0,198740978644197
0,201527052264953
0,218604510705381
0,1977948657622
0,202832451764152
0,210519804841369
0,305766580094385
0,282579194737037
0,238945212349982
0,226261957855407
0,243147039335801
0,242229220875086
0,238171820381368
0,229291703063671
0,233857059446044
0,260440797266676
0,278210879547204
0,272957927161312
0,241551693671842
0,2789723222808
0,271699976964187
0,287238755205899
0,293755885938184
0,305687219775841
0,289918169893228
0,283773174791138
0,288978458342368
0,281869341775595
0,299373674728951
0,308691472330821
0,329385692031648
0,307001494658073
0,31399723385381
0,305472073781332
0,314172709759611
0,318329220607078
0,320695437125102
0,329267784927739
0,363058351747195
0,378852630934953
0,461469797068378
0,378007639009096
0,349022840444415
0,328898448290562
0,363139641126627
0,373216899454367
0,391990408754989
0,369104971501087
0,37849256095839
0,351824676761052
0,355823579090099
0,356154823564415
0,346561835794238
0,358973400301208
0,349766312136673
0,355443314813646
0,377530756722399
0,367722223857126
0,395815307940755
0,402489941827475
0,369368608227237
0,341068682490869
0,361402173518694
0,333443042060831
0,344315048331982
0,326420376680784
0,367357551375431
0,344326820117814
0,345820469872529
0,326383661354928
0,33696888512959
0,332490490231329
0,358494083072792
0,322592607833449
0,321078393589608
0,309740261450073
0,311958613403829
0,293885561454935
0,328877344461003
0,33707060659186
0,320795680070798
0,282649190699404
0,291773508146438
0,274663567412244
0,282147515455623
0,269398360037512
0,288254627941764
0,267335990756783
0,273493694846767
0,260151823668395
0,263991937899847
0,251790411470294
0,255616516335851
0,249089472843061
0,253256734252062
0,241752513481403
0,245710736650688
0,241708883053657
0,241859235648507
0,235020890242633
0,238735007214244
0,2342937151958
0,242125472958013
0,226959799133364
0,227785664597131
0,227219446547559
0,234325521435043
0,214435564128269
0,224898499963112
0,213424782436324
0,219545168947647
0,210663225278501
0,215619595514544
0,201426887294529
0,21627255175414
0,205806340205739
0,209658363800033
0,205981693618005
0,207410870414662
0,206738607023471
0,20396245274625
0,204987546566067
0,249254903683389
0,223555346779958
0,208286448491505
0,190897816667911
0,204684584503121
0,187229514753197
0,20389437313034
0,222846712403986
0,224623744199502
0,200179463909657
0,19373255750239
0,190245100170583
0,213923831062754
0,194072197332724
0,200886570792058
0,177011497031762
0,195142209638457
0,203231337615114
0,269814993985354
0,281538127563672
0,25574464715053
0,206875091294156
0,182968268864272
0,211832844405289
0,206553716762879
0,189993168039396
0,171494919926093
0,178862108977432
0,220813121024212
0,191362530606602
0,180805510969819
0,168072770348275
0,178648054826157
0,208331625386297
0,209446415956262
0,193031685112439
0,213630928196975
0,214776682167535
0,200075366606231
0,215745883060032
0,233473084149661
0,202155502776711
0,177810010517924
0,17222570581716
0,171687825884218
0,185398867532578
0,223287268252683
0,181113257033409
0,187950918542222
0,164109250980309
0,173484955145941
0,16817518383574
0,20066417119937
0,170570569154864
0,195658547833717
0,195493627403403
0,181206369639319
0,175349848879087
0,201242614377535
0,216382091149992
0,239531125987353
0,182421322709002
0,171024487098697
0,211662708843421
0,212234403630307
0,193101871600937
0,184145551760504
0,165689808399774
0,186158299043961
0,18473535002004
0,175189417991979
0,191929711900265
0,197257241278567
0,21315532137364
0,237376977356528
0,256966965879012
0,239529598586856
0,184724744312097
0,170157314702286
0,16662745185329
0,187136014455156
0,174157755505721
0,177817441037766
0,213464320240749
0,186095750450289
0,185544470906982
0,223872035871569
0,195818750175225
0,176174506389914
0,182666988005924
0,184590070923715
0,192520643669916
0,221776492872327
0,240873570763782
0,215838728320764
0,214220042966844
0,221975221115072
0,206375272087511
0,200599061054251
0,208454228899928
0,206384191497859
0,216147032475293
0,227656866920404
0,217752060843521
0,221147554501386
0,225791559878658
0,22807560303791
0,268681230130903
0,260124015212024
0,250861666763688
0,282052950863534
0,282209993277867
0,341623398058557
0,285544995826951
0,281419434715219
0,275612849479414
0,28625850958116
0,289879960718071
0,29196543162665
0,312501015875497
0,328517977532109
0,313424358567178
0,317763028710923
0,322866561618227
0,32307645999619
0,328475921566932
0,367068851801733
0,356631278838085
0,412043944868694
0,386602360908106
0,38194857135711
0,344180712180523
0,348341409635871
0,354757141422815
0,35617599059214
0,341735466216341
0,346801037554457
0,354161253906523
0,38025689494712
0,353586314421972
0,35602885389322
0,344741260201613
0,352849776034386
0,342001544899567
0,356680214444023
0,352159237580057
0,359719126335417
0,360259818512292
0,362653440141635
0,36333182972816
0,434440243575877
0,386916390051457
0,374501037644121
0,37881231250707
0,391802000272711
0,377230079000998
0,390011684685625
0,395291300182789
0,398142480692212
0,387561505981981
0,391123863007868
0,387234047421297
0,387734174056026
0,401270793830879
0,41901479570236
0,386167041626032
0,406751601425231
0,390851914841778
0,449753377737077
0,443251725276066
0,433684359439295
0,42290969276272
0,421242098045176
0,405589670505597
0,408707862892187
0,403161654909551
0,414969259153001
0,405601168548673
0,406489662680927
0,402231098779542
0,406857044511989
0,403288696490113
0,400800803270503
0,401518194173978
0,427052403270034
0,400755172113549
0,397561481835125
0,391229382805752
0,391101884593881
0,387750053839965
0,4180272560498
0,410562360982909
0,400560882608474
0,39081327128827
0,405666983965445
0,407818853571036
0,406119764143892
0,378239646712313
0,387908552609076
0,376405283153338
0,388239067803568
0,383427182970405
0,408091059559292
0,420911779887418
0,40835182891029
0,396650458059033
0,395056133447351
0,384460975955001
0,405164817123412
0,403062363320632
0,4132623395857
0,411885029532215
0,418550497894035
0,423457442535252
0,422188111066478
0,422261750978875
0,443630976063043
0,451451750598277
0,448416198066516
0,433836341325296
0,436089804112404
0,431285704430227
0,45043692462496
0,443570862103291
0,450437043591341
0,435286732160622
0,442786256774764
0,434790918748124
0,450190874082018
0,469709247203375
0,457433602323006
0,44886735121517
0,450196972654473
0,437280082968304
0,441846650358316
0,43687744732083
0,436134354142866
0,434510939397006
0,441911895486643
0,434613747812384
0,428646485143524
0,423027832814647
0,423086681941511
0,421685775999311
0,428536904292138
0,42654158698801
0,423843154655312
0,425588952348414
0,421013071261438
0,418064875177541
0,421386720422947
0,418550818250157
0,41850218396689
0,432015532550539
0,441391520744386
0,439323628954074
0,424037997553229
0,427657415933745
0,426057966303255
0,416710527315645
0,419470853924875
0,412546200618425
0,419073454947581
0,412655389775342
0,4162452157158
0,410027134649242
0,409574789534224
0,405455218937381
0,406458157568229
0,400747528228654
0,397132374612151
0,396748868334711
0,398274888612475
0,398092521157461
0,40131963107319
0,390234215011003
0,402404044101385
0,387639079046782
0,394016561641674
0,383599527977116
0,382548469625536
0,386715258171178
0,383113350505017
0,380066383224708
0,375136169089058
0,371927455313197
0,374967396114374
0,373852600819096
0,375226967346607
0,370101321357367
0,371736258897735
0,36953522423633
0,372312888399288
0,367690884058977
0,370765703043355
0,364736165308578
0,364849714094392
0,362358852073262
0,363292554770084
0,35927092835082
0,360529337564197
0,353021107943208
0,353389062501923
0,348268408339217
0,350089578979179
0,345739983575226
0,345328650348366
0,337618427671808
0,339405566457893
0,341385970854951
0,339014348250414
0,33595174057115
0,336055754436916
0,330033004221363
0,33263581597284
0,327110031201119
0,331851387184193
0,325572326439808
0,326087762341281
0,322563559692217
0,327311298184091
0,328005214916196
0,327720202501513
0,328036176266117
0,33295784572546
0,326674693134657
0,329006201917945
0,332314879686743
0,330722748570223
0,33450048639899
0,33488435715387
0,331195708981887
0,335190063721354
0,335244755795236
0,337300283616185
0,334045181986693
0,337057278552321
0,336820317762355
0,336788293283833
0,338556807704404
0,339729427363589
0,338823655433964
0,339256260949753
0,340693627512874
0,341235318164831
0,336932528518226
0,34100434099727
0,344244350944289
0,34174998678223
0,341278005558356
0,344166744789721
0,337454961657148
0,341167048814598
0,334836153241459
0,341452993145031
0,338615164262311
0,341680524232004
0,338774950905511
0,339350956409987
0,333537421220708
0,333826181695189
0,335691044779041
0,33875508620494
0,332354388767315
0,334281959161794
0,33333919920242
0,332431875377503
0,328124805538941
0,330715724855013
0,32669546138071
0,329238262981654
0,325261893855096
0,321603006885458
0,320885334786042
0,319104467313388
0,315038235784444
0,316857666211281
0,313520629333769
0,313455861395144
0,306995318419394
0,306187469011758
0,300138499796961
0,300965954262547
0,297858155780713
0,2971134054706
0,294756350502317
0,293485797786184
0,29294742499682
0,294534357015623
0,29010870151827
0,291271383972016
0,289344460484904
0,292142514275572
0,29223962691015
0,292367746438965
0,291936775772911
0,291689275573095
0,292803749424685
0,292604228524664
0,293039178619076
0,292244417277057
0,287023320250348
0,292688405870278
0,287810783990318
0,291370986354318
0,28422724856095
0,28273051211041
0,280402121635584
0,278792194096726
0,2729676610011
0,273401696926984
0,263633993279642
0,261980970345756
0,258806481638767
0,254264007199288
0,250828397439117
0,24930732347916
0,245199972898753
0,244045538248432
0,243220416177598
0,242119276507803
0,237994620556024
0,239517513971517
0,241516417234645
0,244050304398125
0,2440249683322
0,247966858592226
0,250848628356288
0,259064601058498
0,264643740839779
0,269949024215829
0,275817121136087
0,288413962632011
0,295835186601256
0,30696323096572
0,315230349615742
0,328643812682137
0,342030487166351
0,358749578425468
0,371337538206114
0,392060416572247
0,406223305646672
0,434345324815276
0,451456444902145
0,470054050465632
0,491557264725004
0,51327822890123
0,535566736742952
0,560776986907432
0,576453523982647
0,605910152077287
0,617231436984374
0,636759855131897
0,659244982831138
0,67692932634993
0,681097021376728
0,694285073708925
0,69714940234845
0,706683744026153
0,705047609469443
0,709800285472525
0,7062406066058
0,708815350553485
0,698117560547406
0,696432299412127
0,680965027608989
0,675954863852466
0,666063663939808
0,65929788528542
0,649799473806332
0,637028808583314
0,624080719194082
0,62492367748044
0,62106869900986
0,608944171036542
0,604906190048708
0,607282334793698
0,60207482255832
0,606426963425959
0,607516424778232
0,61318247773761
0,609532528166849
0,616546066074744
0,622466341521526
0,628005807381949
0,638495298916455
0,642699847767618
0,642022573009734
0,657164511598847
0,656182024855699
0,659845419071863
0,671078957825468
0,672858550632714
0,671840230539677
0,678251896245039
0,688906861122697
0,686774437325188
0,692721426122321
0,704639111666962
0,701517720039407
0,710803694270316
0,708178266744811
0,715697698858323
0,717109144725438
0,724742259391161
0,729050302174625
0,726947085985651
0,738635620002023
0,737104851654601
0,73651546623494
0,741756248409347
0,747462335629262
0,745821595867498
0,748779678983221
0,742182408882695
0,746265263305407
0,744641302480694
0,745396825972239
0,747200221540604
0,755214067239522
0,7630287388411
0,7836496142789
0,780800634496763
0,799030272619235
0,816538251597128
0,827362624408853
0,857411677344816
0,875714831880366
0,901283360373002
0,932485955347296
0,951087401779168
0,980357164688928
1,00014107889565
1,02285367786583
1,06352226608488
1,07902359780324
1,07795398883458
1,06880391550469
1,09751221161601
1,07963992500853
1,06791994653863
1,08545584497907
1,0617467462643
1,04780316415998
1,03831087920721
1,02659219375491
1,01274385033535
1,01386765574756
0,993816469610778
0,990156858254378
0,986026613949278
1,01803818802535
0,989884730929044
1,01863248637819
1,01968620695603
1,04100038467521
1,03096403649104
1,02475048319649
1,06338752069188
1,0768863764878
1,08169720918064
1,10546400270024
1,11784635756344
1,13476475691944
1,14562935322676
1,15889131544417
1,17844456120338
1,18829141364131
1,20268409084367
1,21228417723774
1,26014681686652
1,26736235980302
1,27650130207122
1,27516801563337
1,29322426853834
1,34898600044049
1,33865298193561
1,40906241473579
1,38299510608189
1,49059860599639
1,42781513254672
1,41974538703625
1,4609673497671
1,52976829316687
1,47985540667022
1,46160855935273
1,56263483253342
1,53879935347141
1,55665896252827
1,61454803915701
1,60004363424148
1,65945899319793
1,69692466268522
1,69248867872794
1,62800549925448
1,720677573719
1,68937449135185
1,78410976411789
1,69110090857098
1,66955691416495
1,79908401323972
1,82791155327159
1,79099782803314
1,74569684904179
1,70135971409445
1,81122553808053
1,72839001255539
1,6691838879196
1,69915655387215
1,61109734415204
1,58427192379038
1,69174051168923
1,67177470593307
1,66827017740141
1,54608459001918
1,48674662301549
1,52720282533193
1,54215377022364
1,53816907829908
1,54933422213852
1,54514799799316
1,54669941113179
1,51381392599628
1,50224552963459
1,48342032956821
1,45501407631046
1,48734046110069
1,41728970879041
1,44365171180099
1,45724888007347
1,4096747946522
1,37885274375386
1,34030341517593
1,32508729698013
1,28686276980927
1,29627456996997
1,25879279849226
1,18353055546789
1,19144359671664
1,18168743572646
1,10767388816457
1,11260171216156
1,07055768286795
1,03056701772347
1,01242207228973
0,993999045325268
0,941467595729055
0,902811945493036
0,861457906974589
0,834575733512742
0,808696114166138
0,768264283562448
0,748148710850462
0,715363283335832
0,67706994760193
0,663143261586001
0,639407662035853
0,628707261210982
0,605810223592367
0,590591865136154
0,573587109040186
0,566766137172688
0,549009045688812
0,541667403674694
0,534508464382683
0,521028618403217
0,515432791335242
0,508704660539206
0,503853347712008
0,50072031952607
0,488685796711597
0,494314505020155
0,496865278116409
0,489529254942791
0,486787179308096
0,494524825919441
0,505372852731848
0,504408569669444
0,506414896501042
0,519276844778876
0,520935233136124
0,529350583701929
0,530509298128626
0,534096839744339
0,535206971326784
0,545334176765685
0,546284360349041
0,558394206138666
0,560220946831719
0,556363912316592
0,551361128180866
0,559966310137866
0,555987156521295
0,555923512291405
0,5487257557032
0,565393879939588
0,565482891031866
0,570286060256145
0,563495974347469
0,564591425543206
0,558274431697881
0,56231412618334
0,559036884675131
0,552598981576888
0,548396091751005
0,55502275664355
0,544692186416966
0,542467776088122
0,53681774750668
0,540979935528537
0,534845580921936
0,532143620358083
0,524425095775726
0,520276872706292
0,514502121843614
0,512746084123813
0,512604993650042
0,509900189538685
0,497186503661816
0,506726847701666
0,497865415642789
0,510442939549169
0,50472177279626
0,505766489588799
0,517103400508801
0,515509034161868
0,505100230843079
0,51682442529186
0,509142165438229
0,522298210684718
0,526135046254288
0,53427372334902
0,530513734538644
0,510936372276522
0,51165525996394
0,508010201761753
0,512178259419731
0,499199828039913
0,50265783739739
0,497352837803044
0,495710552893714
0,486488180996839
0,479186161514986
0,472711487533651
0,465047852368981
0,470366990040567
0,463825088013552
0,468132296860187
0,461559565641638
0,47444588268463
0,471370478524186
0,473364267303226
0,468526466076841
0,478505246023213
0,477614039188979
0,473433347863765
0,478745249878284
0,49118964967958
0,478791465441868
0,489622043437459
0,496386779320269
0,500193100932807
0,497637388985379
0,505360495111639
0,511063506781873
0,516236500058165
0,505147101928285
0,517335017312525
0,516856138574665
0,521332008175209
0,517057673867713
0,524386668852124
0,524965498266588
0,51377046572841
0,526021158760804
0,527827341619081
0,518868790093226
0,52948110218422
0,522663019577528
0,52822462140965
0,524015638513016
0,527131805780539
0,519121059816143
0,520556693328694
0,532284390694264
0,541585483300603
0,520544137788707
0,525223873804519
0,520717584367925
0,517460578808737
0,527867401454262
0,529816429071259
0,50763605121039
0,511534704539392
0,514234207185004
0,527107982873224
0,523741528619947
0,507545865428101
0,497311042003186
0,493235301839379
0,504921690152688
0,497945641398327
0,490734925690391
0,517855341327946
0,508928948219015
0,492143614558081
0,495670772404781
0,497257188213939
0,50767569345016
0,50462621983187
0,483098190010325
0,479120264186475
0,489783901408392
0,491505047857397
0,495057893981968
0,502384573723443
0,511211921459871
0,514632979249042
0,496515206813645
0,516093328828273
0,506829958860647
0,530799500662715
0,498858841355133
0,506581492849377
0,50423200755446
0,520023532084102
0,52005633475424
0,519660708881959
0,529409192714488
0,552657262437948
0,514841258081781
0,531472148767184
0,564148617164303
0,556730203694332
0,550089390228749
0,551837126949662
0,558071556063881
0,57367119563597
0,572662645152026
0,59433351594292
0,576058915001139
0,591017936206864
0,604604684908968
0,619681204575107
0,643421612927146
0,622237448789709
0,612185680858365
0,642371835595753
0,63977320432828
0,627803018378388
0,624812456082265
0,675234351213787
0,68352109581885
0,670658567080704
0,640101077668077
0,693966436046378
0,679384452022648
0,685058671336252
0,712677969121732
0,736551571492937
0,678703391897888
0,672569040678441
0,681436256399784
0,719099766472051
0,695184089096002
0,683188084550966
0,721297862843071
0,710758021670378
0,69376951877866
0,729847588129457
0,747147119794504
0,737733650192944
0,757307774306154
0,764764061685336
0,778354145404923
0,7945582063917
0,751025018034691
0,731614236470189
0,730477530042219
0,758623588109162
0,719913311729474
0,744468456264256
0,745009289865796
0,781458899511848
0,73774272678442
0,720624005496414
0,725306499380961
0,775313190229547
0,724029726475981
0,717559535040824
0,680707025748131
0,753894496989638
0,770134034655265
0,759961301460011
0,724129048490808
0,71385179905172
0,717879402033608
0,733682878590038
0,680032449683481
0,708826059928213
0,663328704122093
0,673953603989282
0,724482922644285
0,685941544089369
0,698885739454288
0,704253763196887
0,696453533476986
0,782722183876715
0,773789923966369
0,745550053542081
0,737701237938171
0,768490834925729
0,796545661625159
0,849292298855627
0,722503258683163
0,778773892003256
0,764921615010994
0,83081405605934
0,943840321654279
0,870575809761384
0,776649518836149
0,792949759955378
0,802731472592301
0,889698022449156
0,938171516016839
0,912790152677905
0,778473208512313
0,874119010273951
0,903092099628001
0,866072841039809
0,85542568069091
0,794197949280737
0,853511428451932
0,904162223509099
0,942243462165789
0,953770943250555
0,896742884236413
0,884650140603629
0,951512309575687
0,78053019298037
0,808318235736168
0,895597654696474
0,917015994605923
0,964146969174317
1,03335313687293
1,2416424687664
0,967137673715699
0,805563021606156
0,75262678655878
0,854419011602685
1,09478195040707
0,850728725967482
0,632148634217734
0,813803548256845
0,912489029650243
0,855607310900001
0,816026388014341
1,0222991784363
0,988953002842583
1,00835366030213
0,759457044510655
0,957463596917963
0,992217176090029
1,21552668393268
1,02627024099469
0,827960057698697
0,964694455570521
0,932838488689514
1,05117569395241
0,980022851204869
1,01090311057891
0,810568954036873
0,817396446164878
0,88924012769327
1,13815689453378
1,57325554939883
1,26636340691132
1,33980431322578
1,3669735823294
5
0,887424828211283
0,752167269204094
0,882585999482733
0,961457417781696
0,695738598032361
1,09151017126179
1,26717587982295
0,723987444820769
1,32385149448704
1,72477727971792
0,742187148243618
1,35142724405539
1,07387939621402
0,940168866982949
0,631221570011688
