3596
4000,36533379555
650,420452594757
1
2
2
0,0644774225783477
0,0800269147703547
0,0610377564612618
0,0700644582675495
0,0645812312234054
0,0789248734732299
0,0537412859608811
0,0778489566095097
0,0547366764489908
0,0794154466194898
0,0564322321772717
0,0753614225980436
0,0549957279098193
0,0721541881934446
0,0548560167226163
0,0606228123300567
0,0613642111704676
0,0730849348398756
0,0583693020787136
0,0719882285672638
0,0575804795173109
0,0659937865516111
0,0522796231257533
0,0678965413709149
0,0584214297896122
0,0621447254283794
0,0607225420681658
0,0613544183736178
0,0530051625560038
0,0711105232157147
0,0555759243951215
0,0710313376057744
0,0692032219963147
0,0730353370886709
0,0567352608726588
0,0720033854933022
0,0509911167228332
0,0729682682434659
0,0631247621645713
0,0835557229032193
0,0615464933644807
0,0677914985424903
0,0619170704091459
0,0746101862941062
0,0510509555157164
0,0677738213196697
0,0590121940424807
0,0705807483147647
0,0587409870682599
0,0716478263982402
0,0627451804683324
0,0698190624306984
0,0709716968363632
0,0855739421672493
0,0590320917109807
0,0847215057968563
0,0647669586425331
0,0834038797553678
0,0552472192997799
0,064248078114548
0,0739567765115907
0,0827502663461429
0,0602050965924992
0,067080389501257
0,056612115481702
0,0828287799454214
0,0555130657475109
0,0695011541651304
0,0571904021224719
0,0707951878947248
0,0553387357503167
0,0962865877822635
0,0655995901400912
0,0846856583155321
0,0608865521874021
0,0782766770695222
0,0473821223926367
0,0610751384541757
0,0445999121133617
0,0800440149586307
0,0715297414988259
0,0811665935971129
0,0543825298945376
0,0571703325340134
0,0680220680189049
0,0876803594456709
0,0469636686032426
0,0805976548580228
0,0705994330366534
0,0781500838554568
0,0486387476944744
0,0741437703100727
0,0563110779781451
0,079294243894974
0,0427336592443855
0,0752626678259983
0,0548300554435056
0,068290960671098
0,0453115502925042
0,0827693810361203
0,0613224509866151
0,115415987194252
0,0858743277073969
0,073545256833233
0,106461242413715
0,0772030105022469
0,058297683527148
0,107631633296244
0,0701170744618624
0,0774761872648971
0,0511262045362315
0,0660074787398142
0,0550337132098625
0,0757402045755939
0,0464333588782155
0,0984955508094517
0,0771502821875287
0,0770152750160546
0,0583001460642643
0,0681273461949616
0,03655760865039
0,122438627696443
0,093772592856578
0,0773978758164313
0,0605850376954405
0,0637157420579708
0,0495853403966737
0,125752828396111
0,0811228715491503
0,0728253667679247
0,0485535067227576
0,070852675318495
0,0313117183620918
0,0767832343951487
0,0810471382966509
0,0841426377307284
0,0527871420888222
0,0646026613969502
0,0830310793036868
0,132585121238569
0,0826372030443055
0,0733254622332627
0,0383057354248701
0,0717515761326579
0,0953170522732975
0,0857768646378681
0,0387695520465485
0,0933227144710247
0,0647232341641587
0,0739146868897138
0,0413280282843651
0,0570356300476607
0,0735231070845469
0,0748882615934849
0,0210418332576992
0,157045602034673
0,100864042929614
0,136553673945827
0,106034172733683
0,0803369027486688
0,0663593645248406
0,0772804572094848
0,0572521898614309
0,0588435651942264
0,0496158722920663
0,0564178271472113
0,0758783713591871
0,0950191622500454
0,0513284239793266
0,0814375032802645
0,0975826028100997
0,0723377938756454
0,0400022096808328
0,136823989737006
0,0599979579944724
0,0749972165179415
0,0872991595291375
0,0845103092175505
0,0371014762492439
0,0846710535062887
0,083145073979121
0,0717156833848631
0,0558394457175503
0,0576026686385075
0,0520562834779969
0,0788766644800099
0,0577712964497447
0,0678964536755082
0,0538962808791034
0,057466972064346
0,0684436045508899
0,140027960006812
0,0860504888316424
0,0775844340752435
0,0636592228480207
0,0547738483046582
0,0841860520155157
0,103578535147706
0,049403202836474
0,0663211244903357
0,0471737238646334
0,0674230420190743
0,0424762186378325
0,0711332013706692
0,0341036763922774
0,0452072235101031
0,104386743967636
0,0869870144704341
0,0551432033107541
0,0580253094091756
0,050560153345735
0,0525539565554303
0,106451817272077
0,101318265778079
0,0577163623884156
0,0699070082025176
0,0454204217171573
0,0802022738758273
0,0763960869435882
0,0652390074084595
0,0551363612270422
0,060679177249072
0,0464016989747513
0,057950331858011
0,0546578396995724
0,0587942917361451
0,0569579052840162
0,0633016585954485
0,0538812560118615
0,0667493388539641
0,0711648213566145
0,0679008843792441
0,0508714717688781
0,0670851959262139
0,0375729979660519
0,074605438224346
0,077233242919097
0,0674886454239572
0,0556093424065445
0,0675290944376603
0,045030403424766
0,0652109296730074
0,0501890493234206
0,0576296106607753
0,0430455060627249
0,0690427867073198
0,0857862831241389
0,076611985321484
0,048737376860231
0,0489172412186656
0,0743639067545801
0,0812231575566417
0,052471152254188
0,0608469238376064
0,054433806048317
0,0513539628589142
0,0538105420240643
0,0982318392155052
0,0653667636714227
0,0590894706153797
0,0756616177363977
0,0775167315060491
0,0546028674743608
0,054605008970236
0,0369437401387865
0,155134269872359
0,084174557534795
0,0613638192944175
0,113727399564257
0,0916740444550168
0,065300769735362
0,0643786504906175
0,0226700154886035
0,209166963863322
0,118729237471551
0,066883111670908
0,0709925442626207
0,0907452840395646
0,0492056732417265
0,0823623008692877
0,0553206138850849
0,0941468360257235
0,0835178980219204
0,149385507807493
0,122049061810139
0,059711994734357
0,075929770718121
0,0967436661211591
0,0697541213517924
0,0667351974257955
0,0467159743934558
0,0618403340487348
0,0800659848183748
0,0892504298208875
0,0789618993515534
0,075166842954991
0,0448702975636469
0,105561106936603
0,071815329773426
0,0586099687628195
0,0665668211238638
0,0781202682257211
0,0511816187495612
0,0705989786984664
0,054311276850995
0,0806838913662212
0,0484263457885371
0,0642505053035915
0,114112877954433
0,0924056467862656
0,0674879871262471
0,113261991444416
0,0617720747334341
0,0655868044589733
0,0509842229977684
0,058788394088224
0,0486925583033526
0,0592281210685319
0,0454957556431491
0,0958047347306939
0,0613725561590461
0,0662709327643422
0,0585070245141747
0,0610724693409388
0,0587348471986878
0,0666809990328909
0,0505134248777221
0,0692032747787463
0,064620851445859
0,053502890440597
0,0871304150270965
0,11071900815059
0,030324972108978
0,119803342153666
0,100584214628094
0,0719719498946691
0,0539712293852363
0,0663763862768424
0,0569606444604451
0,0606174807918324
0,0525881058234426
0,0577039815290102
0,0630711494068411
0,0909451692426824
0,0718996361165172
0,0696074976483922
0,0631249663718242
0,151003796902842
0,127996033952918
0,106343502424468
0,0708555435685325
0,0498858994790644
0,0896021934084507
0,111844347037341
0,0875462425753276
0,11995592867001
0,0668092834420076
0,080494173880633
0,0595789248042384
0,0778461843234163
0,061340758030889
0,0790065858986116
0,0633028773699656
0,0812217974559225
0,0594393305289978
0,0817100044458856
0,0553060268897929
0,0789141682310621
0,115350340836075
0,0963405172767541
0,0686458242619418
0,0874500040316943
0,0606768005210424
0,121191396494565
0,0979925463885304
0,161975400957667
0,111541216103172
0,133504320784704
0,13673426344434
0,113897877178108
0,0846326335944325
0,0862758634671672
0,0835387731286356
0,097475102194716
0,0855426381155596
0,0953199980149728
0,0821756672887047
0,101839365640845
0,0856662546685427
0,09555080272811
0,0796314610063934
0,095523081762363
0,102778037963247
0,111868114435631
0,0963392218809023
0,0896471149728764
0,0897884041432939
0,179064423812206
0,168048136320364
0,124484743954571
0,100122754012802
0,127623238153501
0,102139153672956
0,111306314851895
0,09543264427722
0,12605655997645
0,105175976451114
0,161379365923885
0,12175164453567
0,165134806106556
0,129356981201306
0,119917030568202
0,127808571685219
0,131042620449418
0,128709538344967
0,167534022123306
0,12630784513462
0,121018213514389
0,159500897430991
0,169015401791751
0,15908227115983
0,180248044591285
0,130889910530637
0,152155761306536
0,124296909259074
0,147384207930373
0,136784298851318
0,162132583278887
0,145192894705794
0,159060592631896
0,151021525023349
0,158891336037021
0,159319932482055
0,186135478527695
0,158876159147762
0,176598591659445
0,17464942606958
0,166833668831861
0,165913751566061
0,163131095605994
0,177569733417359
0,223537683757431
0,200555775172042
0,227343405417894
0,174002729548692
0,185051252483373
0,183680478463664
0,197487495440386
0,177744004839606
0,213149817478448
0,183362688583292
0,211103782622823
0,19396636422977
0,225161290581356
0,185790843104985
0,212977893440411
0,197650126981058
0,214779804434318
0,203322420216393
0,215039009033171
0,214390763137594
0,221847505097866
0,242479848121132
0,301614109472659
0,273826124418383
0,288908526524076
0,222744215638176
0,266057420586909
0,229242152016655
0,255069704556756
0,231015893998547
0,259941357697198
0,237389545486644
0,282457353570451
0,244416675275109
0,276897808562663
0,253973615292641
0,297699065155563
0,267375300127711
0,308961169357506
0,281584902213678
0,294032393784005
0,27064091378413
0,28731641940662
0,296760269537929
0,309847258661953
0,297349440679413
0,319731664185437
0,300012862925832
0,344273547305734
0,305127561885686
0,335171536420218
0,319258908533962
0,333152941478274
0,312463180673511
0,33493319499317
0,318886471585223
0,368249110690535
0,340384617485217
0,358211668937741
0,330583705303722
0,345871386434757
0,3448347363384
0,367572831530774
0,350038145365692
0,381794921598871
0,344354113332967
0,39956931121207
0,357975068986772
0,387058696172119
0,373221289309183
0,403411554655711
0,389252560258398
0,389627987207535
0,381568439739474
0,412400498573321
0,375828896287531
0,415630528698782
0,408580815396509
0,405523481344406
0,401244636855435
0,432416474201517
0,433864586715428
0,432478098728386
0,434408821057174
0,47527603851548
0,439348850737798
0,44568469015007
0,438282662585246
0,474789194242741
0,435897511195742
0,499963157681725
0,459522358126033
0,509269321059076
0,459639756141451
0,498983491747344
0,471857187004127
0,500640948161945
0,488915581562287
0,52211882541433
0,480568048067658
0,52271026200542
0,496153632140273
0,523133144208596
0,483571857554165
0,512913503592879
0,52336409931733
0,543585194667379
0,533501736583739
0,534680092058529
0,518983702843361
0,572350529939171
0,524781703327556
0,561107081125422
0,54588931287463
0,583739730304324
0,549690610923332
0,577826886481502
0,557280614261863
0,603965266117118
0,554111094584052
0,591015674933022
0,569720552961779
0,602238933852945
0,593634086624105
0,609060226864407
0,585716775939304
0,630968333314158
0,57578233566385
0,617102763333072
0,606188168901773
0,636784620047685
0,571216128054105
0,665581357133372
0,632356182540187
0,658387694454424
0,638845545850676
0,660327273931895
0,643421405747877
0,706119642333378
0,636696985755487
0,65759983129441
0,635549592291184
0,688148874105446
0,672182080809027
0,685463238129688
0,65622403011673
0,703757757012438
0,686363234963741
0,705412781135029
0,669518540215497
0,720284142805119
0,667217939622348
0,747088495319234
0,702454106225736
0,700479387628029
0,677532102098109
0,738766569327797
0,726173149571506
0,745337485989817
0,695635365704661
0,719658229309662
0,703633690842278
0,725489065150003
0,692788291422759
0,788164225048176
0,743436954549867
0,776446587254178
0,751783955309955
0,756918328471502
0,749766973775277
0,790651929812872
0,750833880482601
0,796190769246083
0,783442593104524
0,786737681916009
0,754933773009765
0,818145107126051
0,81830320686484
0,808028998450965
0,761106943481635
0,81846702129152
0,776217863745895
0,828135815575588
0,808439883179092
0,846924340774172
0,811327243462242
0,829389594672374
0,784977223850171
0,772994755165361
0,795469987248456
0,826585729191363
0,78484838983555
0,845320738552424
0,810220657786611
0,860353821809888
0,812598296925934
0,865394378448263
0,815768802059574
0,813117966867402
0,767931884233798
0,868177274557026
0,848671289952727
0,920108249906142
0,858681008812778
0,893275253170606
0,844401359822573
0,900288179338656
0,863200398381788
0,890263642252612
0,841726480355991
0,916498510231356
0,866652235227468
0,935172191071154
0,859959789312487
0,880075253173302
0,893449271015382
0,935011285625556
0,929354389925573
0,897810963064693
0,878491028184026
0,946478024047407
0,902181840863777
0,902279382562169
0,88896727524438
0,898298726082095
0,876478525576982
0,937050335502921
0,866062887867542
0,912459089881158
0,919583922039204
0,958239007539473
0,896749915368571
0,874890677758536
0,924353012940402
0,971403110884808
0,872198393979991
0,977893665001977
0,907184562669382
0,922108814719112
0,929462997541945
0,933230692560833
0,906418475121693
0,938425621591954
0,920334374632314
0,963811588989811
0,921626003599459
0,997246184107572
0,949665923546938
0,934263573010996
0,931000079348759
0,989512144501597
0,929674754212829
0,94128381255317
0,90198648572064
0,949792476756496
0,884411542148825
0,965111050013587
0,919096402522571
0,962354770589453
0,938033115392188
0,930597113111676
0,931836832205994
0,959875323705903
0,933837621252292
0,9808988769364
0,948631204740665
0,976729408346822
0,900578324957353
0,958994372515722
0,955546111106669
0,987571080467974
0,945909252771778
0,949901086966462
0,924992568944259
1,00753871388097
0,950518321382814
0,948695876406023
0,974493286056719
0,99291393679516
0,969578563195104
1,0234439259903
0,943488946757457
0,949087919041541
0,953603661020067
0,98070482877827
0,920799625994352
0,961293411685234
0,929957814135715
0,981644240846807
0,969687174422902
0,944939856810662
0,960858696422299
0,992987413462532
0,953176165156518
0,988375627456816
0,995602713678786
0,914326671277892
0,919964550816877
0,960971573788467
0,944397265221557
0,937779914981653
0,895877407713144
0,944060855800025
0,930767941767921
0,957142806043679
0,939094782416199
0,943641032628369
0,932458522628535
0,978544018036727
0,895874876059625
0,901303124692661
0,92644035704906
0,93630274510418
0,942195098860572
0,964414853251294
0,88712222944207
0,952039300229403
0,919657497065695
0,902102446850771
0,928111435264639
0,919466424162511
0,90153995023416
0,943665556951365
0,916907548450263
0,936235541467973
0,927914615088845
0,94671560463071
0,921231965698218
0,921104491639918
0,900615289120169
0,917910450435619
0,949324748215751
0,933349778591404
0,913433091614333
0,929369256787845
0,879369751955162
0,887963662859287
0,907454628783205
0,924119829462861
0,88059035362825
0,873864094999875
0,875650249619922
0,915178998575669
0,916094118740838
0,929226677706812
0,86856031076864
0,881231934018926
0,893005970235833
0,915441771329604
0,884976806525713
0,92191674292215
0,876715999702971
0,891387314789512
0,852547489889685
0,896314360300747
0,871798823785119
0,854272427983313
0,849305825789054
0,869950484278918
0,86043430415386
0,875826892688823
0,83539383254507
0,870538648808171
0,862161105506002
0,858723884287811
0,853657159427183
0,85266660748574
0,813160803471007
0,853222969401817
0,84633163160468
0,828104511590303
0,840679561892959
0,860277931959386
0,801234399443141
0,835205269323832
0,835210868796417
0,810268957153621
0,803075542945095
0,819004639387276
0,802700864546308
0,829745762492889
0,819019142792799
0,801020664638664
0,784478211342217
0,804850551998134
0,794040227275592
0,803649356352549
0,784961228672652
0,787652913369105
0,785747615072562
0,823756788309392
0,790820201282475
0,789805163709327
0,769574879400056
0,749409328586798
0,760232944650169
0,785988847589771
0,769238315735233
0,765366308034013
0,762451205723778
0,751129378379375
0,737981796949494
0,789744301975675
0,762951568737589
0,731030665911392
0,745122542557043
0,741979851209578
0,744403096130342
0,743684494609328
0,712736874815025
0,718695943278877
0,714450869203583
0,715775298296195
0,717486996298247
0,716048453305452
0,7369948604217
0,719622204668763
0,685683291994613
0,681844802053281
0,690750279603908
0,720941982943009
0,685831340240059
0,701471390176762
0,692598445586485
0,687413796272282
0,665170222868149
0,665513405628499
0,677876694840028
0,673522758895466
0,646237432336039
0,649791409469916
0,655514054617838
0,658064210663513
0,639443430332533
0,647857982636675
0,650401537568201
0,639277984729242
0,631675255992175
0,640070589521664
0,629037619241564
0,630764332988374
0,623965955824924
0,62054581844916
0,615710891883615
0,64075348203419
0,613559364563414
0,613676556698877
0,61490353019361
0,61283093823197
0,599723470326699
0,599431130511102
0,587831643393289
0,602609335083307
0,577296289831732
0,584388008676862
0,590208750543621
0,575970438902567
0,570506948366244
0,568520025247528
0,569318642047261
0,575182938128801
0,57278261814227
0,570085985642138
0,556586840573683
0,559513861220276
0,548412826959648
0,541232808522662
0,540359843067053
0,545418790016206
0,532884601675207
0,543005569949198
0,541989401064532
0,532837355794452
0,526459993005521
0,524809674800188
0,51850486152035
0,519958133638805
0,522369885633568
0,514295276011287
0,499126559613998
0,508388372392156
0,505897842985991
0,497705722373373
0,495468554873209
0,4950837967802
0,480219156023478
0,493729401504233
0,479716369702404
0,479543163157342
0,481775849076461
0,485722804341963
0,481668521693425
0,482756791264831
0,473289670831107
0,474122772589992
0,473505593157026
0,464697548091724
0,449739590986756
0,457239633946233
0,451862893045413
0,440474965641297
0,440575749909576
0,446336887596318
0,433007586078772
0,442960049945379
0,430926675994141
0,431005111588445
0,427359110246528
0,435014120427229
0,419084141466876
0,411908653282139
0,424527615942983
0,422125968669505
0,411576296927593
0,420453133806044
0,41510662238877
0,418213177980235
0,415523304892099
0,411720197702256
0,401733514024894
0,40288824680177
0,392826698422591
0,387802042258898
0,396253216313084
0,401621724611378
0,385239681537036
0,39498603916909
0,392400533267579
0,381469427752284
0,376165408493262
0,37562195939715
0,369397647562122
0,372217877388978
0,368179999786597
0,375987301613103
0,364027070481443
0,376031994590591
0,369239591218521
0,356119348452563
0,361286124751119
0,361331463608817
0,349675828777895
0,358046468815086
0,350224351622851
0,349450569350321
0,342727301337193
0,346727858139153
0,34238843288607
0,335537259442335
0,337320987878781
0,335957988087754
0,327884428023582
0,338317197518859
0,324708210985909
0,329731475314276
0,321905025883447
0,319608774944434
0,318618373239203
0,324312827899061
0,312588297356332
0,310560713231686
0,31617765037999
0,315952213547139
0,313790645063322
0,307629992916004
0,301237530632644
0,310164890366053
0,300150730943441
0,304771483398801
0,299803092554369
0,297580043511081
0,300243282578096
0,296211238570738
0,295299415979301
0,297257110998018
0,288957068196839
0,286898448633704
0,286047874723849
0,292567023973241
0,282231617531171
0,280419231356906
0,277662611742253
0,284982541653989
0,276600415574531
0,275694379087626
0,273586865114926
0,271348754078872
0,26682433061388
0,267789819888652
0,265621681574502
0,264310895327123
0,263856500907283
0,266864412031424
0,261491477667361
0,264090445798141
0,258749108526285
0,255350790154392
0,2533961238709
0,256082636746687
0,256814603947761
0,247622580803284
0,250153112364429
0,253059859419444
0,24262202378701
0,249144291812667
0,245644922675604
0,246016664146438
0,243386686566551
0,243541244591041
0,234620923261847
0,234592100523026
0,234982520338914
0,233888881876055
0,236005875757696
0,238765294610617
0,22937089240447
0,237052750230895
0,231471591373592
0,235700104667604
0,230193567007556
0,23053982835908
0,227916595278769
0,224558402710991
0,224283140100898
0,230231509901523
0,221116086220698
0,223587072693716
0,226001432526571
0,222448361866669
0,22093583977413
0,225166472648176
0,219959663408771
0,221657381069639
0,221748779729883
0,22864028992291
0,21760016717568
0,22394144479157
0,227746272358775
0,221253364734994
0,218710001562211
0,221122619446811
0,222021600568132
0,226340089841608
0,221618349654076
0,22870058758096
0,227666866142048
0,227244842581922
0,226044084227202
0,236846246383463
0,227297376453464
0,228763644676068
0,232759293177932
0,237802591892506
0,229686628786023
0,236108715630097
0,236037382948462
0,238851955447721
0,239771542437458
0,23964303156843
0,239907755841557
0,24648208658505
0,250272736449287
0,248617736991862
0,245849431109503
0,24905292184256
0,254760338824605
0,250603173415597
0,259239621094594
0,257569178108749
0,255577640280508
0,25527418009328
0,255615567399222
0,26874549479164
0,264470402611553
0,265554123285568
0,269456920653681
0,271219027778341
0,269303415636018
0,279189371795456
0,276471337688463
0,278986685150298
0,279091493975706
0,280511181723294
0,284082222949488
0,290456405463837
0,287534659052675
0,29463684250797
0,29406211403758
0,29649237024579
0,299965371546762
0,309329489319149
0,304408389101109
0,310213211185304
0,319706829611991
0,313630167712094
0,314600169540103
0,318963542917555
0,322437273791912
0,32460256856074
0,329534905813069
0,332922249408906
0,329206597308552
0,324810122470063
0,346675130345612
0,344146968533689
0,337896968972883
0,340017267875657
0,345212928548166
0,344483500838211
0,347381982383953
0,338259957980685
0,342372980379014
0,351797735290997
0,347187146051052
0,349447112488347
0,340931646638206
0,347788600508203
0,343189222918334
0,331279404866158
0,336519331121284
0,346041346586074
0,335981421649135
0,339113444648413
0,339993898720223
0,340815930794587
0,339216953697468
0,329728239920412
0,337005909315004
0,338983354321019
0,350407236221525
0,338636354567079
0,338010174662914
0,333653725648699
0,341850442950852
0,33666257018514
0,331639777412616
0,341841605976331
0,338455944969542
0,34914278819636
0,332702191051281
0,340343890837648
0,339209594421969
0,337625407089936
0,334035762720656
0,341880013885636
0,338102969536308
0,346316036626056
0,338080936447903
0,337184004733985
0,337059515696065
0,335479156435993
0,331824042563412
0,337315892069248
0,332834387619368
0,345940836084543
0,333027597777593
0,32912108424392
0,338980287617096
0,328774206212802
0,328468151916939
0,332846091429042
0,321673506295279
0,329258654119264
0,333169287103817
0,332285148785988
0,319568532562493
0,317772998438361
0,317357530344375
0,317775391547042
0,315158781772274
0,308563057149612
0,314266578867782
0,312030379430567
0,307196032264002
0,301356905228519
0,305772827662726
0,301396259455659
0,297664153492726
0,299118231570988
0,296014655110577
0,287616767807199
0,285852703022222
0,286544535303197
0,278169501972529
0,273529535239278
0,272276705970836
0,272463525915568
0,273827897824022
0,26572416804627
0,265175528533851
0,264081432599657
0,260037942546768
0,255745241219704
0,253434069876631
0,25427129677117
0,253523220604871
0,248669354825515
0,243939874097998
0,23579593676055
0,237786714194253
0,240201868350101
0,237335316992701
0,237277759901509
0,237956608477177
0,229586157452125
0,229101842540829
0,230120457493733
0,224415461662036
0,226750946452886
0,225582021671017
0,223520192330043
0,22317270462161
0,214276080648459
0,216871312607893
0,217825763272814
0,210501470478835
0,215594616531301
0,211837068699437
0,214417930619397
0,210599425240581
0,211655424823303
0,210138215731177
0,201956054962122
0,204759827855074
0,199186604285126
0,200635431558132
0,202035080142282
0,205408639177006
0,196136658513094
0,198540062296133
0,198582910605402
0,200068433786704
0,194712180833787
0,198733427831404
0,193875522674056
0,194933318862788
0,193252954913587
0,192557790107459
0,186398448735002
0,186074255490718
0,18327959394937
0,181778527493408
0,184222369047498
0,184103627460615
0,186808525743802
0,183829890110847
0,181995023656963
0,178414687744971
0,181775070783674
0,177638488072416
0,177137804608711
0,175936360607377
0,173060390439405
0,176566491327546
0,173052475964475
0,175003529614416
0,172891890957551
0,177228687721058
0,171993325298675
0,172700065024574
0,169688147244885
0,164801577421731
0,167495302121698
0,169169843394142
0,168303692670273
0,167176669759674
0,169179054125344
0,167898545946308
0,164406962533916
0,165101231801911
0,163727452651
0,166681811120934
0,167305647043854
0,168865831785692
0,164234213369977
0,159950441855777
0,158926921450403
0,158640124630736
0,158037223774026
0,161742376434757
0,159006161232109
0,15957311552111
0,161188675665462
0,155236944902665
0,160328803978433
0,159195782826706
0,153586945420167
0,159414094866689
0,15825593975529
0,154608933427223
0,152649799880062
0,152706265344849
0,14882006036467
0,152518630514465
0,157171965637301
0,152864190230417
0,152029486054186
0,152510979501178
0,153144171814566
0,150939847368024
0,153570434479801
0,14841910297191
0,151941870690505
0,151573367919818
0,150155936360145
0,146495951751856
0,147311519678786
0,148587950507008
0,147287409451712
0,14707760353027
0,15108599520745
0,146075562541246
0,149177955030021
0,143710486236458
0,147669302287645
0,146410041004459
0,150165934930015
0,148336803720343
0,147101919924287
0,143203526794174
0,144583457320847
0,144626350765938
0,140713544632373
0,14455326829534
0,144976450349918
0,144672289021058
0,13866393520393
0,145598386112535
0,145424881789277
0,14559837925577
0,14260953530901
0,141410392122714
0,142641679257686
0,139851291148455
0,137863113266891
0,144586734695532
0,141665867931487
0,139207247408085
0,140354255245673
0,137447869740744
0,135634053607925
0,139651436364526
0,143635992719878
0,136122809810117
0,136832575985463
0,139354042638762
0,136601116338608
0,1382719531901
0,136038452642477
0,137468794209592
0,136960938194129
0,139549827364392
0,135406345698377
0,134642173083584
0,136092109610043
0,133943780988405
0,130438714439215
0,133758766846494
0,133962265769878
0,135256937614061
0,128218786496915
0,131952625354948
0,128100654444245
0,12831846602505
0,129664042830082
0,128275734827869
0,13087347745388
0,128356016816212
0,124780217126343
0,131526032867042
0,130082488054101
0,128256651501215
0,129405041598468
0,126539473404328
0,123208960212152
0,121195850802674
0,123212580983759
0,123188323531024
0,12026856797607
0,125130461463322
0,119010034869199
0,12269670609874
0,122405333211481
0,121511876568767
0,117483109030755
0,124336967351971
0,115037530803025
0,118960593471064
0,119398090216685
0,119773060260138
0,116925625053344
0,116316589195034
0,118677051152349
0,120963674226797
0,118021570331457
0,11793025690642
0,117794501861316
0,116516931189045
0,115721426317932
0,118183041724769
0,119170592394661
0,115597934171373
0,114309494736814
0,113010102309469
0,111581394819522
0,112351598620829
0,113754656154218
0,114260313436641
0,11044797281015
0,110791836735639
0,10503828880289
0,109449489954998
0,110275219320005
0,111588241221197
0,109132403429937
0,110388817262734
0,104683982474047
0,107507931218351
0,105585604629337
0,105032999100846
0,103083516425351
0,107419866031856
0,101975085360567
0,103289485267713
0,106152817770206
0,101112785268771
0,100520846020069
0,102283238465115
0,0996774365371249
0,0995545472683623
0,0990863086977257
0,100712956372991
0,0981653560968595
0,0976655012778672
0,097159252246406
0,098485009346606
0,0995141079684813
0,0982347051393256
0,0951576985971701
0,0974605961731065
0,0968007412286687
0,0915431605551021
0,09462278728641
0,0931492874608017
0,0955182599212968
0,0949642044024659
0,0924773007178361
0,0983425288373498
0,0932700646267672
0,0950182783303106
0,0945843969626318
0,0946903609973745
0,0898934229597153
0,0926418819618971
0,0924992421280434
0,0894029004288837
0,0897452692582906
0,0919193994413032
0,0886661441519193
0,0913068320049505
0,0909830800589526
0,0866466072098054
0,08873388079427
0,0899285094547936
0,0898501217986776
0,0881909373157832
0,087902897715749
0,0880106271193835
0,0891953148069077
0,0864139414552393
0,0850987769318992
0,0850358449871606
0,0848754664688594
0,0845545309025298
0,0817015602591404
0,0877563387043781
0,0843911058876437
0,0876307179250448
0,0829175666557301
0,0832310053277578
0,0817926415193008
0,0841129386571498
0,0831365658833012
0,0796997513608426
0,0819387326917931
0,0809718614757316
0,0827292468506901
0,080986123795534
0,0794713667684956
0,0803101625946628
0,0819431077545302
0,0838758416440207
0,0766585603887366
0,0800200503427008
0,0781276040144
0,0825445233248461
0,0753737979080076
0,0806583916341451
0,0835919741656149
0,0792760404055481
0,0804834871734024
0,0811230831937941
0,0772947655573056
0,0780584851068591
0,0762511105548491
0,0764432397475945
0,0777954669613679
0,0797188487051503
0,0787810183624755
0,0752378583613227
0,0779419076427493
0,0793733640070341
0,0775223996546337
0,0782323888248117
0,0765530800820901
0,0771332861244523
0,0748274715896978
0,0794302890660738
0,0779027371256096
0,0753187745993269
0,0742143090782006
0,0765138060229142
0,0743990118417273
0,0762969050184063
0,0773872211844644
0,0739719613232835
0,0767192815513167
0,0736159674083319
0,0771786875623265
0,0757167963934531
0,0778635608195904
0,0755338115747085
0,0717956753577167
0,0734424726323017
0,0729425734197433
0,0722622218601228
0,0725629332092648
0,0714354672566957
0,0724829561501361
0,0744551429320064
0,0740646603381716
0,07239246282256
0,0713098160729311
0,0705456035263842
0,071931976668959
0,0713330291697395
0,0736008687984638
0,0719347792068862
0,0717447249302602
0,0672269807919061
0,0687899047584494
0,0709057676507275
0,0722479946567256
0,0683206184869826
0,0707602985878814
0,0677302992786804
0,0697980585462727
0,0649023758217787
0,0698535236776702
0,0680413955799539
0,0649174870421905
0,0698250998829422
0,0696227636182247
0,0664484882431611
0,0665252570338972
0,0693803337717235
0,0702121355558147
0,0665734740907994
0,0683844657956372
0,0676675516284375
0,0666280784352865
0,0700004275268308
0,065931366134862
0,0672107814551609
0,068279136652831
0,0647725635872234
0,0669072328759679
0,0685831595523321
0,0703245693352361
0,065586085784744
0,0692683692632358
0,0681018751325099
0,064873136292673
0,0678811712178281
0,0629929857644249
0,0640898451810217
0,0668083055213425
0,0659200396597298
0,064269584002276
0,0638093586372731
0,0619475918258583
0,0643124531207189
0,0649511280768981
0,0671174967472887
0,0629651261506514
0,0592177393263723
0,0659142943792696
0,0595062866545112
0,0613994047878252
0,0619737409663249
0,0626404605157085
0,0618113631608826
0,0599448693407896
0,0613865715024556
0,0619610273141819
0,0585864682877741
0,0601410419278366
0,0585554939213307
0,0582363471674035
0,058054038364025
0,0589557912651712
0,0567567400050639
0,0593168528672421
0,0577460156415011
0,0548858048604536
0,058034568631763
0,0605803385952675
0,0580276909721206
0,0572979104504536
0,0596457895801561
0,0561929142874027
0,0559075471186069
0,0567712326342302
0,0539372798798843
0,0554204275398388
0,0576272329320203
0,0538479518802431
0,0568857321717362
0,0567012566302209
0,0591060147289125
0,0526429535594301
0,0532403296686817
0,056762067854511
0,0560919806243756
0,0557970395567787
0,0531436763437319
0,0567681840487476
0,0534604037656086
0,0545454024294188
0,0550026919491782
0,0542456108835823
0,0537347117648576
0,0559337080131933
0,05449014221743
0,0531239552010288
0,0496473002006097
0,0522967108227029
0,0551014873455431
0,0532488350463964
0,0517750684140284
0,052673463413117
0,0520027734587511
0,0521911047064295
0,0524642732489266
0,0516406872921869
0,0505545644074354
0,0524039630320199
0,048847515542415
0,0511773860478368
0,0513342370841594
0,0528440037737902
0,0469355488628125
0,0481215875003001
0,0471442040959015
0,0484970324501286
0,0496585303787684
0,0469259281145825
0,047062374375992
0,0475967634778109
0,0442243591250233
0,0468150758235216
0,0499675038505893
0,0474252671896936
0,0460262313399744
0,0494625796428308
0,0451921931950454
0,0461369556079588
0,0447523467233755
0,0445254315898585
0,0464991057749581
0,0471373899893829
0,0442356412712318
0,0459870110296551
0,0439725924532792
0,0427156575193528
0,0465845041384299
0,0472237789731873
0,0439063502195597
0,0459880072306839
0,0470981036721792
0,0479838173002939
0,0433052481883737
0,0453661162898319
0,0490235267360604
0,0504188710461992
0,0464909721457701
0,0485700517468946
0,0447921379328005
0,0454048645272114
0,04729051881342
0,0513306114007875
0,0513875004743093
0,047258380198308
0,047401922099232
0,0501527856168848
0,0508164345081796
0,0521216216690955
0,0448612215514355
0,0457882836094004
0,0382604421133602
0,039119361024511
0,0389929866098509
0,046088943345089
0,0433804583618205
0,0408449797872874
0,0309561481152887
0,0386130578436677
0,0362765221855104
0,0426315405607699
0,0402773358058906
0,0415467491343255
0,0404074191183786
0,0397128192029902
0,0406911334854934
0,0441407389473153
0,0401831115955185
0,0463048869617696
0,032539636262256
0,0478834401097149
0,0448331672575194
0,0480612629990899
0,0359003627759766
0,0473708604829877
0,0335488573200552
0,0400135120603944
0,0327704578838663
0,0435980229914157
0,0293409076209449
0,0406609700894631
0,0356555426968981
0,0447980115175107
0,0407183560501435
0,0468377237991332
0,0429408783000186
0,0465400396429349
0,0386386849641971
0,0407886237580857
0,0303283762890759
0,0353328816014835
0,0424337312800817
0,0479129226325593
0,0430993217668072
0,0386126839944379
0,0368978847281747
0,033808746694664
0,0460318741838471
0,0439594906480493
0,045547397809529
0,0261316093469797
0,0545583138814544
0,0392418873003332
0,0497282559153369
0,0254612129587171
0,0609422441800411
0,0326836710170785
0,0589629696220361
0,0281884436581079
0,0601587756933406
0,0315005800223344
0,0535384542223389
0,0357946615391032
0,0463460718795103
0,0415291202245876
0,0419967161436583
0,0440405242574551
0,0413468923843558
0,0475138074528021
0,0387481337972844
0,0435703890135338
0,0401437956435056
0,0391946871538984
0,0437613771172707
0,0378582405138508
0,0426343023380673
0,0364699893855968
0,0402034798689932
0,0379319471555269
0,0400082365007763
0,0397551475008005
0,0366280597587444
0,0351611732547712
0,0366670145550895
0,0375488750900312
0,0370521054559679
0,0359778236911968
0,0403443813817826
0,0373676590759259
0,0359106743022693
0,0389467725652368
0,0359958191149382
0,0350414461417454
0,0393126879720174
0,0368134407159484
0,0355976723258959
0,0336504631233981
0,0362979243130038
0,0339928915584863
0,0349656104107917
0,0384030549488284
0,0362049843976177
0,0354363379679385
0,0347125137816908
0,0390243137098773
0,0389541080129538
0,0355801002077408
0,0348523977057727
0,0376703789234624
0,0390863831932716
0,0365316975761022
0,0367587856429612
0,0366832746988827
0,0377756717932649
0,035502816408372
0,0356820467159902
0,0342395571016566
0,0348333241240537
0,0379040784432129
0,0383852086534947
0,0364654127779718
0,0369459114111791
0,0358877086904394
0,0384315621610961
0,0361649408755965
0,0368047702558769
0,0377855227613955
0,0358006356591235
0,0339069745544125
0,036053235980564
0,0378635747885975
0,0355432076770072
0,0353963986339986
0,0357894916382851
0,0366057058274184
0,0361325428999242
0,0343617360435808
0,0372604498002873
0,0347845603735394
0,0393536719908421
0,0342913851440434
0,035466324903263
0,0385752608077019
0,0379387912052765
0,0348941868883201
0,0321573792678202
0,0375364553532956
0,0355418991956221
0,0343005708222792
0,033330872250223
0,0350227197202793
0,0360347749855213
0,0360662359747433
0,0356256495669929
0,0365312634651983
0,0341078665457472
0,0351139829691324
0,0341142163449103
0,035048413791434
0,0329835092010783
0,0366209711937842
0,0336630382486176
0,0371675752728753
0,0357554532967474
0,0353241497184346
0,0361413825557982
0,0354125373217598
0,0375577103807259
0,0365389765457668
0,0380232395951386
0,0377062947492454
0,0369520278610192
0,0357125375298154
0,0368813188229024
0,0378565096901653
0,0361836102355685
0,0335497870466649
0,0340568488796283
0,0394564409281559
0,0350562226299403
0,0371539000617336
0,0358063778515097
0,0371128896605248
0,0363648144238545
0,0367527181289836
0,0342362709921394
0,035590525030517
0,0346752041964132
0,037161254394426
0,0366549132807931
0,0359738454896261
0,0373104179944732
0,0392194194690519
0,035723756036637
0,0361088279552271
0,0347193583504701
0,0375734074517709
0,0374164410818448
0,0361339012796094
0,0354464516161621
0,0364518893806809
0,035729219391887
0,0345542883022109
0,0355450935613874
0,0341576432806819
0,0362741447863601
0,0358330635998307
0,0360275139665787
0,0345302620693097
0,0349649758059865
0,0379340524740089
0,0368337146233769
0,0347415781722016
0,0373943189897071
0,036288273485338
0,0332307971275349
0,0371007755592673
0,0350599053723033
0,036334997144704
0,0347740051335481
0,0378134965643783
0,0385671425020438
0,0397529642490825
0,0381262963656745
0,0363215753259357
0,0354220133786804
0,0375744249275156
0,0386290450506843
0,0385485407070019
0,0390566072342298
0,039394155421387
0,039046438584648
0,0365083136165832
0,0367878185323483
0,036603131346136
0,037818806613063
0,0374394947187601
0,0361549160983768
0,0384553658324969
0,0377898814182968
0,0378633317119699
0,0375276855015345
0,0365399145645434
0,0365268195588909
0,0375977298108731
0,0382405162690099
0,0375529153851265
0,0382672665422361
0,038057211830611
0,0367188737680899
0,0353060619962372
0,0359131962932409
0,0379696282209152
0,0365413068665872
0,0368192053558223
0,0359885451142491
0,0340968563964137
0,0329479818519671
0,035321486784718
0,0341274999163283
0,0361806360460869
0,0335503973351021
0,0370889717516197
0,0354530712358418
0,0360322016867724
0,0364552087700191
0,03766255279173
0,0360886751913701
0,0354155912161644
0,0342389851859467
0,0341880652526829
0,0326680106729923
0,0363784215625352
0,0344348916008515
0,0374496299221825
0,0320062956046934
0,034881120753595
0,0328487424012209
0,036030090727737
0,0339990300151941
0,034242786116972
0,0345090689297984
0,0340022977373869
0,0348246057833402
0,0372981573426243
0,0313665049768113
0,0347197721728628
0,0345687017827586
0,0355373167150438
0,0346186377618
0,0358739053760142
0,0334889823421642
0,0355067376890948
0,0323798213400698
0,0366979956618695
0,0356811341909433
0,0350860658561748
0,0344963492236719
0,0337482392157966
0,0328567642175195
0,0348513224239536
0,0356257347074908
0,0338164137821839
0,0357173415194846
0,0348480384248793
0,0331409091090033
0,0368979450381794
0,0324386581024732
0,034082081992924
0,0324782784235977
0,0335869017064825
0,0318303774569446
0,035079857730368
0,0340392030242099
0,0352493889394068
0,0320347208211595
0,0344399085375137
0,0350873999269755
0,0342336818533542
0,0322515745441461
0,0332715357876898
0,0338772809976617
0,0347356601200113
0,0305379505800354
0,0330432482047781
0,0338624447604169
0,0353713542355923
0,0341421257634138
0,0349012208347489
0,0329283537052912
0,0321482277411981
0,0324781504739756
0,0329209249044931
0,0325988808914529
0,0321696670198101
0,0328129815008847
0,0339984862308355
0,0313193921393795
0,0315450484304834
0,0321420610595219
0,0338593739381973
0,0366721217325859
0,0346452048723114
0,0297979002008645
0,035190692212836
0,0336035756316892
0,0329244937593423
0,0320093500366808
0,0344857055911392
0,0320321757902045
0,0338804490184605
0,0313178258671914
0,0338741464082921
0,032475108977694
0,0335079724345027
0,0321068713850309
0,033791638493512
0,0318185581331151
0,0349081706970712
0,0325850631464257
0,0306999972150417
0,0296594315006779
0,0354371254617934
0,0314037980772734
0,0297432249951265
0,0317048252344301
0,0319279288435267
0,032558094382244
0,0333965860621049
0,0293693896639821
0,032743558826577
0,0301690971448304
0,0328823050635351
0,0327038546646809
0,0329592494914912
0,0308810338920375
0,0308155681928868
0,0292262869407874
0,0350889527665771
0,0332709335878866
0,035918161475151
0,0289005579710093
0,0327003805266859
0,0314898288371613
0,0322766107723777
0,0264212212425433
0,0299057268496414
0,0294081795564685
0,0305195804463266
0,0293379848448869
0,0326293153710239
0,0252411407303995
0,0304581275530317
0,0268933632693034
0,0299882873823269
0,0273775905379643
0,0279524927244202
0,0266232349145225
0,0292964247062875
0,0287601577012388
0,0299416506803403
0,026757816545748
0,0291984739537406
0,0243044706632323
0,0313015856840966
0,0323264026513274
0,0439076717447538
0,0318495373768952
0,0273154512398527
0,0322774202555365
0,0316167872020855
0,027303423670725
0,0277126059414088
0,0289763619420339
0,0281059086945783
0,030125259767192
0,0284164388905186
0,0269899751907579
0,0281897901466431
0,0269753670708725
0,0294605138460369
0,0260589848804226
0,0297007496280787
0,0277495355655587
0,0286901801353514
0,0254341484044674
0,0284601656268384
0,0262021674722014
0,0280311337676317
0,0287010316167361
0,0279411344185681
0,0269397352943739
0,0358534649461599
0,0352302959331875
0,0269879565164967
0,0292971470225286
0,0288477507431004
0,0280806620615017
0,0269488298501242
0,0283300912792051
0,0250802225548281
0,026919316823208
0,0262914151997605
0,0263407477269644
0,0268787479601219
0,0258916952179184
0,0278976135364881
0,0247266265153549
0,0260703698828756
0,0269768308365434
0,0284652818778861
0,0298920069419129
0,025815488665989
0,0244506843585595
0,0295070893436108
0,0294933266899419
0,0260151012883332
0,0256727841831152
0,0302924628432269
0,0439580187240109
0,0350239070302844
0,0240652931785433
0,0298102611730789
0,0230782470453434
0,0299607021956791
0,0238870367607846
0,0284007831638325
0,0235047288450649
0,0265999887912315
0,024114255530199
0,0289348499048077
0,0258136467600109
0,0278986929131597
0,025601873392707
0,0273603351308556
0,0224953841551258
0,0284446842942684
0,0215113416722769
0,0268889670019215
0,0293835943914038
0,0436060952096194
0,0328885020138521
0,0272843459934956
0,0216569644197271
0,0316116581740057
0,0318858741315372
0,0455710285100639
0,0180660397410241
0,0303863872121646
0,0222153596826543
0,029645697072609
0,0221059676830089
0,0293019885115004
0,0281463401117266
0,036611480966098
0,0286748638896094
0,029549105516003
0,0296294974424016
0,0266333503639834
0,0259408421635432
0,027454255571904
0,0225331913494595
0,0254280473309114
0,0238486902728626
0,0278358084144459
0,0229829572394381
0,0276742959743298
0,0247509697476047
0,0272205719691182
0,027046290735363
0,0355190383761517
0,0247321565429071
0,0282997639174183
0,0239672746213444
0,0265954412457472
0,0308314333178818
0,0426231165941019
0,0320176387508715
0,0228740715627243
0,0278063902074775
0,0248536450704719
0,0263671026321593
0,0259327617136476
0,0280986330798664
0,0241475545234549
0,0237248639114431
0,0261007597268314
0,0282362947901441
0,025444089273916
0,0267879256241181
0,0269114407458513
0,0260064512299952
0,026723460401968
0,0247336880339411
0,0273418792037497
0,025688649183694
0,0343105322800195
0,0347393219153343
0,0549055854177175
0,0371255533232034
0,0398864761572332
0,0340794718237554
0,0258839895687193
0,0262100801923732
0,0269688295440503
0,0256960918510563
0,029843298949169
0,0256448755125433
0,0243508696101655
0,0292844442116155
0,0243805996903038
0,02413199259447
0,0241870242626029
0,0269657565702041
0,0266784535934108
0,0292411663925023
0,0222736583060952
0,0271166234791965
0,0190121281669893
0,0307352482525386
0,0274610928948101
0,0385596663363347
0,01993180074868
0,0384198082179769
0,0363971188192422
0,0626325559592855
0,0339431141471159
0,0289353510411107
0,0294023955519284
0,0241479518445206
0,0273036011480732
0,0248588313793363
0,0327221124772438
0,0276614771457978
0,0236630230195405
0,0234224562268575
0,0312889696219365
0,0237682708295751
0,0268338506318678
0,0362338302581252
0,0569641894072452
0,0476749863958858
0,0272159486848279
0,023839995914814
0,0379875671364701
0,0482984274057841
0,0402070742869902
0,0231696026332339
0,0347242197237614
0,0232204984156793
0,0312368108560539
0,0209860245713333
0,0313484891034687
0,0311654616474184
0,0310975138038326
0,0257994330961671
0,0257567495288095
0,0279610513956699
0,0271759237020719
0,028969169226507
0,039599064566121
0,0396808052416653
0,0314250941722655
0,0295306011216858
0,0363418509330194
0,0260338184199245
0,0309025733717419
0,0256884290433872
0,0304578961408424
0,0388971849871056
0,0461133431995817
0,0383140141007245
0,0431289233321984
0,0437334655904415
0,0325581078267241
0,0272605468380624
0,0453775934998901
0,0286934979988666
0,035872393995826
0,0360043065670468
0,0531316832714884
0,0655220446083436
0,0399683688076536
0,0452352580624787
0,022687873110702
0,0405658168797023
0,0185301959471452
0,0425426201007383
0,0340734730263342
0,0502423044145351
0,0167424469317754
0,034392386726597
0,0340807991679503
0,0517217988695282
0,0328359901320401
0,0337043151347641
0,0281922452058633
0,0383988260383076
0,0457597395369706
0,0371569489133348
0,0368348366408245
0,0437384035588085
0,0791323415562277
0,0504577836864134
0,0420795817475154
0,04156851325336
0,0554017975258583
0,0532080501635159
0,0258097872479255
0,0389990653018666
0,0307585962111084
0,0319392742023578
0,0411971568410487
0,0607907624667997
0,0501331731737469
0,0326620803046382
0,0366191695431389
0,0423442980490826
0,0435197885292657
0,0575201569552035
0,030276200696241
0,0425302972159391
0,0273818402564579
0,0515978635454779
0,0576392721270957
0,0748182485332752
0,0558446659038652
0,0685979134885146
0,0661020335015172
0,0537421416778497
0,0523618619563202
0,0425770549836432
0,0620547779841257
0,0583546199817289
0,0489085479156036
0,0369176370217734
0,0624628661557256
0,0602145850096477
0,0592185340638663
0,0394901067541539
0,0546303353851575
0,0374269702992681
0,0791060313392901
0,105221028221121
0,0859550770081351
0,0510522192739158
0,0634062373677628
0,0666519028310135
0,0638047571656913
0,0431702557054822
0,0511268865309135
0,0461131781277021
0,0455420222910737
0,0540500878056826
0,0557508074013617
0,0563911841433051
0,054159742615629
0,047923757058096
0,0568309564825198
0,0712888551668746
0,119271804713367
0,0790414915127545
0,0912239824313646
0,0722203209341974
0,102714880901498
0,0646485092283328
0,0668070934719953
0,0559794467035631
0,0724390121533195
0,0665025522978261
0,0613866306997853
0,0648889381830864
0,0808863595569616
0,0829174016264489
0,0929916374024111
0,0822812610614443
0,0865499413404926
0,0584561922825181
0,121658080777454
0,099012091457886
0,150873978963694
0,0782710952370321
0,109613646821616
0,0925648767991981
0,151080205603043
0,111276158502505
0,0926067851889213
0,0892911502570534
0,0914211811992873
0,0948636195591684
0,11034815428395
0,112140549946811
0,12730830390083
0,103801347015115
0,121140531259918
0,112210898259739
0,220507174573092
0,191380829982338
0,146080482733979
0,130787894846006
0,153014856344429
0,149562204909044
0,144699868735864
0,132018186047489
0,139504885052724
0,160359413169463
0,186083812210903
0,179605133463998
0,143629724517809
0,187695147910161
0,171326326063245
0,195938032012836
0,181453651690319
0,227220379040133
0,18067612896622
0,184656079373827
0,182284288647405
0,182079337727473
0,201034581474545
0,20565114636262
0,223839751661841
0,198033445492719
0,204604500896876
0,204683996707494
0,209408084150697
0,214293845914184
0,213127148583515
0,22577782731476
0,243950436682568
0,308474056839584
0,348916012040197
0,270631881772717
0,23154637795475
0,212113771118511
0,239318948976447
0,244010960268933
0,277555608379723
0,261070604188087
0,260912515264795
0,220381092060796
0,219646221056642
0,228921426455441
0,212525052425922
0,230627655327529
0,218932670610917
0,234180058181724
0,235456474684128
0,252317386348162
0,257360105469005
0,286293843927114
0,24978306709473
0,210416933021881
0,233994612187949
0,21759056247034
0,226716036929066
0,215004029605998
0,238984430388798
0,230623029909949
0,233272593315349
0,205126081235907
0,221681007581442
0,227573324879492
0,248081795818202
0,222258012568387
0,214945917190066
0,207075982192189
0,209241817222441
0,204331480659311
0,228351818678608
0,242579488366356
0,229036016476506
0,191637286694967
0,21005350049729
0,190585806859819
0,204580991789138
0,191858196217787
0,210673407193451
0,19957384667454
0,198729425264335
0,192250257697761
0,209832527007021
0,185936743835033
0,202465586662718
0,19171028556507
0,200136221556437
0,19350934626328
0,200403356389891
0,192393697372451
0,191370503501685
0,189236976474852
0,19320443122794
0,190741770838493
0,201862888107209
0,189493359597715
0,191868030353682
0,18435571718849
0,196538800266513
0,186650845313182
0,196140577233253
0,183594516707606
0,188130220582053
0,182594385280438
0,193089448345992
0,180779534816862
0,190163532358141
0,181223931981351
0,185330755754802
0,183169595870878
0,185253084679457
0,183836223917793
0,180690305377494
0,193329443758405
0,220440727072083
0,212777282955088
0,186838483772646
0,172619579401736
0,187053295148352
0,165194644628637
0,183956219928656
0,188617240025156
0,20783296512643
0,174627533305029
0,168523326191245
0,163480646286318
0,186426148665383
0,168512237022691
0,175008254727342
0,148715618528909
0,170092671444329
0,165900896264028
0,255433496532561
0,269475969957943
0,251010169034291
0,185209154505776
0,150129559263789
0,184879009412148
0,180635696122337
0,167866876885629
0,146418253726607
0,160944582694295
0,188396136604808
0,171705275885339
0,155300893412699
0,13980905472004
0,151844838727999
0,174790716992932
0,181086766344921
0,169699529394302
0,179906068979218
0,189817362809309
0,187331617967257
0,189184620389566
0,226332905763942
0,16983921653272
0,148699194592103
0,140408818287237
0,14135457911178
0,15791565786107
0,182370152401975
0,162702819139185
0,149822092361614
0,131060408766678
0,135859907747634
0,129487291922858
0,165901318694353
0,132973555748433
0,160667252880954
0,147458315410821
0,148213696268569
0,128312467016512
0,16998940116778
0,174778252335166
0,204189297648796
0,136649027131994
0,127494390743786
0,171018517989273
0,170469856817488
0,150774208246018
0,134279365048185
0,115890309888926
0,135126708736198
0,132569263855828
0,129854293474804
0,140418327633318
0,145777747149569
0,166881980295731
0,180403087777217
0,214228579311953
0,18520884400573
0,130959336635899
0,115409918185801
0,107515084115042
0,128354960783321
0,107649408366669
0,118028100013853
0,143597673310871
0,125336002703578
0,127685550598897
0,149854916720916
0,138264834631013
0,112677924780548
0,116591958237291
0,118129299019351
0,127745995182681
0,156508141296244
0,176548540098724
0,14823623459988
0,152355858554034
0,155738989260347
0,143065016983223
0,128943883335747
0,138686356257944
0,132342603879721
0,143955010713333
0,152867454386358
0,147400980537421
0,146260097447301
0,151018403294381
0,154341708805307
0,199090186489669
0,17483394366399
0,185146730532819
0,192897477397331
0,217338140978327
0,236848965826855
0,204898975347896
0,19375343194379
0,186607429292741
0,195032350681173
0,19723464359715
0,19636845787991
0,22576577684333
0,23286847343624
0,220393189824974
0,209960546692974
0,220589731633611
0,216346154834703
0,232968176639836
0,254435754614087
0,260392396381453
0,306065489620363
0,284910863865619
0,272225290681696
0,238075718677089
0,239042840968972
0,242259793804103
0,248227198233865
0,237184313683661
0,228876595558694
0,248973112583521
0,272258946197827
0,251623074517165
0,248436711868992
0,246932331085015
0,248136460457818
0,247710381845397
0,254265927073959
0,253260586068877
0,257072972112784
0,2596741176098
0,256744708472799
0,27359092754429
0,332039037067128
0,294539863730976
0,272786955528897
0,274622719864772
0,284564965210626
0,272475825388129
0,285237965792311
0,297889538182507
0,300458351049751
0,288845469713815
0,288807839451882
0,292230346902422
0,283810468969084
0,309119774084958
0,314310627296471
0,300691770548773
0,301285902008015
0,29821381937287
0,352455774770849
0,335870778089972
0,338701989318967
0,322303313602599
0,327485229422297
0,310955540995477
0,309189072329122
0,305403851537876
0,318331451246016
0,313224383321804
0,313984223125452
0,308086153448039
0,315773360972403
0,31656670515943
0,304608093156666
0,313415503603464
0,341770107881189
0,317584702619489
0,311887723222007
0,313603417522086
0,307037392698776
0,306071511050842
0,33419807073685
0,325709513275931
0,323758788169595
0,314158170789238
0,328261280873899
0,336124744606154
0,325552445277802
0,300296947552664
0,308846148055788
0,305709848017143
0,315144753601345
0,297214275549805
0,320205567532421
0,335414772614491
0,327050030562867
0,309427263527211
0,312414698418629
0,309981065008986
0,321579577668716
0,312797793452305
0,320454646966433
0,315990334799274
0,325372139806029
0,323011696704576
0,321745541054382
0,319139004979435
0,33605265659201
0,347564160054281
0,342256622026864
0,320790199940796
0,322058047987915
0,315594927484436
0,319638703769963
0,316927326762498
0,318786033962533
0,302177153957273
0,315827287919389
0,294124546651091
0,314824599940745
0,326498040004046
0,309755287986874
0,302704625180174
0,297893926360024
0,288069187105249
0,287835726780916
0,28824599572325
0,282261404337997
0,282523742556976
0,288001183397535
0,278759203636233
0,272283152306641
0,273976514097995
0,279061677701044
0,272338552743022
0,276680423592328
0,273137202504901
0,273495462259856
0,270705904282653
0,269781227102964
0,265569521995212
0,269104051840511
0,263516535785606
0,270258689448024
0,283005546597649
0,288216345681164
0,288480124741556
0,27236079359439
0,27823057780313
0,271116100895394
0,266762605876426
0,264837900539393
0,259562265194168
0,266193133683342
0,264006436626562
0,266563197945287
0,262054086743129
0,262315528129834
0,26244947137452
0,261517503171453
0,259104147789108
0,261690361364342
0,261674176253637
0,261072259032342
0,256104704434099
0,265320783191713
0,263303814489867
0,269964139832711
0,260450399723222
0,270370701049584
0,261333882858931
0,261284508954535
0,260740212806786
0,263364406939247
0,262866731308521
0,26177202268864
0,254646927343008
0,256673993575049
0,25802291209534
0,260920684783266
0,256479620658416
0,254271179355237
0,25416594557505
0,255097033876364
0,249084586974319
0,249447959360029
0,246992681004596
0,247848589856008
0,242789910789985
0,243112650382454
0,241646863359659
0,244551849518095
0,237889163288325
0,236743362034853
0,231818725065525
0,231229300719449
0,228154281202398
0,229080407975565
0,224169277788204
0,224824469851425
0,224090677950008
0,225184330469132
0,221870851726257
0,219434151497865
0,218534240080294
0,220110883116615
0,214824424078908
0,218756886980621
0,214724972595578
0,219856567969349
0,214978098373144
0,220022450958148
0,216346439028911
0,219619494226108
0,217432757279563
0,222191081042235
0,21543650888065
0,221352242788285
0,223499929378238
0,223381677933489
0,224722840313856
0,229935871406233
0,22610459388847
0,232665194676587
0,231652990881983
0,231209350330811
0,230694496711994
0,234626218142814
0,230433202445466
0,235337868970698
0,235904609053575
0,235935803366521
0,230825391250011
0,234894586762076
0,233382496368959
0,237920403210002
0,233021708108466
0,234188918322566
0,232258250273656
0,233331931352043
0,233686107853091
0,23347227526766
0,229937637329413
0,233681507306748
0,231284024262934
0,232472310193995
0,228737806260018
0,22920012323886
0,230004091229963
0,228620850924421
0,227571795353184
0,226014978699029
0,223965181707647
0,226229304345414
0,223085295366591
0,22311215196755
0,222877781973725
0,225939352260571
0,220398322637336
0,221581998999575
0,221625710592112
0,222714906624783
0,216964839995206
0,217761500310174
0,215082156021249
0,216811232919095
0,213959934661747
0,21687450993692
0,21374475284255
0,215412181628676
0,213120899362638
0,212966361368433
0,209120743179627
0,210472878352262
0,208037559805791
0,208898894780836
0,206404021822959
0,204526220916268
0,202515577606229
0,205222089770542
0,19898274728731
0,201095253975873
0,197419747881705
0,201778299463435
0,194354203001169
0,194289563403881
0,192534992576397
0,192813914540128
0,192838086805955
0,191641897388296
0,190988271023983
0,191035311962501
0,191395413879458
0,191394073751172
0,190933762598626
0,193303661279756
0,18910282139689
0,188685102797312
0,187157975668436
0,189817274072496
0,183937442497411
0,186917004419496
0,181297880706845
0,181001399934757
0,176772689083507
0,178134346135455
0,17344769609831
0,171296332832637
0,170275570294427
0,171508872391396
0,169737327670702
0,171330207410108
0,169714534692876
0,176714104765056
0,180116573306584
0,182131987065998
0,189452044607342
0,194939126497038
0,20134224036186
0,209389901759393
0,21668378400475
0,22625117511926
0,234323597236953
0,246836165120777
0,255333977638331
0,268304951082685
0,279460203080657
0,288487769118488
0,298205654309495
0,31025064015375
0,319713224546953
0,330050191524222
0,338669810781302
0,354117956819764
0,35998911573845
0,371046040172102
0,377422421936682
0,394357606192572
0,395280094187619
0,407611349786099
0,413321696424282
0,423449015226341
0,423670997275782
0,433065440994921
0,440207383300585
0,447916598840959
0,450667476740257
0,459094448824011
0,456317990781192
0,455438102140918
0,460614039081285
0,459718305179836
0,460968869108037
0,460971868095519
0,462337967394355
0,455760595800768
0,460596145035104
0,457502414545783
0,458988844055094
0,460266429837399
0,459198806480763
0,462288782909863
0,457365685674395
0,462318814296952
0,466479058618655
0,466258221722238
0,467946155003895
0,475665602261378
0,476610138276937
0,478527067812316
0,481705016475271
0,492665039392184
0,494096223943302
0,500875590228704
0,503672081979637
0,512757600676708
0,520951774530259
0,526640124936392
0,53344176641506
0,541938760731735
0,548982343337651
0,559298708160189
0,560563829340163
0,566521724022314
0,566905417522775
0,575504828248444
0,569934105473184
0,575724245637043
0,573474569668127
0,577329209626432
0,573414546869273
0,575608538199475
0,57252126049662
0,569876550807024
0,565758841118693
0,574088941401496
0,577272013656076
0,57959143559935
0,592371808263254
0,593234305081086
0,598928686651915
0,605235912638438
0,613480019056433
0,630202351849617
0,636645948099045
0,647405253382944
0,655609118678771
0,656300442980132
0,668567435227924
0,682994324154618
0,69727449817784
0,706497044869848
0,719190226027818
0,728433761046082
0,735770964579062
0,756206162706439
0,759417440341496
0,77251783332254
0,794410868697611
0,813517351415336
0,823590830261645
0,839300802697869
0,848664895188167
0,871685209200509
0,880229290990564
0,906664438821746
0,904701707896604
0,911980614805979
0,929532899732599
0,932388576521753
0,953381977026662
0,953610195389139
0,952564949234951
0,971935826136468
0,965887090915219
0,976475478499048
0,987095315378957
0,969474797860447
0,956684004542315
0,971312851375689
0,967847868980649
0,948771981514855
0,954116958163815
0,956747469971473
0,941215948701568
0,950768639576346
0,944319831226638
0,93712062448671
0,942991798086183
0,950114050744239
0,94923616374068
0,954105811015151
0,966528934241865
0,967687543686852
0,984654847401507
0,998345354480224
0,997231654511494
1,02139873954852
1,02518551994664
1,0097101445773
1,02506750997158
1,03514105133503
1,03799916261386
1,05382712390154
1,05356830116437
1,07652128702876
1,07211858751039
1,07058653674822
1,0727489575264
1,08388808641665
1,09400538625373
1,08180777894468
1,07496136264239
1,08922671789261
1,08985256101961
1,06882539985189
1,09451039531177
1,07888550450426
1,08356770207592
1,1005328422295
1,08230637268622
1,09401713180145
1,07638520274609
1,06354065914345
1,07035355123371
1,05167046569958
1,04652660087847
1,02643433212924
1,03854168615835
1,04244719385623
1,00660552181618
0,982170512622002
0,960442414130323
0,945672980241119
0,907003815734175
0,891508985748026
0,864826162477406
0,834465862421935
0,813496534166441
0,780143235770936
0,741811048191911
0,714736806123616
0,691926919626398
0,666543464402153
0,631212588498307
0,617257366162125
0,606221604359122
0,589076305170886
0,580993410722543
0,569303890603023
0,5690462848808
0,557307615936239
0,55193143125815
0,531362175056803
0,530831699232889
0,530995662058057
0,516729174062104
0,50892853922813
0,501656744114751
0,491840343743892
0,480502711537432
0,470677427987114
0,458960237973487
0,445911381138713
0,437356041232073
0,420553374739472
0,406504148860802
0,389587995534774
0,374673238731709
0,360901786850167
0,346002615183811
0,330301868627858
0,312371377278367
0,299755502975794
0,284307011157356
0,268807225933048
0,256513233974645
0,240551222395689
0,230460344284858
0,219500626385491
0,211545274377326
0,199610656182469
0,18740282274116
0,180475158079761
0,175953079790457
0,169785554547877
0,164760145612903
0,153424173081033
0,152132845892668
0,150179557643244
0,144404703834077
0,141215731995183
0,1427328467222
0,137124308747606
0,137202761592118
0,134343914711424
0,136009164830673
0,132860652826176
0,134329554965273
0,136055485244889
0,133223566398899
0,133902813231547
0,134922584515849
0,139477248331892
0,137469704871951
0,143855192976472
0,142121644255781
0,142114305126427
0,14106161123811
0,145588892377758
0,144463001582255
0,143019897020361
0,144936883034601
0,145309576483086
0,142414515611909
0,140034631386736
0,146665036176626
0,143083052197106
0,140587537214212
0,13913896632313
0,143226105481054
0,137682610135913
0,141249699453312
0,139165578662084
0,143319248271225
0,142830825234053
0,144605714652336
0,143331031199913
0,144779583571862
0,143134497244361
0,146881855094724
0,154513359017709
0,15461428513693
0,15180996610279
0,151519526450588
0,155991359281873
0,157250127346638
0,155673874898778
0,156255896262864
0,158942258383207
0,159069800735226
0,159288334383812
0,155595945240148
0,157588734214422
0,157836780500492
0,162716518877444
0,160269867608804
0,160416679144195
0,159004099415342
0,160104520270642
0,165278405688984
0,166306377747728
0,173466168253777
0,171266951389349
0,176061094934968
0,173113767715583
0,187992006989092
0,184493176057867
0,192376249337467
0,202467808340454
0,204046051064197
0,208205642394121
0,215323585608191
0,218303401734861
0,212221147193385
0,213527841030574
0,214504938394526
0,212087304498067
0,206715411645487
0,203377731933068
0,194526442986875
0,200016413763773
0,190258364687207
0,18867769738164
0,189664083358597
0,181596041443996
0,184852962255589
0,183826735995076
0,179994629883417
0,17378080317374
0,184660741524744
0,182844851432349
0,184277626891128
0,177576341806141
0,192676470188858
0,186588139281661
0,183288412684734
0,176764596725358
0,179744628669613
0,171575838459861
0,170627368613857
0,165962940516901
0,172811330354301
0,16223757307802
0,17023636206865
0,162644280215232
0,169141591642218
0,161278584967071
0,160348140990537
0,158401826629249
0,159534194818974
0,15507978933186
0,158502420226687
0,158647132218277
0,160470696553459
0,158646491315963
0,157273677926036
0,145295279510985
0,152313756661093
0,147573011603742
0,149921839671225
0,154086811828579
0,154481078150906
0,140156076493163
0,144042826463875
0,143083530627367
0,14835996736316
0,144445048386593
0,143653977441671
0,139579559893372
0,139544564020667
0,132264017175217
0,139842125580345
0,133735587566842
0,137847443436823
0,125118409483789
0,131278964611798
0,123430953284289
0,123775332958604
0,124628832174134
0,123400072151351
0,131970876781116
0,120683065526374
0,120648651404105
0,11407207060339
0,12564207391382
0,12327697196611
0,123380808183351
0,123157030590839
0,129530880826844
0,130075900319907
0,123315139766889
0,127511266449503
0,137744190275097
0,123963128737013
0,121865543816964
0,143580883026753
0,138375407365996
0,134131364549346
0,136994323594732
0,150779735965715
0,133725047886773
0,137644360348806
0,128193255985445
0,150145493386441
0,134181000107326
0,15301913098769
0,144496643217141
0,153672704066345
0,155459466839742
0,165466618790836
0,14589608182009
0,162564540248676
0,160114064122361
0,166974885719115
0,165521344967804
0,165604684908704
0,179118529084027
0,196583269389874
0,193069832895036
0,206968203793327
0,206242063807842
0,208001761430657
0,21469959486504
0,240509994137891
0,242700615883019
0,257683967383351
0,248337826702078
0,258256827452714
0,252212582694345
0,250110085770377
0,238446857894299
0,263426668752907
0,260725703465823
0,271069053719865
0,247387366266253
0,263324563277168
0,257138797931887
0,25797971860672
0,253784540789652
0,244895074987401
0,239403752837622
0,250236007540326
0,24684716008576
0,268479765079281
0,26600355917633
0,226597778136027
0,242253108174185
0,248869162548678
0,247231148206917
0,249547910526825
0,241433934212376
0,234384242948577
0,233148337394943
0,233721735515288
0,223062059929258
0,219370004701589
0,211653103994307
0,22598155811937
0,222911758838766
0,227515178240277
0,205274069317189
0,209938592450947
0,214396209327636
0,226370752580631
0,202821607735296
0,216418912388604
0,211866261105151
0,213407297125546
0,195345057499145
0,207842332921659
0,187874556712618
0,219216234556868
0,217547039011191
0,213952828459528
0,201525794956715
0,221444631481684
0,201829722089392
0,209602463570269
0,205849573508885
0,232691860536198
0,210194674303017
0,202010521328563
0,19519177311789
0,213007287962345
0,203091884745385
0,206228747210769
0,211023372903849
0,223652352088665
0,215627916387561
0,244772405360064
0,221251774441768
0,228811489011215
0,233127293571398
0,267612777455467
0,245199558633158
0,24117691854839
0,231190713994998
0,274790982222758
0,22504367021436
0,259451882644923
0,252738137877038
0,229984511624296
0,22527752236038
0,290086606464179
0,276097940934018
0,304681072239309
0,261750981150043
0,265859367652161
0,284973128329946
0,301524678351419
0,291699235530876
0,292879301978131
0,299913829696241
0,309727340073787
0,314432647702957
0,300849538241593
0,341527419708834
0,309222608561945
0,302272142050356
0,297556188678983
0,360507669674771
0,299645440865461
0,324520522037416
0,402624708691684
0,258954802736441
0,30796691822429
0,290206731958063
0,28304140374565
0,251613655319549
0,310032556697285
0,285686827680525
0,322921177037712
0,289702129475276
0,295152273229847
0,283719715771
0,31884833139206
0,263768569561927
0,35850393723786
0,277830559763872
0,296940172130234
0,208470996361231
0,30600012128541
0,297125269218309
0,301003380089441
0,389807916697914
0,346139366390216
0,219840077328762
0,259738373056123
0,273224318111502
0,306397299244728
0,278997431229889
0,237860470625268
0,252624384143543
0,372835463282686
0,38631128799869
0,0800770130855311
0,342498644529455
0,385289538586358
0,369807379116163
0,334870540185248
0,200049339398173
0,305252220586525
0,226307418148392
0,483429290267755
0,411909665574165
0,311563004379201
0,357632432145344
0,30299741490187
0,2707642668139
0,328140428114667
0,290674898630253
0,359171357401326
0,0539501202366289
0,236928849474293
0,28338300732658
