3596
4000,36533379555
650,420452594757
1
2
2
0,079748434195141
0,0881380691347698
0,0725880227638379
0,0833183066686116
0,068517118863164
0,0790446436833112
0,0716074507206631
0,0855472821313945
0,0715470575185203
0,0884799340320416
0,0630096606750187
0,0876487408636352
0,0702685543169334
0,0843031490132117
0,073935399151794
0,0828836783603924
0,0785954987090816
0,0850007076007858
0,0657760879827991
0,0770232192352782
0,0688505290555573
0,0767950060146453
0,0644147849888153
0,087279545852025
0,0719393814023823
0,0802118705968034
0,0741615457346608
0,0784414822728589
0,0622568043657077
0,0820166919279806
0,0630480483036982
0,089957983673248
0,0791122174432969
0,0933653793868658
0,0739983490712133
0,0825417714258896
0,0633347565012101
0,0919517226984588
0,0753481652633524
0,0956566484702834
0,0812782280787827
0,0831782258749466
0,0712511566484447
0,0872320591149154
0,0717430298586156
0,0853972122274695
0,0715304838154967
0,0869900124810736
0,0743104082438235
0,0870969323331799
0,0754228681919089
0,0763078453646619
0,0783887431838163
0,10510311660631
0,0779317112848258
0,0938220398178538
0,0799315064170708
0,0927930374146536
0,0752093820518058
0,0804563689620129
0,0842635966372844
0,092898256320472
0,0737841536537926
0,0735229589605983
0,0794885100847234
0,0851856551792077
0,0789773129514158
0,0796993714279185
0,0685251276093462
0,0811205299956721
0,0636733697416851
0,101911375363952
0,0856728244115304
0,0954620089972114
0,0847939201355145
0,0888227849098445
0,068240833452122
0,0758919627208358
0,0593186138968629
0,0901050624045079
0,0839206948632329
0,0861848679030071
0,0674956327226491
0,0749508819824878
0,0764788294761628
0,0995770512726198
0,056455729466414
0,0819079879153713
0,0840661427383769
0,0917910736335928
0,0627053263772916
0,0816304839126001
0,0635801947525056
0,0845431412340344
0,0650317253263356
0,086233389783148
0,0664144408819124
0,0736709850181727
0,0657333157393788
0,09225877518028
0,0786623223297413
0,133989345740047
0,0866635508601982
0,0936170506076878
0,118766981091362
0,0962782792790012
0,0735484404119674
0,118064260144658
0,087619168772356
0,0822368932643213
0,0712532511720281
0,0811771673301403
0,0714701402153589
0,08644942569721
0,0620056963029971
0,109170884359059
0,0989914422857172
0,091360542501281
0,068862024683792
0,0753676973787376
0,0503622301553534
0,13120489191464
0,102442109246729
0,0961487579248622
0,0721389676713319
0,0852511698409101
0,0687355048950834
0,135557281262191
0,094221714743305
0,086168379984915
0,0525440100589878
0,0802880446581899
0,0486209982017381
0,0838534489125062
0,0973197266194983
0,0975827530870822
0,0674479872164103
0,0850247771105984
0,0884943301512402
0,14553974298861
0,0903933360094157
0,0813663205167436
0,0507793340283399
0,0903655979524198
0,111165166305002
0,0986913517783865
0,0567673040198258
0,10641559224105
0,0740186265980691
0,0840585166054801
0,0538649030694202
0,0744478473195722
0,0870975067779815
0,0873857936572798
0,0343016340674571
0,157621620248283
0,110697564143153
0,171370082442124
0,106247967421295
0,0939239504372221
0,0765964227209598
0,0849738030275349
0,0632260972262555
0,0744007371130365
0,0705986988044184
0,0629805241976369
0,0916362829139231
0,109734502510795
0,0615446201310725
0,104661022428717
0,100910828120278
0,0937892392486934
0,0646252421831561
0,142317648174421
0,0791915706241465
0,0863876620381715
0,113948154090716
0,0940885088853876
0,0420462042836617
0,102460705390949
0,0861159595064853
0,0809324493003364
0,0715591006054914
0,0767730056335769
0,0650766620867186
0,099836588531174
0,0693338071697172
0,082737954870641
0,0684842013020263
0,0726590738532671
0,0888442524402246
0,154210634821703
0,0939119127408402
0,101029120547018
0,0668276553619841
0,0661109419131636
0,0946518043496546
0,109235963730696
0,0631960134676792
0,0807350244471824
0,054001668967122
0,0764634086127075
0,0579467574050374
0,083488814237114
0,0462171134004089
0,0703835808916312
0,119374622189219
0,0976724753915226
0,06749215863688
0,0758152325361301
0,0571590704668678
0,0699136652024556
0,128570512806823
0,124032959968074
0,0658788490870898
0,0795956082766715
0,0657286687804427
0,101363192815016
0,0716149828455014
0,0770961129224446
0,0636716652727988
0,0717865975466986
0,055652817671577
0,0704392155554282
0,0613870950700275
0,0766461871928734
0,0633923662943846
0,0745594798842834
0,0662310571048278
0,0814220237364435
0,0758775716649529
0,0800621642060644
0,0712780626116175
0,0744242375639012
0,0542856110773079
0,0905495707257026
0,0833812790771372
0,0830706505812462
0,0717223276750017
0,077787477156462
0,0606454397874049
0,0753918868703312
0,0661401658957514
0,0772838888983621
0,0530272601832755
0,0894537860981744
0,0965071135826038
0,0901436467186926
0,063860302123276
0,0666576925153569
0,0874553547162115
0,0919874634313725
0,0671809172006218
0,0739464092373744
0,0714464469344908
0,0632511276087099
0,0688987918906593
0,112623197754324
0,0697543416042709
0,0779496319911523
0,0823197210946453
0,0889680620158863
0,0716396053607923
0,0666739199804533
0,0574677994940469
0,156044879167897
0,0879175223526399
0,084081693825968
0,118785886477017
0,0938499577180649
0,0830989996842814
0,0736891621070411
0,0552404936684098
0,191291919557102
0,128079764688088
0,0810012078636567
0,0733497818035317
0,104176736968689
0,0625799574383714
0,0881098512944552
0,0711836992699917
0,114970286751926
0,097386323378699
0,153800783792041
0,133935218152559
0,0746311346912633
0,104829069737262
0,10023460877626
0,0770264352121096
0,0791755631486427
0,0574568327221173
0,0760336680511604
0,0891283930309914
0,0998989225023836
0,0909880146674966
0,0820652802245891
0,0708076538838551
0,114862570874623
0,0811658419361621
0,0755349128845879
0,0740745184949669
0,0950874153976428
0,0686208641479679
0,0765193320782804
0,0682497037282466
0,0922214237364817
0,0563422998777791
0,0822544296414945
0,128367739692912
0,101923590906552
0,0881031453835618
0,129551493992869
0,0759643283213631
0,083319531646037
0,0678689455784693
0,0734456536281098
0,0614928789288003
0,0722256591778081
0,0676071443743223
0,116504984060782
0,0765911613085187
0,0808614162739622
0,075005799738723
0,0723333539201136
0,0762673976603624
0,088553853756188
0,0716574720500816
0,0840607291129884
0,0783621538411512
0,0732897485123079
0,0969312458668767
0,126488396637243
0,0623932307036606
0,141550262437458
0,11359858682478
0,0949621319910551
0,0696339736576714
0,0837614924478636
0,0750617100140315
0,082028133889365
0,0787219654945566
0,0832534440139105
0,0819471726227668
0,108358563571974
0,0887080884362681
0,0988118111529276
0,0809209244200552
0,190426229636863
0,149346797500544
0,120373242304232
0,0898948036880008
0,0816565677792451
0,118127537650902
0,130686413318252
0,116398982565268
0,140444289110655
0,0974710163384301
0,106408200788031
0,086411326567647
0,107886123008593
0,0890837462853249
0,102523112214956
0,0885564305836022
0,108819732609026
0,0901194475529209
0,116075463331118
0,0858274988641092
0,121981952514845
0,145789888277669
0,124706403551551
0,105421933622233
0,121973590988238
0,1032419212378
0,159864398492248
0,141341063967425
0,204638385166446
0,128818880837216
0,165145778373656
0,175571171291706
0,139828661314695
0,123665773421244
0,132143030503502
0,122346895015012
0,142030707657245
0,127399296785453
0,140175559046584
0,1278106147369
0,145775003543405
0,131612183199679
0,143603666761256
0,124021965802178
0,152814406856876
0,155347936464269
0,159115974634199
0,145790495252853
0,139105701895553
0,146719482732802
0,242436599965207
0,194942149171885
0,171258794346469
0,160042439626688
0,170958361257817
0,154584805720114
0,170129409062242
0,151380127779406
0,184104858025536
0,168295292454738
0,230424731174855
0,194790440068662
0,224183814996471
0,195685411920061
0,184194820071329
0,20140691043789
0,192574605161693
0,199803272326808
0,232081158588516
0,180898793056191
0,199557478360472
0,212963720586716
0,221789850347277
0,204850317976106
0,241811917025449
0,198243010816606
0,207334272436093
0,197174600794275
0,223350950006835
0,199937204414899
0,236258370221293
0,216756531579255
0,230509340309527
0,214042127402013
0,237489884632619
0,211155591743952
0,257271913338563
0,21455398425979
0,246571824494918
0,235601010632152
0,243767593349298
0,240644066347974
0,250344553608437
0,260765164335342
0,287379885445694
0,267813820413554
0,28575449685787
0,244863622774661
0,273976385983947
0,246913535372731
0,274762700105444
0,243661974093159
0,304883332509808
0,25164536849081
0,277004119721778
0,264841881328378
0,294432905169414
0,260457498903706
0,290603469057233
0,290298912846228
0,297131847187524
0,283681482596949
0,297447474250182
0,296835484658639
0,311260983351475
0,330101412247263
0,35419985138899
0,348275095174221
0,374161704153367
0,302054551174592
0,331729364115781
0,316535803069143
0,31880429648866
0,299284155221513
0,356810606277952
0,331441112898909
0,351212061671589
0,326497619132803
0,346743239354991
0,332375774316833
0,363597587388354
0,364933469286401
0,385540203838762
0,356926171092655
0,390983704825387
0,354280773099914
0,372199351918498
0,363071348120173
0,395702150831159
0,365279560473967
0,406007581536401
0,39028737668223
0,396411804275808
0,391155667236178
0,403097845382707
0,380167092667392
0,429843872949965
0,399668544921444
0,42627009262579
0,40503387604697
0,457565965984231
0,408680891708683
0,427813776347036
0,405241636137871
0,435620561139897
0,424202178365469
0,467560451093162
0,414391544737722
0,4660165222879
0,427648756249213
0,480423114318946
0,4554759354803
0,479317221348378
0,458308668573958
0,497503680340954
0,451540039072599
0,478410184215521
0,464238942324625
0,493574562214078
0,46330670546006
0,497925994635704
0,449900297225831
0,521011213795167
0,473006749852999
0,513055035399255
0,499453284216781
0,540611439725004
0,511519524108375
0,571531483144704
0,521008307682102
0,529881402829998
0,48665855162735
0,531371545561194
0,506660054261417
0,559434411531036
0,512855506301972
0,601109317448866
0,549823630315936
0,561258294407873
0,544988603937912
0,572272524487534
0,555340124293477
0,613566510351859
0,538082699191923
0,601319104399533
0,567843019464191
0,608391610174866
0,577357652198922
0,596411263771745
0,58368677875474
0,61977271350489
0,588752735473825
0,619704241984786
0,608556045283415
0,63837141721123
0,584949028252425
0,621115677912997
0,632030377998901
0,618113666251301
0,626360941243819
0,650037048348899
0,613547461528131
0,670359983194308
0,644871475675817
0,665479788670615
0,624044242571625
0,659518276904165
0,647049036198555
0,668076082806254
0,652243200088701
0,653873154092834
0,663680470649822
0,718313570918501
0,671207780757744
0,726654273162728
0,674789157040948
0,71988132906928
0,690391501285127
0,713742709654362
0,691635023986842
0,700946397969576
0,738674412814317
0,745903109085789
0,69326179246374
0,760447468722689
0,738375162140243
0,740881351184377
0,734543491021823
0,762163387585773
0,744274688629381
0,761388395176507
0,712061621148941
0,766516397834203
0,755397378175828
0,776847143423233
0,741439965546926
0,818836867265014
0,742132072042568
0,778954145604398
0,740704815040377
0,81450032045044
0,760921022503393
0,829086733244477
0,754365062359394
0,822384655312614
0,784667099765916
0,850030303407735
0,789079504562525
0,791424329739603
0,773618514691947
0,804201147881163
0,789528525503487
0,821469997325166
0,767034027848091
0,812374937104912
0,82049870026065
0,853704822425813
0,82943013452048
0,870414496246161
0,848746866012429
0,884740332244324
0,883188343022467
0,851120283688111
0,838515321855653
0,877166890651565
0,836571448774618
0,865381593787357
0,865180081279684
0,904538991385232
0,874079215448059
0,885373012791811
0,836274357905028
0,898017047593243
0,834450663932511
0,909380158910389
0,854144569025477
0,906375794467664
0,858327872418286
0,913362131540183
0,838308506216238
0,930260819676084
0,893008923075302
0,902896392034849
0,878004998388427
0,947872314455004
0,836533881765721
0,899200084859294
0,945080316132178
0,988458045017805
0,960081559971817
0,986014057604119
0,914878699099613
0,954233005438849
0,931794351073084
0,991430489122879
0,884381698365001
0,949881896908847
0,932501631366698
0,967909409544915
0,970958753135867
0,965348103769816
0,902642907206664
0,955232336216586
1,00411793489647
1,00348514402213
0,910910207432946
1,02127930917583
0,938127342321383
0,994287457233898
0,979328077954794
0,952578250997564
0,902083105471863
1,10323051803719
0,99241754423536
0,995065443841243
0,958135401327681
0,98625269511599
0,932080699910535
0,998555241916996
0,953263045574299
0,988414909753149
0,998685246856206
1,01989738590083
0,925209151848325
1,01730384568659
1,02845208609913
1,02119585835684
0,971384178173772
1,07037755888025
0,988296034464121
1,03118822369474
1,01093488905759
1,04760174412302
0,987283598655553
1,0592811605119
0,955622702566405
0,995519016456403
1,00106385198582
1,03201390624185
0,998950262516461
1,0296109988498
1,01409233313693
1,06019353370067
0,995674881781652
1,00511314689827
0,996855140371472
0,986796168003023
0,986374597787439
1,09318533715396
1,04433475635264
0,99060803576556
1,00116110384326
1,09221952787778
1,00318317456332
1,04196223515219
1,04660466690279
1,05774469667836
0,971065693262535
1,04079133404491
0,998962403097787
1,07475905308646
1,01248841868441
1,02674345378383
1,07441718258169
1,03518836488191
0,968085530889924
1,0531247128176
1,04229070950372
1,03570000047942
1,01083910186029
1,00653785102562
0,998903988201665
1,1075111270967
1,04541170695668
1,06872626297729
1,06817553493918
1,08215240832063
0,999701071466091
1,03325007099778
1,00054530665301
1,0587679935478
1,00629197039626
1,06509699659067
1,04922007376634
1,00097453736224
0,994379664198629
1,058678546967
0,979923195495793
1,04950607696457
1,03981617670298
1,00310619474021
1,03660936377166
1,13852754248811
1,01881832207149
1,02362285008167
1,1197000369857
1,09275217673831
1,05520136818671
1,05131960380866
1,03154968516085
1,05610034466031
1,00879037490035
1,06080573849785
0,992121921954046
1,04059909285365
1,08329693033392
1,03608886010732
1,00428963457548
1,03656634081996
1,01421826233281
1,02943957028717
1,06317252275345
1,08459950727178
1,0294914960424
1,06840651616862
1,06756130855314
1,02205528770148
0,990175812730762
1,04582824923603
1,05722402707621
1,08468328715029
1,04855027611045
1,05422879631983
1,06113268291552
1,01616976909005
0,988527383994016
0,999187451630263
0,965789842524512
1,01414686772309
0,999110757252041
1,03512379587984
1,02403098799142
1,06524865817634
1,02919790322014
1,00676222263533
1,03087942471429
1,03079059724467
0,992955587560044
0,993877803983667
1,04297710691254
1,04975085497748
0,936429395197298
0,97929756973861
0,98550631550502
1,0013445831056
0,988767933120948
1,06334662798443
1,02582871689084
0,98993282469824
1,02518676826032
1,00634162792018
0,973164711984247
1,05028697778241
0,995930325333249
1,01892869269187
0,989082931846244
1,01378840523318
1,04169697857771
0,99894561499511
0,929372335379977
1,01017087919859
1,02555613533457
0,999592692762473
0,909745187909252
0,945504613746967
0,992311558191345
1,00136839838194
0,957985556547698
0,930084490590335
0,984406325138529
0,986804147112786
0,929692037659276
0,954967293053256
0,935353021336743
0,976400872787723
0,951746540730064
0,94943387852062
0,923983299992965
0,937790720517348
0,911834800785939
0,953190976919573
0,931963504412229
0,917359367351486
0,937347825905869
0,943181636935953
0,916305707218077
0,945949473155601
0,926920378395038
0,951066200860061
0,919160047016383
0,903149803615699
0,914128683674877
0,926914509337033
0,915527951309466
0,916333303402753
0,899600950204353
0,908452701279127
0,891698663771345
0,908387881508998
0,924375464376917
0,932256937134847
0,882866200502367
0,876543290018933
0,879778250143285
0,887335493603913
0,872168356338041
0,869693164288131
0,868028873646201
0,866937159967748
0,841594533491564
0,867019464432877
0,865809970236012
0,860091785483967
0,84679433645838
0,85435660649525
0,823959661014074
0,86619603069126
0,843848366737136
0,82817980999284
0,830085553430653
0,859752122274846
0,840555907272618
0,822054468638849
0,82560767263346
0,825009185886436
0,805827414042099
0,820010872483764
0,811095743714438
0,794409784687892
0,788397171079526
0,817611869301983
0,785681411167735
0,796417703878452
0,76951839845518
0,795640667649324
0,80329212898725
0,793991663483683
0,77136942707811
0,79329292231629
0,753196492001823
0,75079577541003
0,768861508785814
0,757969858950266
0,749333794688194
0,756643961780801
0,747111595140385
0,767561674537188
0,737398633443536
0,719857928935326
0,73248830758919
0,727580415323469
0,728955524723254
0,729462521647794
0,714469830011298
0,727598148940415
0,711566944711096
0,717865930756737
0,707376836525635
0,708028509098481
0,717465487297879
0,720438266022199
0,700814698544227
0,688891679522916
0,68323208518652
0,695719549689543
0,672337019098339
0,681764765695428
0,68122879671034
0,678641937950681
0,675487394044216
0,680745912978367
0,665285289650521
0,678952090906171
0,667601157350655
0,65552236888192
0,638360201494875
0,640370777831981
0,641294240473758
0,641287132510204
0,642396856854489
0,645329084449287
0,62565949568178
0,631126718574833
0,643059305385779
0,63070661437812
0,613378463165904
0,619696333289088
0,619803785816441
0,62417191336652
0,597147417817872
0,601974799204376
0,596202941020139
0,601072397471983
0,606928907727181
0,606212049956297
0,590639968125546
0,586809142807569
0,588440901052559
0,595865461196058
0,578912292404043
0,59381155703281
0,582286828482175
0,579605614902146
0,571057497275541
0,568500926609134
0,5694576546504
0,571623954620745
0,564961402539236
0,562200095361795
0,567202372621456
0,562214750175077
0,54624172092901
0,561222283303736
0,552606049808899
0,555684494061662
0,544173430580204
0,53537163643685
0,522238700257131
0,522822468697149
0,522046283498544
0,528901679960755
0,526274671166495
0,5221904456415
0,519499735526806
0,515888682967925
0,506820029418246
0,506395660032214
0,50423518998544
0,524704558475128
0,504963633054845
0,499304123003968
0,504902287681546
0,504305616068557
0,487675855193112
0,49648453752514
0,490597858014062
0,497977316760028
0,485667190491865
0,486242275666786
0,476332867354506
0,475446121251364
0,472895481787341
0,472111843843628
0,46761345497027
0,473428977236218
0,470597110895238
0,471037565960069
0,45974132372533
0,456210673127586
0,457481673218103
0,455797047606025
0,450498058338681
0,454205906707007
0,454427340106005
0,453015328114803
0,449771160915319
0,45192578785797
0,446409758407889
0,444028813561102
0,439460436281529
0,439710217257642
0,436254137055919
0,433366263505818
0,42202030138885
0,428288041694853
0,429370680440195
0,432244731326391
0,420238671189725
0,421492940233988
0,424698623585386
0,417127065416342
0,409071942948502
0,41848062011403
0,418879740510286
0,411540212710241
0,414716838118385
0,41143859613555
0,402474259523754
0,403740824519214
0,401631502915808
0,401385544964461
0,398105439744243
0,399068445771492
0,400867497047878
0,399715241011165
0,391815856589514
0,392225721253449
0,387226097226135
0,383000896959319
0,387140982189125
0,386460521320263
0,383536592999973
0,392814013890119
0,380507526880091
0,372501741408382
0,378984520898785
0,382599525622785
0,372702861542019
0,373843263330913
0,37127475900929
0,372390754265002
0,371297101942555
0,369898966523172
0,362059891995808
0,370363516431018
0,372732603775227
0,368245569778853
0,366124132548406
0,368027518242463
0,360829517917907
0,362254889788624
0,368788517589024
0,362183500081833
0,361541219826896
0,364743259164556
0,359955617488084
0,362978895448468
0,357407198648377
0,357236432305891
0,352093589614389
0,357841273905612
0,353949528475399
0,357770951761886
0,351261755806086
0,350925013557451
0,357391546967815
0,36018494127017
0,357644391183598
0,356756249256104
0,355783880819722
0,359526687200121
0,359960209477255
0,366776527491657
0,355884006880175
0,360154490618426
0,364847460451613
0,369780026033036
0,36145496694893
0,369081007063902
0,369505865079995
0,368736035211114
0,366354012568787
0,369460096494601
0,368867569744113
0,369295607160796
0,372643053495737
0,372962114716232
0,376734993405999
0,375604353817789
0,375245868506469
0,379151902738366
0,373822172941872
0,379423498858779
0,383622305607775
0,379694600416285
0,388680313395738
0,392253306293326
0,385972475279403
0,392295446764107
0,394692925687257
0,397293635678783
0,392678887040956
0,400004120517996
0,400932709990594
0,39366780001842
0,39741828894655
0,410877916988854
0,409911522389635
0,410861695446826
0,419368950743484
0,418956040879997
0,419918004849631
0,421062440272273
0,41928930548333
0,42728267416372
0,426611189200272
0,430503053477144
0,43007323169529
0,44020552204027
0,449367294294648
0,439702134420768
0,448541329785487
0,456238693192337
0,455502019107847
0,454431878793697
0,459698378522274
0,455916925138216
0,464254919251021
0,472797103196783
0,464325364331123
0,471369662706791
0,475603192509772
0,477952165425297
0,471030591819745
0,466200339594335
0,468625010506211
0,466795682192096
0,471826599928635
0,474563267623963
0,47982763782982
0,472594882737113
0,461145583956734
0,455926232092871
0,468350394406968
0,474968331546108
0,47157903382911
0,468292271005012
0,464402316731086
0,467321483601073
0,463888727555964
0,464041823877072
0,467903060414429
0,474277588230643
0,467973383019811
0,461825329918458
0,474240082715022
0,469302440627479
0,47069581572553
0,460995734106493
0,471875270686817
0,467773963307118
0,454278269847892
0,465730890810623
0,466219569650628
0,469416965960338
0,466061617725314
0,468951306012858
0,45335408372512
0,464926727012837
0,478258076597313
0,461939568247701
0,463035299760488
0,465452541809021
0,467570756717325
0,466029995379323
0,469101351849677
0,475908395484362
0,468594086746649
0,462566850843574
0,465566301490427
0,465909748824909
0,46066088296513
0,457229456044187
0,454810093664816
0,454272017082154
0,457741565358822
0,452716959970005
0,466234941384864
0,464145990433343
0,454576618427845
0,450162582405555
0,451362185802217
0,448911558348532
0,451379266209907
0,446869731666664
0,439554539697936
0,442277869043582
0,431228768352354
0,430171840087589
0,430702035722456
0,430097169427836
0,431400881725909
0,423390125965956
0,42769740000014
0,419724795778619
0,415106941838857
0,416520966242529
0,411286746448279
0,419203453301077
0,418483460481086
0,401653219375191
0,405971141817918
0,402549653720139
0,40330582438811
0,39321425559649
0,398491573385593
0,395468447007208
0,390419135436533
0,380397475660746
0,394822608453367
0,383767156956358
0,380611716710064
0,38002756346076
0,373446856522388
0,376009741563572
0,369100650825126
0,374516682992907
0,370007365081296
0,364778756583836
0,362810047583447
0,366243944894395
0,363290368215448
0,363582742989634
0,360284941936118
0,349566269621011
0,353524112189716
0,355867267224211
0,350548614522202
0,347235264538735
0,354428836908591
0,349080665632752
0,343801811440693
0,355357593120326
0,348784635505824
0,342354638314107
0,344999409017517
0,337664780222388
0,339225876758147
0,332669224412327
0,334455019523422
0,333610760395126
0,333970335446089
0,326932297482377
0,335469488298812
0,329498308503197
0,33119371342835
0,333816574773722
0,32772739575851
0,321961539037053
0,326940491128639
0,323888773388927
0,324824243756686
0,319884422319497
0,321913160050447
0,317499364719133
0,319252323733718
0,311031985135388
0,317082169622777
0,317030902478281
0,30943299795481
0,311714517514622
0,312947537589758
0,307994853861304
0,309492556095058
0,31150197740715
0,311234123482896
0,305759629419872
0,297976102053636
0,30231471080951
0,308843531512533
0,29812033239599
0,303897851487861
0,296020200522457
0,30067037287487
0,299277240873912
0,295326816650843
0,295049868417791
0,304942793991579
0,298546547088482
0,29710119731874
0,297473915194033
0,292511106807896
0,2915614300341
0,299831982525857
0,295148281796556
0,289903547925643
0,292772198841511
0,296213578055111
0,292191534270997
0,292282869253489
0,283379612490772
0,289297708759889
0,288651411203805
0,288456448575916
0,289924658997605
0,28612650869204
0,287323373202827
0,286820820285806
0,286922074810927
0,289069510433445
0,283614022182657
0,28366048211509
0,287136138950685
0,28916745798009
0,281027780230861
0,280880076287904
0,280626138207045
0,2846674733158
0,272539539349247
0,279463268315559
0,277099982268348
0,275667680748345
0,281328524404883
0,273584840763787
0,274735288190262
0,274019222193176
0,274277046647306
0,2757852889808
0,272550154162449
0,275255694773823
0,273167106187466
0,266596008393123
0,269939876005081
0,273838697087276
0,272051760022789
0,26887790798799
0,270884556147591
0,265380759249212
0,267533448605238
0,269555772650286
0,268356155787606
0,27341848537816
0,264584279163914
0,267792186695298
0,267654503774179
0,267827167530222
0,263941711227992
0,267326798561803
0,271710792566323
0,270878910124634
0,264182475385492
0,264472234666857
0,268676171295089
0,26426881773781
0,26714921616107
0,265687108599324
0,26101858107717
0,261501007646538
0,261700478224254
0,266745747261879
0,257417365047706
0,256831433625087
0,259594088245304
0,255985743873097
0,257188115278936
0,262791313903397
0,259139442443951
0,257352036040787
0,257351610360881
0,25525222858198
0,260594605689272
0,258767040075461
0,258539303361758
0,255520084383036
0,253929368558494
0,249535874573128
0,252439386214117
0,249357559099837
0,252837900198789
0,252154227687425
0,25490326377672
0,246588790614509
0,249203072632015
0,251578177704137
0,242981086278888
0,249333247411297
0,245099336167317
0,248311150720681
0,248147285351352
0,245926666125792
0,243118685053822
0,246269492217093
0,241237145178806
0,244147719020459
0,243749306226539
0,247442908141957
0,240934408307187
0,242195692732562
0,237186531887444
0,237498338716236
0,240492465130323
0,234777254479426
0,240008451582855
0,238718059960446
0,2386992360678
0,234612555252936
0,230525557084901
0,235921963008621
0,230889331353989
0,23667038292722
0,230782801976366
0,233418183815689
0,232830988493512
0,237629517876814
0,234267933010043
0,226407461417642
0,232120638150033
0,232207787508562
0,225700225359205
0,229865714392544
0,227301390840804
0,236865561802081
0,226293875285974
0,22378127295368
0,225910311901845
0,229223205755344
0,220405861043184
0,222287071299439
0,22313906921991
0,215394694967727
0,221721694290014
0,224361831318956
0,217504527340195
0,219000703567326
0,217236511648554
0,219104694269184
0,21626763445922
0,216046864172951
0,215474211654921
0,215116132761972
0,212585508325431
0,213984316819678
0,208548735475898
0,21443263215736
0,205509523502308
0,208864899486386
0,205451750928927
0,202080333892732
0,208390144989782
0,206689992794136
0,205858450579457
0,206076799807846
0,201287475511188
0,198862820412558
0,200007353181306
0,202688266443524
0,195553782388864
0,201367844782347
0,198999316111876
0,198613493462374
0,198148938088332
0,196080517957697
0,192413245079774
0,195008822094548
0,194869151997812
0,194737448498668
0,190961411848886
0,191633453751026
0,187585948901864
0,192729278951402
0,186972026151163
0,190864551252652
0,193346786490978
0,190564599218819
0,191701644942984
0,193535610712519
0,18942750777088
0,187746950661854
0,185367942749846
0,186880364578393
0,187868582189966
0,187508182508429
0,184326475634017
0,187513983738527
0,182539696184919
0,183337327276481
0,18115209688189
0,181608379029124
0,184730837566621
0,179830034210923
0,17827908293546
0,177986890956315
0,179711082100948
0,17894928516136
0,177246865819413
0,180040497112159
0,172484656542577
0,174128178456377
0,172789704987863
0,177829491108821
0,177993113865223
0,175344994591198
0,172082694343867
0,17421432283171
0,171559316806006
0,170612149620013
0,171277193735226
0,170418754555443
0,175402413880119
0,168780812447489
0,16945464884401
0,169667516507961
0,167735520725148
0,166624126657057
0,169857421269084
0,168241810307627
0,164280063726011
0,162258393556013
0,166918843106671
0,16868679803953
0,162674317618297
0,169522192865007
0,166332577470688
0,165964026950884
0,164511771270067
0,163081837272686
0,164381057620081
0,163569403812922
0,164066199676097
0,162832970948356
0,161093318393505
0,163588327046373
0,162478288354156
0,163260908404455
0,163068059131189
0,162067695695115
0,15873114447959
0,163106155315778
0,158840359084594
0,160978090260465
0,160378900965643
0,164031041556033
0,157355265291562
0,158389105179362
0,157224967260137
0,160637032288214
0,15505358648897
0,156012727529569
0,155525489422906
0,158478552828053
0,156046728847371
0,156262521633206
0,1576158907706
0,155554372370046
0,156904776977463
0,155609967940135
0,150002359814778
0,152545748112368
0,152000766936994
0,151984157590031
0,153499592146099
0,150142049785606
0,151810724247176
0,14746177194041
0,152713240431452
0,146351190732802
0,147985950230628
0,151614899128121
0,149313633542331
0,145480946104034
0,151344374175783
0,150049833966484
0,147938364165177
0,145495453294493
0,146339250594817
0,147416776847581
0,147089956926183
0,142628538247631
0,146768491170887
0,143474026994406
0,143883779923498
0,145532529127859
0,145835639685064
0,144959818024493
0,146363802599307
0,144156769574585
0,142672674239064
0,142759800604081
0,142528986440735
0,14281317505422
0,141076992730518
0,144016537931302
0,142719642583682
0,142611485129219
0,139772792135203
0,145077993240759
0,140672340571543
0,139250646256993
0,142898390593758
0,140723673529529
0,139262957813721
0,141004915962983
0,142707432808147
0,136046084818542
0,137213017902939
0,139366950622927
0,139566013111588
0,137844431301587
0,133437053239898
0,134938764877637
0,139135123860244
0,135467651321855
0,135064094205718
0,134459267415589
0,132200325586823
0,131128561196792
0,135086540210899
0,135626090140161
0,132595324990485
0,131465965079112
0,131108874434881
0,129454679194063
0,130222734550814
0,129691550780314
0,130367230947084
0,127950423971513
0,131399276015854
0,125223026746888
0,1289885222996
0,122507178959245
0,125852145174521
0,125031759849682
0,125695561162767
0,124219178865908
0,123193692955576
0,120602481177458
0,12225553757384
0,122575027419975
0,120076424495936
0,1190062317174
0,125348537695098
0,120900391406784
0,120337430819362
0,124739912304549
0,118283778603422
0,118146848455345
0,116471947431231
0,116628968138682
0,11949355194055
0,116649216106375
0,115569674630135
0,115847985661143
0,115897272944205
0,118280751546418
0,113856690441121
0,117871151177691
0,115052069206702
0,115160025031423
0,113620612792954
0,111477742019463
0,114031201154564
0,111724403100332
0,113381974259409
0,11077635004689
0,109038037592669
0,11164365224594
0,109620108557153
0,10847212394972
0,107987786301345
0,109497782777036
0,110393096345781
0,109936052417434
0,108536725379779
0,107836533190456
0,105020160266722
0,107233931691643
0,108690278162557
0,106149568386697
0,10711862220131
0,104141897412292
0,105429911878427
0,104166110304745
0,103560132556992
0,102497978359681
0,104498725802494
0,101475175997143
0,101560395915745
0,099254918932765
0,100486764787726
0,102280118005659
0,1029699337514
0,098249879626696
0,0974134110011337
0,100560783856658
0,0981849297215684
0,100206104519643
0,0999294278385472
0,097310816703665
0,0981676606272323
0,0980254209351205
0,095174492942761
0,0946907014766085
0,0981905870600093
0,0960625481036146
0,0975726254432129
0,0965082827111398
0,095228626774284
0,0932297432458543
0,0930311786600143
0,0926513456285324
0,0945513667409301
0,0948032127249231
0,0932315107974792
0,0925242456027782
0,0958132306383611
0,0915703584837245
0,0903066489424989
0,0981297623051686
0,0962187016719926
0,0938664301461894
0,101177399156483
0,0942868356710293
0,0938175503706583
0,0951662195621724
0,10005378884445
0,0969698974437139
0,0989126544651019
0,098788804639089
0,0947492931967484
0,0953029930760466
0,100340776912767
0,0938337841692148
0,0910051498680877
0,081821360703161
0,082077731585979
0,081999648663308
0,0916902414690809
0,08809592990347
0,0873778358432101
0,0799027522247173
0,0869038805333241
0,0779969829682526
0,0825351315957833
0,0809744382281558
0,0842991662834183
0,0851611155652405
0,0839701447372558
0,0820047620078436
0,0861590992214316
0,0833299407974724
0,0948932104892752
0,0787482906557089
0,0886283870151731
0,0888355761769606
0,0901967159279155
0,0801858564560818
0,0917401538454227
0,0790565274519703
0,0852018044925244
0,0771925437885285
0,0858530083979704
0,0722312912499621
0,0860492659584759
0,077902884368626
0,0869009774737942
0,079401860123848
0,0917599264825161
0,0802899434794516
0,0904577297353885
0,0802759544226784
0,0831864046132932
0,0746315160136365
0,0762084979495151
0,078869467417706
0,0878943775944664
0,0816605467373892
0,0836420775151997
0,0805738529588986
0,0806884733115134
0,0920070907090739
0,0880554369342484
0,0845077000729169
0,0745880471929367
0,0902162742965845
0,0873487767930928
0,0853260884169302
0,0682005145586592
0,0973423560219408
0,0789039559667389
0,0963752879380094
0,0727153594607578
0,0963371645591387
0,0769002829581573
0,0913127929822204
0,0759972725191217
0,0850332329262364
0,0819142128158872
0,0829184423430428
0,0836022047871442
0,0792819211713854
0,0859269782620267
0,0787271164273979
0,0837700174172032
0,08004823416131
0,0830114417997158
0,0834379281477543
0,0796959601099315
0,0827017990601329
0,0763754534385073
0,0823248937522269
0,0790421895857215
0,0786480344996109
0,0796424758020681
0,0787666512468567
0,0752193008367964
0,0769354166158622
0,0773812819487454
0,0782953973531855
0,0767881679972047
0,0814711287077212
0,0755383730780727
0,0757122754696258
0,0763534067775813
0,0759654098640258
0,0774524496270601
0,0791043822912311
0,0757484876157681
0,074777273621224
0,0733756696166013
0,0774741025015642
0,0761304401699508
0,0771738669932912
0,0772521572256956
0,0775426202025553
0,0782318685802219
0,0770227009318238
0,0785773588226324
0,077994536735665
0,0764358662205954
0,0791774688648818
0,077908142636871
0,0773622139835213
0,0748187873656325
0,0770545845356245
0,0771899184972759
0,0791875787761765
0,0751708602748484
0,0750567666984508
0,0763544465102226
0,0759297201862723
0,0795752667974414
0,0789276176831223
0,078322212255311
0,0780470041418088
0,0776584049189925
0,0780931362916143
0,076823400720675
0,0776927487848816
0,0768505806522757
0,0761570543237555
0,0759921831343059
0,0768715394724803
0,0780948344974368
0,0766522280624802
0,0746422133865204
0,0759750146969117
0,0786957269864597
0,0775155226178952
0,0752976876382303
0,0773660519229267
0,0766509165635735
0,0782511686764886
0,0754331868878296
0,0745443682548115
0,0766727313309392
0,0759849610233516
0,0759145994687249
0,0762388810514581
0,0779143572675236
0,0767027961620339
0,0756248881556224
0,0743323564893282
0,0776740670398139
0,0772035536648177
0,0779881727913896
0,0776007056965809
0,0770921957419278
0,0776193917622302
0,0751147451279264
0,0768029858248128
0,0770657798199441
0,0746421822628952
0,0785346276098533
0,0784305632699705
0,0791971044155332
0,0775452475539396
0,0794022216624148
0,0783300933359923
0,0779099611379306
0,079401429808349
0,0806174113066376
0,0794340274146427
0,0802718082487867
0,0809347261095556
0,0796864253379388
0,0788647466851006
0,0788053543642951
0,080127960953934
0,0789730240137297
0,0789204849316443
0,0823221070292076
0,0763467221385719
0,0789018601971151
0,0822055973941994
0,0776462153973769
0,079010607175434
0,0794955955887082
0,0786020071318465
0,0811790775748717
0,078772985274813
0,0799682288084445
0,0765125964103296
0,079600595183962
0,080974270262625
0,0826936354310851
0,0838675589952057
0,0808164406808978
0,0790886524683718
0,0827102658129351
0,0813771616611691
0,0778952960289218
0,0826005434499471
0,0834466275695805
0,0815133315940282
0,0781740969680273
0,0787957058636108
0,078868230452552
0,0821281459795562
0,0825199071838734
0,0829570746780281
0,0772996387038025
0,0805108441816155
0,0841342905954056
0,0818000742919995
0,0813092857988142
0,0828001415807254
0,0836421913513597
0,0805789396844852
0,082382642217334
0,0830822043594139
0,0840900916294684
0,0801969812164574
0,0824946869069007
0,0825781846717328
0,0844068694776089
0,0849781815764278
0,0837924329239849
0,0827006839911736
0,087600419045393
0,0845166264976128
0,0854433124308413
0,085081575446576
0,0858573489474521
0,0833801417674905
0,0818120667565366
0,0847496730062585
0,0843940882655281
0,0841517027150163
0,0865333955761178
0,0841656351874324
0,0851862602142619
0,0814032585815117
0,0826389442930181
0,0830938075509948
0,0826956629402981
0,0833810744488299
0,0818855401368536
0,0820012022654589
0,0840124512340781
0,081684729659096
0,0829694198460392
0,0820227775800459
0,0814992538480105
0,084088003453872
0,0829938983039587
0,0823971115663503
0,0833132870768491
0,0814542443050037
0,0811067132264852
0,0798676838980741
0,0830707210743548
0,0826064449877323
0,0825574851311423
0,0818935015362732
0,0826565938004591
0,077734818905931
0,0798000920537695
0,0814493987185765
0,081846637867408
0,0792046541540012
0,0788848804518322
0,0800287846308284
0,0807403074688756
0,0804817761063175
0,0832631397565138
0,0787508997387775
0,08067717067141
0,0791890817217699
0,080131387050584
0,0770508359361893
0,077556523438929
0,076744653437987
0,079518374044121
0,0781999882051008
0,079226651391218
0,0797680925991733
0,0811464982217489
0,0776120915809771
0,0774606576781966
0,0781010518832555
0,0781579951530404
0,0780644017073463
0,0804106587451182
0,0780858011150029
0,0796093522642527
0,0736865897769409
0,0786067711825637
0,0804047862957725
0,0795141719207681
0,0779679721709012
0,0751978331872405
0,076341678051292
0,0803089960254189
0,0799492583468995
0,0777486755962162
0,077194781212458
0,0759952374898046
0,075329250514873
0,0780793625203166
0,0769413125950918
0,0803867677427323
0,0748522404224267
0,0755283610972089
0,0762973083231566
0,0793958786572995
0,0759256124372106
0,0763527730767347
0,0755004590733484
0,0766779122146624
0,0794670090958897
0,0763445812958058
0,0743875242587942
0,0756062322194998
0,0768820921347154
0,0795629381622204
0,0746177794169126
0,0746140330739068
0,0725269718809118
0,0746870713902243
0,0794686960298503
0,0791968993272179
0,0759800623851142
0,074256796386524
0,0766438646012264
0,0775231997661465
0,0750950484662125
0,0737086050160012
0,0730254100674296
0,0745605993583301
0,0748970983681121
0,0734025811407355
0,0750681820621798
0,0740705412547488
0,0746617214170409
0,075516803563009
0,0762204706365353
0,0777783929340091
0,0736652700561401
0,076096498915974
0,0733521031682051
0,0784074179143853
0,0747905552194757
0,0752173452901134
0,0733853446083876
0,0754677220218154
0,07400258949647
0,0736965581441376
0,0716242959363219
0,0746951529340794
0,0733268956062415
0,076230510794529
0,0724555111506134
0,071711067626077
0,0722773589636093
0,071598953170844
0,0672310670588989
0,0692143012707038
0,0717854895185564
0,0738560628722023
0,0722753552771553
0,0713583726026118
0,0682787206275327
0,0729864861333213
0,0699403199406813
0,0698065092206329
0,0687379274265151
0,0699596241488399
0,0691581403264317
0,0689506302897016
0,068345486195919
0,071374724043433
0,070494745709654
0,0729147570445285
0,0666872902813661
0,071736602708381
0,0689225092464133
0,0687750555487383
0,0626940045630437
0,0642260829635284
0,0644183159179151
0,0675895339313292
0,0677047156568066
0,0682202049270474
0,0619914590339535
0,0679890724787271
0,0635409486222409
0,0656942625033527
0,0610501049144937
0,063980632305004
0,0628485238147943
0,0649942139285438
0,0643965984087694
0,0633416573936924
0,0623360389156505
0,0654549721339639
0,0589058595300893
0,0664559468245992
0,0677638970773013
0,0778966096606457
0,0632567064852469
0,0597647536011452
0,0674807533371894
0,0672093104155364
0,0624916519296088
0,0628139981878894
0,0645061683244545
0,0641544444681623
0,0622495580383847
0,0606296536109053
0,0607620105966054
0,0618579473778915
0,0599555150737264
0,0626051863881382
0,0605059740420291
0,0632300821697959
0,0613491536832673
0,0627697849739258
0,0592371036393939
0,0601970301088667
0,059611134431157
0,0635642363510447
0,0598230598969362
0,0595223673563585
0,062796237415057
0,0705238058787034
0,0675037293823791
0,060162629098902
0,0630025097285448
0,0611668797495383
0,0612220513213346
0,0584754992391676
0,0581419166379866
0,0577471245305728
0,0586920222096819
0,0591384818225347
0,0606033429600189
0,0601769220515348
0,0602649525378309
0,0616023861172299
0,0544675745068093
0,0567603171387336
0,0605251908974347
0,0595119025889287
0,0612164832733489
0,0572723361058152
0,0558679585345851
0,0599632301048377
0,0611984870956458
0,0578619419034698
0,0585045593207823
0,0630149567369559
0,0738397533129536
0,0665356941696976
0,0566172297478137
0,0604218481233554
0,0564226420964642
0,0628233445489159
0,0552768069589336
0,0586370204668604
0,0556507187036169
0,0607596680210899
0,0561339912086532
0,0588411796867697
0,0549251017626755
0,0579307582207842
0,0559773924849424
0,0573383265818955
0,0540334379362776
0,0581946069584598
0,0537997351847351
0,061365280900003
0,0614910360220276
0,0753868128028438
0,0653823395491771
0,0591408604412808
0,0552489405212146
0,0624432601649533
0,0623270136866747
0,0770112410176315
0,0493756246615091
0,0627084696213335
0,0543874835681702
0,0610875573903557
0,0523058428554493
0,0589724823860165
0,058517755161818
0,0656941831367332
0,0590883651014239
0,0629801416399109
0,0601424056033729
0,0554134576046676
0,0545424598642289
0,0551938192860572
0,0546007408116762
0,0580266311473106
0,0555836394258237
0,05864668543681
0,0516242890568187
0,0571934354794323
0,0531479758886593
0,0576331912107725
0,0595431552344814
0,064511782759945
0,0556765983421696
0,0599245431454983
0,0518592981199502
0,057731977109027
0,0591827830802054
0,0694581918332058
0,062762316587685
0,053293407692943
0,0549800552392115
0,0544490601025515
0,0591450326479601
0,0548652691228333
0,0567530548177887
0,0559214700883112
0,0552383320058937
0,0565641494088903
0,0571502313456217
0,0540271715619819
0,0559362134725677
0,0560050644940071
0,0568766174870958
0,0571909890683212
0,0556807036993495
0,0587806480795655
0,0556526111172474
0,0648702458283304
0,0651758429429869
0,0828057528016472
0,067312908288369
0,0706469459432782
0,0627653072817568
0,0584210284009938
0,0561600302779989
0,0561318741006348
0,0586925567875247
0,0580707505912098
0,0542612801084078
0,0549571778626854
0,058384492272304
0,0550932860392665
0,0540121271899055
0,0560667056316127
0,055082790080561
0,052224640735058
0,0577933631330378
0,0536808759266336
0,0569597449058934
0,0502167956901895
0,0608268784009666
0,0589399869887411
0,072669422763481
0,0508567334818669
0,0715367512306379
0,0674286715715678
0,0902596565290893
0,0636613715529405
0,0593135624073406
0,0581953056213723
0,055624591826683
0,0565150883560883
0,0570795327542549
0,0661971317087135
0,0569255702196139
0,055769220321098
0,0561123146635568
0,0616588069980122
0,0553278236645768
0,0598734418492449
0,0683128072955557
0,0867223859816897
0,0750166498075385
0,0557488099022022
0,0585224106950849
0,0696499727104073
0,0773584256808395
0,0735949147434946
0,0569536270665946
0,0666252367876895
0,0549721545886558
0,0627938248222738
0,0543366286603921
0,0650480487462788
0,0632930972379039
0,0625391815731067
0,0568358113334549
0,0556309626947743
0,0607791742550267
0,0617184760968177
0,0629117672445383
0,0740947385977755
0,0715057905581136
0,0639277161561862
0,0630679464507087
0,0692820343406667
0,0593914840799029
0,0630194453080292
0,058306442318699
0,0647895438889651
0,0722255192288631
0,0795368566621395
0,0733272450019694
0,077709512618588
0,0762034341093261
0,0666854766143742
0,0613177852681459
0,0781988587357835
0,0606766429214439
0,0711389012021438
0,073776862335902
0,0892510509001449
0,0972624907232764
0,0747933936135196
0,0769824464376352
0,0558205607384687
0,0740043933281929
0,0551498354132213
0,0796225669731902
0,0683599188179003
0,083410417262928
0,0529245116587851
0,0738665853963054
0,0688469615810426
0,0866767150084983
0,0686350890935749
0,0711721534390979
0,0662431147984239
0,0746831616683929
0,0803686041327237
0,0733887426086212
0,0757605596221526
0,0861846264093682
0,1167353047125
0,0869045746073707
0,0792267645675577
0,0803604262443488
0,0896233432336227
0,0903232722346737
0,06413978919906
0,0764631154179358
0,0676047098360681
0,0719149121721148
0,0801532336968858
0,100775007251875
0,0899885814895346
0,0722435743282561
0,0781287229284008
0,0839443759384299
0,0845268729782007
0,0979756847110227
0,0711364894539838
0,0836915756602991
0,0710772260874552
0,0983441090104976
0,096124957277854
0,117718123371878
0,0981079394094912
0,111264758534027
0,108403934964194
0,0971660315747738
0,0949028028139802
0,0898027323321422
0,108182062011526
0,101814406933467
0,0908188265685191
0,0839206429766186
0,109815746008705
0,105379253455858
0,108089489087181
0,086535421136008
0,10019914584273
0,0898982221838354
0,136929245522336
0,158174165626876
0,133040002185621
0,0988144146867034
0,117327850936505
0,119011376589979
0,11455723177095
0,0973365575290853
0,103171868599536
0,0998902681005569
0,0990653302591652
0,107091473295418
0,11063129204044
0,111567000972359
0,108360828845234
0,107164702411115
0,113895465086086
0,135594922545396
0,183437834751184
0,135383420224617
0,150898915553682
0,126889955121822
0,16053585248303
0,123110224740329
0,125191379494145
0,115931482533057
0,132927915341462
0,126731717447825
0,122346457411251
0,128348615797415
0,144984243709069
0,148841389191315
0,15638775994452
0,143748255941477
0,153446769005678
0,128061765970593
0,20412279487165
0,173859367904818
0,21264819751169
0,142646129675796
0,182303499517538
0,16855411171429
0,216136926746068
0,176993262023473
0,163451362785222
0,159749272985967
0,166196420155756
0,167919371724919
0,189358111578216
0,189042053828882
0,205241012893403
0,185938411716039
0,200598583056283
0,198700140190537
0,311557126923136
0,270696946356247
0,229085812107081
0,215402139100423
0,242003683462932
0,237631961931271
0,235439559603778
0,220203309404059
0,232073815995264
0,253773374952673
0,278528277878634
0,273138093772089
0,240113293083694
0,286336171867845
0,269788465343047
0,296170012028902
0,288362862799489
0,325991125625307
0,286116225029055
0,293015862435176
0,294925325409623
0,297473066363919
0,317565550591962
0,323393873029047
0,339657370938803
0,318347573811539
0,323802990873529
0,319965419543699
0,329501706580426
0,333107489766103
0,334510655877964
0,357515339124727
0,370031661477445
0,454582619249124
0,495188628367751
0,403775763335984
0,358505581571615
0,347351008435534
0,368586750947479
0,375262361520327
0,405022185825735
0,382074424804911
0,402570195192709
0,356791175345386
0,359941136333476
0,366906669018484
0,358447198417684
0,36670783649969
0,348841675459699
0,370268539802727
0,369450904272197
0,388497178317068
0,401004565124271
0,422778944682995
0,383116805829524
0,356418940938144
0,374623732720711
0,359423266207858
0,364340309189915
0,355285354632619
0,37253064949439
0,36483152377602
0,380568745836036
0,346406078986255
0,367547527316467
0,363401433628731
0,392185175563378
0,348912772811825
0,352642977010421
0,349535821567632
0,343734563954326
0,333663011121031
0,355424794030935
0,370241007795231
0,352549910900337
0,328911961475697
0,344746840871097
0,320243101612728
0,332710707564875
0,315845446642031
0,335674117374994
0,32465507702578
0,326901730891445
0,314326670108221
0,330705564040718
0,313478685650126
0,319628094789299
0,309464808210572
0,322300699817328
0,308181296836058
0,314892726201226
0,308541106772601
0,311656698623428
0,303546337599587
0,313004729873237
0,302537910768002
0,318456564162003
0,309697569481998
0,31611417712051
0,302577536902818
0,309062686228563
0,296437941569903
0,308845582097863
0,297567870567223
0,301573166596063
0,292051784602036
0,299572228367912
0,29836022343975
0,30104120808389
0,291348082217259
0,295827886337466
0,295178509504896
0,298008557658484
0,296610945126443
0,294413517521555
0,310318556564391
0,322374974043355
0,320117428136498
0,293021006802696
0,275807316156807
0,290188807007816
0,267587443459826
0,292360001082191
0,307344928888917
0,313308304591457
0,279759938517261
0,276109388063498
0,26964507930853
0,291390976912989
0,267133077949233
0,276966308101067
0,251647013802622
0,278259822255852
0,269237970390039
0,350226342187242
0,353879098403777
0,346954303152199
0,279014660591164
0,252567141287626
0,287432631110866
0,278378692280584
0,267825182124845
0,238706547263264
0,252959589601907
0,281875922032528
0,262334152270071
0,241493528825666
0,232125906027622
0,245798244067939
0,274540583648855
0,276256500625363
0,261805597705112
0,272549005787972
0,272976617126047
0,282498666008708
0,289146458926733
0,327569606914177
0,25934482894804
0,235644070708032
0,224229144581815
0,226575991199788
0,242775557710992
0,268700401543671
0,246532128557791
0,243067581756175
0,215984273582175
0,22325150242364
0,21245654010835
0,252065897124362
0,215638108517831
0,253727697388237
0,226712498089782
0,229109270985747
0,209033912865114
0,252749181753643
0,251665760043478
0,283907433131699
0,218472740562862
0,212186344199143
0,251831920522028
0,254496153042778
0,232234867934256
0,217557270344458
0,197611533421306
0,220333485974026
0,209195675629118
0,209790445612215
0,216824028000435
0,228924573796039
0,250108351231143
0,263607170647318
0,297153146222959
0,265363935369241
0,209493218046692
0,198904248313065
0,188004591774135
0,21160855291571
0,191616808527499
0,205561454685948
0,222463828705547
0,205889594651378
0,214856943712564
0,233054301365428
0,22442998400821
0,200945099583038
0,202067693501531
0,204701885528625
0,211343592288321
0,253258400328814
0,256235256779188
0,234463285354121
0,237571766779716
0,23961494052708
0,229786251958822
0,219392891807648
0,232318406912263
0,223285573572872
0,239801073251749
0,250016038846869
0,242780682742486
0,246982441587206
0,246221010756035
0,255703168587392
0,302220516148689
0,280234501224108
0,289398929846691
0,299997070326493
0,33005751747967
0,347947994609129
0,314425459493373
0,303205076693403
0,301119676757741
0,311772261452201
0,310977779206461
0,315657455983683
0,345710736460952
0,352273063812536
0,33684576859798
0,331621869657566
0,344175683870988
0,340498779355771
0,356549989903416
0,383959475242307
0,388673431693185
0,442126921291016
0,410872797443036
0,403295194396844
0,370382373323853
0,372461240482442
0,376505726481499
0,377524938698325
0,370740075394942
0,3719970165395
0,387686539914127
0,404297374279408
0,387482377792787
0,38330206697474
0,385323569599121
0,387884952374422
0,386326369888481
0,39219745325544
0,389414221015039
0,391274815692829
0,393896723492807
0,400498160007264
0,418029841424376
0,469786133650175
0,435351924683669
0,41701670828443
0,416116728507687
0,428662340370512
0,415701568851674
0,436732363649678
0,448042622052368
0,451236029418996
0,433203548698292
0,437687960074383
0,440076304941939
0,437815098410286
0,466721064093939
0,470959699277029
0,455089531090915
0,453924387373267
0,447700942217356
0,513337457329782
0,506846476868402
0,499635934126681
0,479607565531713
0,479130531662906
0,463103852422658
0,470924967837457
0,466036761040027
0,476511511240899
0,474064843781318
0,479031829790618
0,475354540708602
0,482272560498937
0,478914888127823
0,471095302488386
0,482184800964422
0,503307110866154
0,482086375529374
0,470267030725891
0,472396544487713
0,47635452144067
0,469653005806312
0,499810715612364
0,496393112642747
0,482535575248988
0,474160087745141
0,495693149593717
0,490847423552256
0,488574255030578
0,462604497214007
0,464292332744836
0,466852656444801
0,47586803084991
0,469330332297462
0,493094830989146
0,505671252874673
0,494225769689891
0,476804483126048
0,48014928769319
0,474717081580609
0,49147942125749
0,482922211971039
0,493799708307285
0,493721553390434
0,499442445886219
0,501776048533992
0,495912451101949
0,496721080216393
0,517927133849807
0,528776287571887
0,522562371616777
0,499993303266662
0,505337045941511
0,49697495185115
0,512667082346721
0,507238652450262
0,505036219033259
0,489927623574618
0,496471908088065
0,482210160204584
0,507955753105901
0,516696699639019
0,500007834152086
0,488156560155167
0,480516211150967
0,475927451525078
0,47567764913775
0,468642031772931
0,459950103524356
0,463651856429043
0,471235036015939
0,466494374759832
0,460012366257594
0,454392628723958
0,455049033430457
0,450932549717613
0,459571485015643
0,449694103421412
0,453704927920832
0,45006410977679
0,449511566900554
0,447526649020305
0,45157622406494
0,440999197661291
0,447413645175892
0,46073348700106
0,468608433693342
0,466432896794291
0,44905933189043
0,459207586146884
0,450922607922405
0,44317469803233
0,444356174731964
0,44120160616998
0,448037082650982
0,435052717947411
0,445118980672362
0,440580913592154
0,438304599520001
0,442539593195525
0,439566361977247
0,434056850498706
0,438068691856744
0,440696748777742
0,435274810150484
0,437955152068893
0,437128157992391
0,436746824854105
0,439812099479297
0,431424112813711
0,443485794688497
0,435746026590957
0,435762043664727
0,429558336377109
0,431996539369687
0,436618667156162
0,434362039477823
0,427409327302791
0,430563277280293
0,429474526170241
0,43395322545517
0,424587181519137
0,428339612078729
0,426164533546068
0,432010322934003
0,425426502565383
0,424401178694288
0,423236045425739
0,417843063620024
0,41891626714644
0,411983170491105
0,407904154465222
0,409578277234241
0,400250863278297
0,40485655510459
0,397761809889933
0,395325818211667
0,389125537155078
0,389733644810608
0,386342448991131
0,384203379650466
0,381992606916533
0,380601944288951
0,375899662392493
0,380376267527801
0,37118623906293
0,372819982143231
0,372668722546862
0,371854226094568
0,368658753280069
0,376634284685383
0,367250957740474
0,366668820231596
0,368610985616213
0,374681137875973
0,369990175734721
0,374463820066839
0,37058866021761
0,377588681250467
0,375525212307404
0,377259943752104
0,378479381175493
0,379829402686214
0,38118190427368
0,384645422628505
0,386082204341107
0,388127469368528
0,386727275188209
0,394281776695076
0,387984447818933
0,391777880102348
0,391207707261982
0,391857495034509
0,39096122120031
0,393839523879074
0,393718186368399
0,393400356386609
0,392230112985894
0,396089794276303
0,393007589343142
0,390727668588441
0,393515722197942
0,391074423722308
0,389093995186973
0,386830397674224
0,389530391647157
0,386706679826251
0,381781069917565
0,384814740402965
0,383571613878485
0,383267737845401
0,382004200803969
0,38126506941022
0,377827651365193
0,379514600548121
0,379210881873193
0,376522350510995
0,371182323631586
0,374135090550063
0,374423296934271
0,371343563713592
0,368973013641117
0,369231072631201
0,368037892698204
0,364896883560839
0,36342930259966
0,363285910114773
0,360123809890216
0,362793888494321
0,358617253977987
0,361224914661227
0,355312818901512
0,354620453143151
0,351913572031923
0,350884695375843
0,348370243891936
0,348707168285722
0,345312034260743
0,344509696515757
0,338508600777061
0,342797130075297
0,33311254999139
0,337119067256936
0,330037892412179
0,331759704812967
0,32983624327041
0,327219530694319
0,32554546607352
0,323452378526664
0,324217555241312
0,321187591120055
0,321132016223284
0,321677461333663
0,318440273946892
0,323065573166821
0,316416344339811
0,321521884153145
0,312416653257164
0,312677271966801
0,313246284318318
0,309331387176863
0,302943675783263
0,305072578873973
0,300594654899663
0,294605341574074
0,289857207587406
0,288513419783414
0,280900330734102
0,279951172143123
0,275969998883646
0,276759183434285
0,274681536255333
0,276134783843298
0,271576362293139
0,277349263157376
0,281524574527493
0,285168651391793
0,288873599602663
0,300644270462045
0,304522953365104
0,31375150076836
0,32007298009507
0,335871971520826
0,345773094478147
0,355786710591651
0,372169520778942
0,382682600884655
0,393318422476395
0,406880699750815
0,421783381823502
0,436756818107634
0,448090985750359
0,462607466679955
0,477497182164008
0,497296064692469
0,50490568453282
0,520346733048471
0,539479033376759
0,552991032361671
0,562017079678639
0,577121280285515
0,586098093678732
0,604190312858173
0,61328565570997
0,626566547078189
0,637669062727228
0,645573310277677
0,650888161610136
0,66065702131801
0,665851791508052
0,67144447481706
0,668308792384834
0,671182379739331
0,672995244354039
0,676510647405027
0,670034336899726
0,662117112248225
0,671133140575491
0,668204992097474
0,666657648447714
0,665864419470296
0,664399662231437
0,664348721833504
0,660558536376909
0,661433424980376
0,672222253439527
0,666627878721113
0,667508435648794
0,667006787138533
0,672743294971452
0,685642903480462
0,678118303485788
0,688668347661929
0,690601410919727
0,702175865473958
0,70876068892952
0,717918238644085
0,720685297447352
0,736745762069943
0,745475020094923
0,762522234196424
0,762471857641536
0,761338366336385
0,770978665990081
0,784424434171837
0,794387091707238
0,794852852419729
0,790757916548653
0,801026702842356
0,798148861046466
0,800687972345394
0,798915241361825
0,793123238072987
0,794788290267731
0,800923910894361
0,793868297027455
0,794965814466074
0,800705505631338
0,799223289223727
0,80321972973576
0,815037959123666
0,822662176587813
0,822844069379556
0,832585702528498
0,838724278050685
0,85213035599378
0,862554866486224
0,874817021655528
0,880854056090724
0,889589783223064
0,9122639797493
0,911775297364847
0,914647354977087
0,939040846172806
0,952311169943443
0,962808701613798
0,980299384507903
0,992806598415756
1,02111495337742
1,03428467328385
1,0601877887104
1,06422490414205
1,08916724037507
1,12793398751382
1,13528541477277
1,1446277830474
1,16586641831384
1,18977781309029
1,2310506633827
1,21358947531428
1,2413636827636
1,23980643169384
1,24739772095643
1,26966047434581
1,29140463964437
1,30107901767129
1,30539058908833
1,30639253535581
1,27658429185675
1,29487983846618
1,30392167551831
1,28789060105601
1,29245983278624
1,29538344076003
1,27614145698879
1,30756074563148
1,27561674997808
1,29554173365689
1,30055885894793
1,30400085912594
1,28062313905223
1,29700954325006
1,33486124544045
1,33434013885476
1,33585773148332
1,35470191640044
1,3640773190885
1,35336734112157
1,36641143559329
1,43240311646363
1,4112437643467
1,44962936782849
1,48213944191343
1,49947775467567
1,49129555239171
1,53550274467855
1,48868566708189
1,5590715321414
1,57901548792969
1,58547450082409
1,50473687048451
1,58258470959096
1,56818653546433
1,57698143859532
1,56426333476568
1,65859167267595
1,65125221018636
1,67139651591906
1,73018035786942
1,67948419979469
1,70599384987013
1,77886503025133
1,72021545458572
1,74738429240903
1,7261165347402
1,7596615951062
1,71994167258384
1,83775932742181
1,73154803242685
1,7360923978164
1,92514613096216
1,84484904369412
1,85974367546861
1,77965401237235
1,75499679435435
1,75859246434183
1,75139970347955
1,79959696986229
1,7445000979812
1,75778262263632
1,70174510890424
1,68096962353209
1,59782177416749
1,56864002640484
1,56640865247899
1,57890509644919
1,5289125880809
1,48289736488551
1,41351076100607
1,4635329075002
1,36660142523581
1,4467369855388
1,41752309465608
1,390065593596
1,37521995041947
1,38916719720084
1,38272994175928
1,32746579183106
1,32631858042337
1,30502925533361
1,32319233206989
1,30432779213788
1,28372484663098
1,31075584868143
1,21422014110668
1,20920022754164
1,18621572397449
1,15518455201649
1,11123995960625
1,0856417529803
1,0591190282072
1,03583179311483
0,977482928894222
0,94512058134846
0,899984697742954
0,850169578093253
0,820500577743292
0,782452678177808
0,731442468353759
0,707020747075614
0,669246187248948
0,637701416667177
0,619664046730562
0,584647530207117
0,568059215560326
0,542889556954948
0,524183696813429
0,511906078129544
0,486553628859164
0,481343516864879
0,471262707098904
0,456895193595626
0,445369659033005
0,440195844374989
0,427800248320672
0,427023236761771
0,420291656988114
0,413687702119565
0,41387859829607
0,412192662488373
0,40669740616279
0,405706781112449
0,407634003322273
0,406806581678276
0,409126442852955
0,409214694579266
0,413755196898718
0,415244067832083
0,417552986043227
0,418818322600754
0,416036426074252
0,423824140084689
0,419738663783531
0,424590096358461
0,42320574263304
0,417188611858626
0,418324260462555
0,420692381939932
0,410808493474944
0,423039717119445
0,407543871282614
0,411411776609671
0,407078411503414
0,410795924785572
0,403538883229426
0,412093816267159
0,407621289253351
0,417096677658968
0,414949912278604
0,41543061639029
0,418131715640419
0,413453186197432
0,416207642709749
0,424558154304563
0,424024653370957
0,429038878247752
0,430607358502284
0,427755089693334
0,428802984613534
0,426307293283693
0,419007335811798
0,42215062514274
0,422162267087533
0,427367280213873
0,421108421214855
0,429956742920668
0,425270593046694
0,4225567884887
0,423348161430829
0,423614436666203
0,421982660118887
0,426403084918056
0,435220145136785
0,438935783140812
0,42808146394195
0,444464456138622
0,448047779235582
0,46491415074878
0,464125680289165
0,473012037571387
0,493764937387063
0,501230693305859
0,508911088663002
0,516136371461856
0,52476477247574
0,524844538253925
0,519320095251421
0,522934362738062
0,516533603043607
0,511402625041451
0,508220226501622
0,502479878820648
0,501961878266003
0,4907297583059
0,485079626373794
0,479002174640496
0,469834029786729
0,467036973671652
0,469819264015248
0,469933073751854
0,464973179145438
0,461835475032031
0,461494610047861
0,468787025971852
0,463272139687481
0,468280502127771
0,470605173623198
0,459885836976003
0,463837514149051
0,466397403695956
0,464495768375611
0,459825343067982
0,44407829580773
0,451718608342896
0,430501588649717
0,440607932830589
0,435534717919495
0,440229964312254
0,432053687917207
0,429480393701964
0,423784601684763
0,432231340591741
0,423722924207329
0,428093591734269
0,416262693805248
0,424045652307286
0,422670710956849
0,42047000649157
0,417887337207528
0,422596479234691
0,413570146867414
0,407766432446235
0,410599826568342
0,414950991925282
0,406584475355559
0,40378809070788
0,412552384167565
0,403673685196605
0,404256793456155
0,403637057724401
0,39140412299724
0,385845676236085
0,381703006939183
0,395190192481953
0,391887053671328
0,388845345498284
0,375110913988396
0,385200157270819
0,362386565695625
0,364313950834322
0,370173947929689
0,367457432014294
0,36847126086916
0,364379740038307
0,360426509125673
0,357135939668508
0,364404343139945
0,369727487801177
0,360406310721087
0,359800066256889
0,372368252429802
0,373214626249234
0,363983958415023
0,366735565132074
0,375781489656923
0,372083364220032
0,366413697130671
0,383613184113293
0,372905291847047
0,393137325231131
0,371776941913829
0,392928190607022
0,375451042369524
0,390098351536924
0,377107058835334
0,397523765661662
0,380545353615931
0,407989747421298
0,388683164679293
0,395826056855891
0,405065366105173
0,406510835393904
0,420846550391065
0,406908009087112
0,418571240333042
0,457809250078166
0,434528849674902
0,436788098782182
0,446004591536047
0,484613580140092
0,471972161750364
0,479925761432694
0,498394672954334
0,521647057947001
0,52373227044736
0,537409784697146
0,537583654789105
0,573692143431493
0,557818279251863
0,622906062833472
0,608166532781871
0,614569330204015
0,590348552823629
0,673052406276265
0,645469161920111
0,63263942693677
0,61225382166743
0,616319430729753
0,629204338813925
0,635798006463634
0,589711177444165
0,63629375519181
0,613970797518218
0,564230340487241
0,581539843182069
0,617004666973432
0,614839696386359
0,623377118468203
0,622152412786187
0,600370298381821
0,596181356445402
0,62183736173999
0,602327391000051
0,615768196470547
0,590807549176954
0,600113811290905
0,582660487452967
0,600242671762709
0,608013863850141
0,56802007785005
0,555848758261146
0,575453740747524
0,553953371920492
0,593036395772602
0,571226040279312
0,565995157612381
0,54712854191137
0,551983556164732
0,553555086289084
0,579056937869798
0,521380726986563
0,576424393913203
0,562987523142855
0,591949268620955
0,553898322116721
0,569485226564388
0,552680062135773
0,53621248110672
0,549073392639506
0,561468378127043
0,56838330863236
0,636874053987629
0,578720805447156
0,511963962089572
0,511920863163779
0,61406639574181
0,595631495933942
0,627346997473325
0,601233699569535
0,613118279218653
0,57863472503006
0,593039567459398
0,551853155508656
0,625794964643928
0,683735807294562
0,710775312574048
0,656125611242496
0,622645621995205
0,618892367032822
0,624541215402306
0,569564296861655
0,686927589801137
0,601348282184919
0,604605530191854
0,632296299677617
0,623687269702901
0,615014653573067
0,656166732491669
0,656385622591388
0,734520677945627
0,695141745547885
0,723486014868667
0,667744708957819
0,673966793853758
0,788898402823677
0,743588555516408
0,759163516303597
0,833298920597455
0,840290896246153
0,86570097714044
0,721519328055971
0,685516272463465
0,742021779342076
0,724700577178146
0,758614536909266
0,780140485634795
0,676173972219755
0,808453004979073
0,702212495531981
0,725706558137737
0,789246788816921
0,880142089347177
0,723674934149129
0,651743952411905
0,610202329470567
0,734533459255649
0,64595521543323
0,682056283256368
0,625088818716887
0,781864151225624
0,75068451045916
0,700960579232337
0,665531098809417
0,910263202684632
0,736764125789598
0,717082827951627
0,781139026674041
0,789027160190923
0,71931978708133
0,64124105068537
0,769404852317133
0,969971343067217
1,02336334272491
0,962350327026718
0,716388243194156
0,86611174083762
0,966724397561055
1,32248736726219
0,576571971003279
0,715170976393614
1,37983169067503
1,03848432035499
0,629346912905064
0,716684117535633
0,953207042164089
1,25093819804873
0,598261462893559
0,76578215152148
1,66016240108044
0,631747187709991
0,434379268716946
0,786701063377815
0,578660418085678
0,727909210217809
0,762933807501066
0,730813804438199
0,995615874633347
