3596
4000,36533379555
650,420452594757
1
2
2
0,0922914669808837
0,106945736187509
0,0880637662750441
0,105215426515339
0,0934979461828138
0,104479446796061
0,0869691014122666
0,107195776718384
0,0880383735836094
0,10252726782784
0,0852241182310788
0,0983036934294873
0,0873021206529083
0,109036960031691
0,0795729762155808
0,0975050759312319
0,0953129305243439
0,0920329087498113
0,0870538668371116
0,0979779329136923
0,0946885993530313
0,0940183133056626
0,0841414077231415
0,0992971604065885
0,079854105225698
0,0941055283677778
0,0885490814358673
0,0895284534011432
0,0796539737337063
0,0970896609890183
0,0883541164304816
0,0944086002075778
0,091297156899231
0,0988555265648967
0,0850260114752191
0,100425095721921
0,0882004106749822
0,103574176498482
0,0820666103071167
0,105995870195344
0,0822673243351733
0,092373642620225
0,0903719756837018
0,102265973394025
0,0858435484943115
0,103045900682477
0,0844796002182624
0,091364319004313
0,0875579599585413
0,101456766714976
0,0889970255435194
0,0951841801992033
0,0908277516445914
0,112026524925111
0,0925274627045973
0,110184477823078
0,0914095294002074
0,101395904154842
0,0933883007519766
0,0914006123692032
0,100034980910822
0,105539412579601
0,0890836575618311
0,0834123950729648
0,0834363750121558
0,0935894682805711
0,0874391734070929
0,0940393654829634
0,0882710226000179
0,0911293194728722
0,0857553060561007
0,119650771139101
0,0944198475310623
0,105260991354388
0,0953482674918016
0,0965522561121751
0,0703293743886951
0,0880021608700742
0,0697873884659125
0,102773781386548
0,107852445137839
0,101884247310026
0,0783880694668155
0,0780526753363503
0,0947062287873478
0,11301301465305
0,0701019791756179
0,0907822539891085
0,0959990174723488
0,0997759982429938
0,0742246013228371
0,0887721527226989
0,0719895973362041
0,0945790203779183
0,0762037874046361
0,0888950649378592
0,0763682326809746
0,0889853999731918
0,0723386766953086
0,0936402397713211
0,0868831030384516
0,143382118673438
0,107804103396361
0,107562019555779
0,129347304932098
0,0985357172506953
0,078244082581874
0,128165097754287
0,0985859357378476
0,0973165990473573
0,0822720169952661
0,0840779637434323
0,086366291197842
0,0940151237345266
0,0728412732929002
0,118972558242867
0,115570577050696
0,0860024826339384
0,0727517584938199
0,0807848007316408
0,0598036190618428
0,143496130200873
0,119169158187037
0,099779334407251
0,0805891000204792
0,0838606090203682
0,0822823809854127
0,150183513692039
0,0938711773188444
0,0942851529349669
0,0614649230891885
0,0858051930920447
0,0576550548987835
0,104956565821511
0,106844534257278
0,105749957531102
0,0715587112064942
0,0832809952839498
0,103902065992349
0,134935576517949
0,0960319171964969
0,081930421952568
0,0619835223215607
0,101535201217503
0,114301184647814
0,100858341653703
0,067818302968536
0,111797161400155
0,0788126748903018
0,0870184606825776
0,0643271784537057
0,0774279789553247
0,0871427743505823
0,0910491997339077
0,0454992872865433
0,170853731726078
0,114536077444565
0,163447659686436
0,110846193526563
0,10309402225261
0,0756599296356236
0,0993870547131406
0,0627852202029429
0,0883357493807048
0,0682281740430689
0,0722807374447616
0,0924945023662594
0,115897455805332
0,0648284522451801
0,107091201177811
0,121832429901469
0,0974945115971999
0,0722305201328202
0,15570291274932
0,0915365434865583
0,0921034109754016
0,10766559569196
0,0928068142847431
0,0545903712609082
0,0983972981859283
0,0998116351870738
0,088221766804681
0,0680672355482674
0,0820358355785706
0,073789828724607
0,106895759711845
0,0789673761130587
0,0904733483527616
0,0668248341834311
0,0727120711228287
0,0734948277557281
0,164011782175873
0,0985533534759795
0,107231002967464
0,0750979196790897
0,0776281544951285
0,100822571545045
0,125190866415712
0,0704909660667429
0,0837679913566805
0,0621428143214383
0,0722651408272408
0,061711389217006
0,0928207357847938
0,0533967667300377
0,0819770954204261
0,118297494143312
0,107716030614966
0,0738546744076514
0,0779407700460701
0,0620232920670843
0,091897649970293
0,126729217528356
0,119307967518535
0,0707469033261398
0,0849109908645095
0,0716411007624444
0,104167517793609
0,0858424012741264
0,0834909226002621
0,0682522031383305
0,0747402762918706
0,0620336779734953
0,0803064362492771
0,0709371644419275
0,081880518640489
0,0682063735980592
0,0796005463054857
0,0641175036338968
0,08863694760612
0,0874159612661464
0,0880098873759719
0,0724442835791929
0,0821206195065801
0,0629864708267177
0,0969556164640056
0,0889223983281392
0,0886868281361644
0,0746622798335987
0,0894222280682568
0,0663094742448933
0,0807263797107435
0,0666168979829374
0,0830943346838966
0,0573817355010038
0,0966736813507554
0,102530831637835
0,105271117821205
0,0730206298878134
0,0767092837351061
0,0969857815474684
0,0992347355119783
0,0703216775988444
0,0822489087048425
0,0802944439338253
0,0707602156985605
0,0723468296999363
0,125564051250809
0,0827481100736362
0,0863094145638027
0,090911391765958
0,0962024401144762
0,0801045730938279
0,0759831951139278
0,088226069228576
0,171286029201612
0,105816113335704
0,105038450762227
0,130269775268949
0,112618869760202
0,0902312711272344
0,079224076501306
0,0635227647626818
0,205082206267129
0,141717999154071
0,0939340366159625
0,0916013203749152
0,104629019790289
0,071921390815408
0,102933537589684
0,0803250872135796
0,119606142378034
0,11474981409522
0,172360091512562
0,132123001205711
0,0904397590709449
0,0964884661068852
0,122476684714509
0,092919805690697
0,0914872615093237
0,0711392035458358
0,0887911849395491
0,0959202408119551
0,113606736122198
0,105696445481328
0,0913162979179555
0,079898733703103
0,123896683766197
0,093148150947132
0,0851215639609044
0,0943585393662957
0,0991445739456584
0,0785198759057741
0,0933080764736181
0,0880383766404537
0,104192491633703
0,0738215072008738
0,105776276594006
0,139593310914565
0,108981087398534
0,0966597596403121
0,132708040054731
0,0946186730256798
0,0899705572149932
0,0791046486532384
0,0919410898180808
0,082863781910904
0,0847720888721501
0,0856217968855649
0,119896164724706
0,0890645167053475
0,0919604724725597
0,0851871170649939
0,0916867860857815
0,0843185216712466
0,099882825476701
0,0879844498843546
0,10829924282151
0,0947181184702687
0,0900268885829297
0,112355058771925
0,140604153256838
0,0843448363544429
0,163285233665432
0,138890779504651
0,110643248375683
0,0897530454886058
0,106592639846296
0,0896416490727234
0,1039082455028
0,0905734272727297
0,10425940214226
0,10030085333841
0,130303421392246
0,102133297966589
0,125073392761656
0,110968541048656
0,214016256981384
0,17003008657359
0,150299418677434
0,103132306526381
0,102508575570475
0,150464062277842
0,14093430935629
0,138358000405906
0,154586967312118
0,11259249999096
0,128159946414294
0,107992675297307
0,123538689022899
0,108622318925291
0,129284121673338
0,115602594005948
0,136471398074247
0,113088543825936
0,138559836983536
0,109317059515737
0,141998588720943
0,160121220561961
0,148949822160529
0,130953299648085
0,141825518180928
0,135524412409044
0,19413032473585
0,162898089751316
0,220764696669098
0,152952381917469
0,213770353435352
0,179881121166998
0,163746107351654
0,138769051810417
0,155511791201952
0,136872527621478
0,165540859630967
0,148917610257232
0,165877217749276
0,14830436552163
0,171507592878293
0,149320745464456
0,172787881041854
0,152769727277633
0,182721330445591
0,170496002367383
0,183603725518561
0,167549007824688
0,176688144969793
0,181176635653762
0,270647884703769
0,221329701854947
0,204408065653904
0,182874484881873
0,193934536325482
0,179750214863234
0,185449344047255
0,184084275158126
0,204705650354107
0,190977338451611
0,254990784731497
0,211230200765222
0,256470701906263
0,210362081739315
0,207825759167106
0,220768135971528
0,221460734290419
0,230574158056386
0,264299238047251
0,216513788755873
0,214190328353339
0,248484468153163
0,258955995315134
0,243075167724143
0,266585851300622
0,222217348683949
0,243148169064191
0,219439227917512
0,247735268737988
0,239052674207198
0,274860838490254
0,244452534247078
0,265321742378997
0,255408437069182
0,271171369339484
0,250806340583696
0,29669300764404
0,25669967120644
0,293143699853345
0,263660967636854
0,282996736458195
0,254325852964596
0,285563978453074
0,293352107391673
0,333861396227442
0,313530382551619
0,321880642526179
0,282120759172918
0,310682415236716
0,291972307084501
0,314570860632578
0,294176592727508
0,324919170307979
0,303223049786521
0,312165704285684
0,298662412191596
0,349950223298124
0,302101590905088
0,341658571201053
0,310510592321826
0,344317026723513
0,339724716660607
0,355052168226599
0,351430742752268
0,353372762106166
0,375124832153892
0,427840788767479
0,406888009309786
0,401298532293524
0,346994900364764
0,383174025161947
0,365600482638464
0,382216211965647
0,361349736039317
0,412202341771511
0,36644616847868
0,426802493916111
0,381804458649411
0,399417310603926
0,396706692779283
0,421773157536975
0,407399006591372
0,476208822337131
0,412770264396318
0,432895044808696
0,429847849007664
0,424120786498036
0,420686845506913
0,453073711280632
0,406122147858784
0,473233953713085
0,4537970109015
0,457411762781383
0,420340255952435
0,492192078901095
0,445079085784833
0,503172092888131
0,459845367203453
0,491231248412832
0,473882119309614
0,511770170460038
0,484045974765053
0,506698918401634
0,47586771943926
0,492283247801455
0,486714564123861
0,520766467353436
0,512926638724044
0,538769682555231
0,492205923376959
0,523147820374188
0,527180825282865
0,535440718129025
0,541535359881114
0,568113525031434
0,53880839026111
0,561158197219893
0,512640134287045
0,560680426422607
0,542049732603227
0,5795055632151
0,531397898773931
0,59545370210235
0,5375553042954
0,603844924462693
0,571330613851619
0,60956666301826
0,580130767706421
0,64055189798385
0,58971884240197
0,62404962336462
0,560997214940995
0,626813125519526
0,588504791690999
0,641790083647155
0,614125110515275
0,661010643033492
0,619601998806903
0,665766771347159
0,632446267684149
0,695101596492597
0,649723397583917
0,670829440233143
0,640565085968014
0,653366100071889
0,660114423245617
0,673378929527483
0,69468812145068
0,696811692403977
0,640848011394496
0,682615158907206
0,6602999257208
0,720513236235336
0,685078085093606
0,75771570524508
0,721551145963319
0,754306378197405
0,69383629528642
0,778082046591534
0,698085633208104
0,729733428773693
0,740850598528484
0,793287364854983
0,703193825466658
0,81245676719689
0,706361929463194
0,778421303438179
0,749033339580166
0,783687285960877
0,73688362318809
0,797687868521468
0,705196079047689
0,799835699691882
0,769533811267028
0,784524616781387
0,794452827874751
0,85198461905484
0,785140941847145
0,845534376432174
0,824893168007577
0,837679736643082
0,770752885260706
0,873962657276634
0,831087271542242
0,865320634621282
0,831294011380542
0,854152041288508
0,834036235337426
0,851447325268389
0,797845192054397
0,919419262865788
0,831982136412987
0,857704171840261
0,791352651556571
0,926127439640202
0,836923205401803
0,962209931729811
0,842384422688893
0,884719215305423
0,87741801722237
0,987454683466802
0,871121768069625
0,906101530654121
0,864392599815865
0,926418191543518
0,876739602374683
0,988791451690806
0,859830491682957
0,985377487208328
0,899465641233818
1,00647813260716
0,908461278081996
0,950861552122442
0,89704888808845
0,964640458641183
0,907714770765724
1,01939864709764
0,925333377417022
1,05170941723194
0,957157716364478
0,949057117311536
0,926843975545733
1,04598328556978
0,948448298363979
1,01966817367322
0,951599362635611
1,02802691750983
0,936878068944109
1,08016452907318
0,96422772099803
1,05690471118542
0,967867338557668
1,01230692307631
0,930787942734354
0,990287791381418
0,944906543571006
0,998387413728853
0,974701912837593
1,06989824632607
0,951599650616677
1,11452796511229
1,00606253584447
1,06263126638912
0,93750074844779
1,0564303589245
0,987665625080114
1,05595377401532
1,10753339801882
1,12359764236681
1,09009789296006
1,17953967070709
0,996778941440127
1,12570365433201
1,03919828398683
1,00223964388582
1,03401693451121
1,11645543029053
1,07738325138437
1,09440160522411
1,11911885658335
1,11410681836836
1,0998214519269
1,11875308462912
1,12083317501381
1,12219984405247
1,07163850510566
1,11393543981744
1,13031911334094
1,15998983219425
1,11928707204377
1,12270704945796
1,08750833078739
1,17384453998488
1,11616615220474
1,09956542091329
1,05198653113536
1,18860780435619
1,10193693820914
1,10221706831422
1,11531363528238
1,11760243296385
1,09177426392162
1,2378911403089
1,14512691242957
1,14122964842605
1,09731519184083
1,19952370481763
1,11045188788777
1,21487210527309
1,13906693349461
1,19386132097938
1,11981687637149
1,23825742400436
1,16834036317813
1,21897813635646
1,11466463996747
1,20355022823606
1,1113119504437
1,13188951483807
1,17649817719277
1,18185762709261
1,2027085825069
1,217558555071
1,13945178075396
1,345146089817
1,13927304255713
1,18353337969895
1,14475748528083
1,31483260866065
1,16385302881749
1,21437014942553
1,14278964592153
1,22766601729779
1,18717477654561
1,16642830792236
1,22273483367493
1,3827686800548
1,14112950271179
1,27574917014945
1,18989215130775
1,26313444076248
1,18337753082472
1,20685887911201
1,25733379341555
1,20308773690584
1,17471078727579
1,19516808414966
1,16882195203288
1,24502206454743
1,20278331754836
1,17979024657718
1,23888165249597
1,20725586741447
1,20505074361584
1,1950488377597
1,15184097626796
1,30132879905803
1,21041486101101
1,23109567065093
1,17942992745859
1,27342832188463
1,14460056991331
1,2361431009456
1,19749936354496
1,27615560765604
1,14628437723612
1,21171305587239
1,19794379989911
1,23086727207115
1,16827346170021
1,25993903064496
1,2069819892546
1,25228490214267
1,10084349520724
1,22679926613909
1,21456848376764
1,24373253943368
1,18580812930742
1,20563396662588
1,16160365410322
1,28232110140207
1,21716410895403
1,2097791309862
1,2054880397775
1,23618322370408
1,23456080892604
1,21463435145901
1,15990338995856
1,210600703272
1,14621988172979
1,23595463652697
1,14079896863034
1,2192378922049
1,17599835867114
1,20646494031466
1,22338414190066
1,24354425966973
1,18729280286386
1,27606153826386
1,17451411366305
1,21295879780406
1,18875076661888
1,27367146615933
1,20583478483369
1,17096282136868
1,20524742082022
1,21999583024496
1,08369122350047
1,170628149391
1,23484788200026
1,23866658296796
1,1882576635766
1,15561357342939
1,13675421074383
1,19529786133715
1,19947520474148
1,23417126151799
1,14966753449285
1,23352292608752
1,18865214667675
1,18368854212587
1,14086031779756
1,1989874249925
1,16032481021865
1,1172766887997
1,19372439642753
1,24864137077495
1,18203773076965
1,18811128891056
1,10274709410419
1,23457203424113
1,12889890916241
1,17230864222559
1,18851408398502
1,14059705232894
1,14410737647635
1,18277547461294
1,13848887337139
1,14939924058271
1,10753490393832
1,14454784693026
1,08412661477983
1,12678957668528
1,07824511020326
1,09501462211489
1,10854701826406
1,1337183928332
1,07306557118961
1,13722052290814
1,11146869547403
1,14116034527341
1,15917457887551
1,13827012203929
1,11212115333065
1,13372322950964
1,13369362345449
1,10608356398488
1,04026594668591
1,10493836342986
1,04476287342186
1,11524450950571
1,1083815374685
1,08991197240544
1,09745194111872
1,10562829870427
1,08787419062472
1,11824824367582
1,05261786792412
1,05532504661277
1,0465946256448
1,10418127425751
1,05195363185684
1,04129144603363
1,06034306581446
1,07046363785275
1,01671921359342
1,04876438734901
1,04748523573273
1,02759955283774
1,0172238299763
1,06325827578287
1,04096603281829
1,05169180011336
1,03741257409453
1,0166729396314
0,981185294516038
1,026678757825
0,997692815383752
1,02518179576916
0,995129764459764
0,985384045225284
1,01199221475442
0,982790122520091
0,968011007871579
1,01237036926832
0,971333708021741
0,976273071968856
0,955735302296918
0,972194727901494
0,933152792472411
0,972871600796907
0,960260882790735
0,965176686749856
0,937152983691811
0,993455330653811
0,95155301839735
0,926648620296095
0,934387123078392
0,975648920154411
0,924441690971539
0,931142063553597
0,924802776036103
0,908270314080197
0,909269524406298
0,901472908926105
0,890120606787118
0,920189695767056
0,889115430337426
0,910101962262498
0,870574306051797
0,880077795865982
0,895229594776337
0,879766517809638
0,849761628366109
0,859830361862413
0,850818965684409
0,850839346903047
0,859913437310208
0,851388896327043
0,834151244739224
0,834547760222653
0,834543826466748
0,84085831787945
0,814338226911596
0,829658642061232
0,842392239441145
0,824780860571032
0,812139543096561
0,821056296385947
0,788348459976778
0,796750349580266
0,796934259108615
0,800825999363402
0,808941862014601
0,803254768521747
0,768605988999308
0,785495634603962
0,739671558038643
0,754710347359256
0,7677649585208
0,770018310138033
0,76358264505972
0,770313386439982
0,763494737778936
0,762144995821822
0,740487420722029
0,743735267207173
0,709007649549094
0,712612737072777
0,713337769449468
0,719716177609741
0,72384738508665
0,7287086241435
0,693612022988482
0,696339949380571
0,714820652274894
0,705904622245722
0,68141662948631
0,698652041148345
0,687456537683278
0,671290238002225
0,669976209388953
0,689519167254229
0,676701928925279
0,675916899848488
0,676525938553163
0,674687867017997
0,647230893642323
0,657945743727948
0,641439331165728
0,652915449379665
0,64812668237851
0,652426871006636
0,646790942002508
0,650118853585334
0,634501334568049
0,627473078058514
0,617608379132468
0,628123752096953
0,616430403991937
0,616634873774384
0,61652805511293
0,618614810208351
0,613270574581678
0,610868505056
0,59503603638641
0,605129003938947
0,591141940016996
0,596794152514685
0,581328252454428
0,592958035274385
0,576982777846045
0,567178795268098
0,567637639238065
0,567321346056024
0,556149488209441
0,570586303205086
0,558487621154881
0,573014759692949
0,556189249717296
0,557044969651141
0,555820104900613
0,554727464510456
0,550264747588449
0,542579257162604
0,529847117024822
0,54363071384212
0,533389951992757
0,544776857953965
0,523669475762026
0,533140064273103
0,522992249139102
0,517804389543413
0,517923388356534
0,518527791802034
0,523536279540293
0,517901360908422
0,512775389778613
0,515692348028236
0,498964720135175
0,510962537281425
0,506095469061922
0,508059395202165
0,492632855648922
0,486416899470079
0,492173392375372
0,495948933767848
0,475240564812891
0,486036883900222
0,486377378348041
0,477532331150201
0,469738148631619
0,470975933660022
0,473549574050876
0,471623572448755
0,464289302507665
0,477377282330977
0,460305741400361
0,467296137233758
0,458532283963836
0,449202249797239
0,450278360628434
0,457651654088194
0,450077387023947
0,451305637840841
0,443464089658069
0,440603547696919
0,443913707457099
0,442373891281721
0,434709947135541
0,440932236484192
0,430199629618604
0,435496317491337
0,424127205289731
0,423727441339683
0,423135534461219
0,418854900350996
0,421419650138063
0,411231525855423
0,408752987058435
0,424039144298159
0,411293581159124
0,413916806253668
0,409565732094071
0,411461513478715
0,401920847152018
0,403314085693689
0,407642511290962
0,412447347670213
0,399199699933
0,401422879916055
0,395200521453864
0,396688575162303
0,391278419091605
0,39493905467753
0,393528917287437
0,394012780022549
0,395619314409513
0,401212185953974
0,384274556358504
0,394710346864524
0,392075667874421
0,393776175205924
0,390341469849479
0,38665222365872
0,38879128931415
0,3906981953785
0,384111821329168
0,384961868167044
0,381652722466002
0,39115593527691
0,383063964684748
0,378264446549153
0,375749876888299
0,385049660978461
0,381722665328567
0,387998457592294
0,39216399785668
0,388594913740438
0,380321518271195
0,389658440565845
0,387861651742007
0,389934347555622
0,390392228769767
0,385857781207378
0,389034795257134
0,405531226446091
0,383336805865552
0,390459420042456
0,391381611092314
0,391726266908651
0,392498266400476
0,399644868369577
0,402165212903499
0,398782434909376
0,397500675327427
0,405582799610299
0,401275777312712
0,402687172317383
0,408632126709554
0,411323715553097
0,40880783022334
0,410969599790555
0,409306059636436
0,423595909861633
0,42427493581449
0,424609990293245
0,424466316683216
0,429628878051911
0,422964200813198
0,426089416918477
0,430020815773437
0,432995861217804
0,437690833119071
0,447335621102005
0,436592347964681
0,442161669765828
0,452531872976085
0,459464215262344
0,455476313851578
0,464327779006679
0,45985775705297
0,472101170225731
0,474534432783811
0,469885640027165
0,472412244450183
0,4868643594481
0,487835808203162
0,485474470561959
0,495551437338804
0,506395817708026
0,494486847496274
0,505305503743853
0,511206090199888
0,510281109163897
0,517040841118547
0,516366494876164
0,517134660780701
0,526543945834356
0,51943235206212
0,522832117508865
0,536586871847113
0,519521868284411
0,518740107464078
0,529241657369906
0,526188785343597
0,531034096252027
0,529776513507019
0,532851886521635
0,535076729419324
0,526715160215539
0,514917040541915
0,525597458864229
0,529863587632136
0,523428217737353
0,518936370253783
0,528031036809574
0,519805328532038
0,514002120301632
0,510730872692574
0,507081854451839
0,505472116258398
0,516126739232442
0,525530495930705
0,509592809956049
0,512974931206267
0,514040214716924
0,510099038572953
0,508207107229082
0,511484505254548
0,501651467894196
0,505330963178138
0,520216265411177
0,504331426218381
0,503512861907502
0,505073290930247
0,515517090421542
0,505644891368358
0,514450643000504
0,51176637168577
0,509284631788368
0,504137488715392
0,507814938733019
0,50126206645929
0,505078527786141
0,508808779635647
0,503825926929004
0,500564058134574
0,514569938578911
0,509426413043688
0,497962863819537
0,495008280417795
0,495347849817625
0,490863742600021
0,492046843999736
0,492665096573615
0,491938939665197
0,492373938173487
0,49261027473564
0,477213519846011
0,484795235355139
0,487165177971995
0,482054002755449
0,474007659515264
0,466399627482018
0,460067005210725
0,469269266226542
0,467098235054102
0,461527431456136
0,470286671205322
0,461071761759198
0,454051878000823
0,453888784966648
0,454068424595663
0,4460867672574
0,438254322227836
0,440971997223378
0,435580182124644
0,425678064746978
0,43763418712871
0,435600239324461
0,427336878383691
0,417985895020434
0,413108362569216
0,41455791012068
0,411837280366573
0,406750923954888
0,414593544152393
0,401479074308419
0,403441896871893
0,40494672067194
0,392264191673885
0,389586287160339
0,387602863787979
0,39389283965614
0,390378172859902
0,384882726219785
0,387288066361135
0,385792612881869
0,380050505052164
0,388390469714694
0,379298259396952
0,379192616021496
0,375832051007408
0,375745022113479
0,368816434078944
0,373032735697083
0,37041474161773
0,361180402611835
0,370150998907933
0,366920673223779
0,36411740691011
0,364050746611346
0,358336076906736
0,35935641717111
0,350840292872133
0,349988002472137
0,35775403908488
0,348053291928258
0,351631293131575
0,354107865847669
0,349371847308198
0,340671880914794
0,34264119432004
0,350538687317498
0,348184331102767
0,340232448074634
0,341067981831016
0,340364480351484
0,336210658043636
0,335064300849986
0,335999277525701
0,332604145293672
0,329379150341271
0,33372912078118
0,329650897628854
0,329689971142118
0,329865138645299
0,322500554431998
0,327668406914715
0,330072018915927
0,322005278712785
0,327026252809629
0,318379847784107
0,320006746618327
0,319070794572295
0,316488622483492
0,318345210806101
0,322405163745765
0,317434436169667
0,313178128215459
0,315951655739504
0,312704073311701
0,314281957676238
0,311790943284046
0,312653494276338
0,307980471747054
0,309602674413165
0,31000060667218
0,305818890887093
0,309328316731477
0,307584158949332
0,306393476635678
0,303698850271852
0,307313391321902
0,304336140424161
0,303969238546932
0,307434259900156
0,307312187499276
0,302050745974392
0,301033525492297
0,302052694601796
0,294811885515021
0,299071610422634
0,300664102298684
0,301635353238692
0,304146424476535
0,30144528273299
0,297574309367605
0,295967925709342
0,297123981822895
0,297579696793352
0,299578501068371
0,294313904028254
0,293798399306851
0,29234280877032
0,291472908817271
0,291975501372877
0,291805541204642
0,293072340729192
0,293197244734254
0,292024608914769
0,293825680227133
0,291698287269374
0,284177231750639
0,291522376082838
0,288227399571211
0,285253999971886
0,288123630203672
0,281306237650357
0,286449820080027
0,286336910737816
0,284841100450312
0,29001922746725
0,291756525513342
0,281630606301346
0,283817984999737
0,283811427590191
0,289760539723342
0,281371972271872
0,280352286745663
0,280233700457037
0,284729397979014
0,279809602737013
0,277222895946013
0,280738281043905
0,28120673318228
0,281531903822418
0,279178052663815
0,275165216710578
0,278739960895262
0,280979007874118
0,278621411698935
0,27894918177314
0,283631544942379
0,283523570895028
0,277234663551983
0,276520206468978
0,275496556179743
0,279455156297826
0,274723626721738
0,27232497575474
0,277630646183606
0,275798067839621
0,274471396577941
0,26880856262572
0,271267035945037
0,273863946279094
0,27240689190915
0,26960268043656
0,267698986350994
0,274847152869668
0,26991090865822
0,271287059427111
0,266456397950303
0,272503348611816
0,273580876611184
0,265290007542524
0,265090994775665
0,264335690047094
0,260901813551053
0,269395512978389
0,263093256450391
0,266125488121508
0,259287052992184
0,263017390690515
0,258420900125796
0,261947152357729
0,259764624830297
0,251451742065418
0,262501168403038
0,264819291435062
0,263182674104655
0,262727836767164
0,261118130056255
0,264277168544069
0,256643029426354
0,252331727514517
0,25493162500467
0,256369784643428
0,255755783037285
0,25458005012925
0,256618712081008
0,256879084917817
0,25061418709847
0,251002471727545
0,252903479153478
0,257309729765432
0,253966903617859
0,254672120345351
0,247303110089788
0,2533747282953
0,254897373421334
0,252169915221429
0,248327047673113
0,246036240660251
0,248165898942055
0,251192912900189
0,247875394661405
0,245387771107189
0,245924772594201
0,244998961343026
0,238156365810885
0,246759110618069
0,242079534350691
0,242339923163216
0,241765014040659
0,244625973167047
0,242928717424709
0,239152574886907
0,244284931633425
0,239873761433841
0,240623148633436
0,238201819212701
0,237458555140084
0,239719103932124
0,236618099848308
0,233315508584242
0,231611239408987
0,23179088926601
0,227140309697406
0,234125304252207
0,235511259231204
0,230623375826044
0,228078886701653
0,232360855093497
0,226152461910121
0,229576859961145
0,233417913456822
0,231818635865217
0,220631338338552
0,224783250647795
0,222378997596016
0,226038153136894
0,225246310377082
0,228613514867353
0,222859435856193
0,222447425362062
0,22020797252219
0,217138240910759
0,219798231384282
0,220280331691216
0,218811639125504
0,221989744049788
0,220416058323456
0,213344597583354
0,21903561038661
0,213136894792536
0,216536043449991
0,21485062608068
0,214456963190938
0,211122991562139
0,214380794149595
0,220010216796507
0,21668393646738
0,213929256283881
0,206805605667244
0,212848011936743
0,211872773404364
0,208385455631158
0,212680398916079
0,208063605371001
0,211693781380063
0,209547643979312
0,208186222467713
0,208199679948373
0,209046120372937
0,203288836244673
0,210629310996275
0,204258751674119
0,208198738051685
0,208338861428758
0,203750146248526
0,208196786859462
0,20825413822503
0,203009102686978
0,205835760652523
0,202809075722911
0,200239527080173
0,205319665193564
0,208180647073564
0,209448796206299
0,200797682972604
0,201125418234878
0,198899612620526
0,198856366055465
0,204089894974149
0,198374856808681
0,198512581787529
0,197023602648782
0,198488807364759
0,203522966521505
0,194114517782429
0,196421884920367
0,194713496050722
0,20018138602771
0,193789967094585
0,19622346054066
0,19436703532412
0,196157581483401
0,190728962142591
0,198025795653782
0,19206413272307
0,18956659389398
0,198408556349189
0,194731695170367
0,191811693337864
0,19152635579325
0,193987355237233
0,197233197899093
0,19026891377861
0,195282490827783
0,189967434593846
0,191536508717823
0,192431966857107
0,195071849607013
0,192899196144835
0,192756509039417
0,194318534533923
0,194730517537397
0,192692636838234
0,194252171479048
0,186437110432778
0,190025264258457
0,18770552852606
0,193034620970851
0,190738450332012
0,188657118859724
0,189736855971367
0,190463808635225
0,185027481363776
0,188285739541523
0,189624783030032
0,189626326744378
0,188082604897266
0,184541573995817
0,184322800587836
0,189753814175788
0,184476047912304
0,184521289715508
0,186209568269476
0,186656473630139
0,181263954569708
0,183322502823041
0,183911686204349
0,181870587640445
0,181892368289039
0,181735063952362
0,181034542124744
0,182090456800269
0,181867858456309
0,186112034157387
0,18448112951827
0,179891219191569
0,178346449727711
0,182105924438631
0,177682666545809
0,175293446599457
0,179333239153439
0,180881620030519
0,175866759968307
0,175384464755266
0,181960966503045
0,17702692903839
0,178949058876395
0,179728479855869
0,177650568285315
0,175630984246605
0,176622737306603
0,180131394291824
0,176336693639255
0,176406195731168
0,17725897091472
0,180195726315564
0,177856155293304
0,179347339840613
0,174987077638977
0,176812710215219
0,176838658776497
0,176180046894156
0,172804067808864
0,176282579422425
0,176319602754028
0,174824180682289
0,174820464147428
0,175320591444782
0,173072907701735
0,172608707602202
0,17315409976539
0,171020906423346
0,176592616048534
0,168983218273564
0,174529010078555
0,166678524163871
0,172044087757754
0,169317626566581
0,167095318210332
0,170233199148222
0,170670401884116
0,166439488811621
0,170772341780074
0,166121748009343
0,168129877207904
0,169346606703891
0,164220338500746
0,165742421960008
0,164972124808105
0,165848483730603
0,168747372618421
0,163242691778251
0,165160676273803
0,161553222247215
0,165156732743175
0,163442570565491
0,160055452188341
0,15960611209909
0,160425497896316
0,159747149860922
0,160080325005989
0,162778436895622
0,164416460915976
0,160210551914895
0,155922607062801
0,159527137176406
0,158101555013958
0,159925493516845
0,156199722386405
0,157412401944276
0,158522000297658
0,159017948742312
0,157703468640861
0,157051629912106
0,15519441726542
0,1557371980306
0,153192541869896
0,153266124852001
0,15469846161487
0,154762223123585
0,15587443917985
0,150851132199242
0,155228313953256
0,150809714730991
0,151179770175056
0,153866524840761
0,149178299427837
0,149405142323143
0,153501130871433
0,14877217160228
0,148957667056906
0,148012808144372
0,149674181685627
0,149340971879539
0,143236205333525
0,145725742997213
0,145224383290771
0,144970094388387
0,148828745128037
0,144030096232881
0,149269124634207
0,144493743719551
0,142848935583818
0,144477998323177
0,143105593222296
0,142935111398003
0,143286810467676
0,141243668794569
0,137494788869602
0,139292294863037
0,138456529743709
0,140596977104458
0,136205825147451
0,134129946750385
0,133616340764523
0,135883964285896
0,137824404932917
0,138708852032411
0,139324210818126
0,135194912826705
0,136207048674281
0,136778356580703
0,13453105983405
0,134000830737285
0,134870449617174
0,130944565905016
0,132017178251069
0,135384919818702
0,134466974335229
0,134064370305242
0,129917259083615
0,135302172177759
0,132451242486981
0,131494310079339
0,130100243638276
0,134279030708201
0,131660511372485
0,131730737113119
0,130318529577188
0,134210735943457
0,132524155312966
0,131130316096098
0,136568018302987
0,133975253984857
0,130879009609728
0,130286748685138
0,133140588521825
0,13810856254737
0,131750627630038
0,133811849221059
0,132988939120124
0,131023757809235
0,134664752686009
0,135096041099826
0,133054555976038
0,119486227506492
0,119766115796952
0,118462112290928
0,127248960653526
0,123934359378756
0,120126873501347
0,121889976326985
0,119904729779984
0,118208398039239
0,11959049646713
0,12432493141429
0,118848135498069
0,120201031724887
0,12117927536635
0,117775256930412
0,11955900379044
0,121118193309739
0,126160096330419
0,113443834309172
0,119232121341435
0,124488716195725
0,122166186754581
0,117529115347117
0,124577059137547
0,116197916501854
0,117243591432927
0,114284731250712
0,116865615899553
0,104525581807694
0,115805243786116
0,110577185105574
0,119915298003576
0,112927174400185
0,116180479961513
0,114701385770855
0,121922620341116
0,109461788767985
0,117989478775247
0,106756415496993
0,110878272671962
0,112161225807649
0,121877212638841
0,117715048369934
0,120444818581017
0,11069906290013
0,11163286189956
0,121142995814909
0,127688943256357
0,112985414573819
0,10840010070659
0,11910078923756
0,126350783786066
0,115823420187388
0,109009982057089
0,129429573195868
0,115636681056341
0,123245467143074
0,110864028983695
0,127640177099756
0,112622280294874
0,124124013600486
0,113574635033251
0,118241831510735
0,113111210877434
0,113740272837093
0,117810192732198
0,111258974890987
0,115862222538565
0,112692159492016
0,116081413626826
0,110619530217533
0,113731895980228
0,11386273793946
0,111208515029427
0,115009339793028
0,11060250755714
0,113287026679451
0,11283318368875
0,113771983529002
0,112440434795769
0,111543686843683
0,107085358854347
0,107059232699927
0,109166428178294
0,109836142229417
0,108259393000398
0,114537865719097
0,110483178270026
0,107360465540615
0,109366796050467
0,110496081529313
0,107191850646893
0,112037088719535
0,108703253673712
0,109007982875356
0,109953296837442
0,108755781674517
0,106368747163343
0,105961282564891
0,110801878037603
0,109454206439665
0,109158394658909
0,108774191517457
0,111069346345682
0,109865679518061
0,110301090761803
0,109993893224593
0,109107650977529
0,110972669921836
0,107446303409786
0,108341498017383
0,109696319584051
0,110604927577306
0,106712141348822
0,107175816516297
0,108042769754525
0,105762096893187
0,108728185141868
0,110327559533586
0,105960731650471
0,110076699295577
0,107797685426548
0,109582634300063
0,107137633581706
0,109984624805273
0,108800302858875
0,108817944332381
0,108655838380819
0,108472753894762
0,10998018104492
0,108926081159405
0,106670383853811
0,107155870991523
0,107826064528599
0,105694542829673
0,103857254071045
0,107677837409351
0,10878301749111
0,109152213216421
0,103946171803754
0,107302338812526
0,110752929896863
0,108584371601866
0,107250526830288
0,104601205473077
0,108428202381533
0,108141851398463
0,107621464901064
0,106814969679829
0,103673988102433
0,108441381820536
0,107817097184864
0,107206486238379
0,108967851438497
0,106807220869392
0,107362906717814
0,107788509852871
0,107197144622129
0,104561810181657
0,107963072400165
0,108878859189097
0,109036319923606
0,107757998119854
0,111171332179273
0,113422944092339
0,109649284171331
0,111177653689567
0,108665591642721
0,108083607279122
0,111854377799447
0,10883340157835
0,108901858984279
0,111252303323107
0,10930415246874
0,112410532997653
0,111340952103336
0,111543402949221
0,111432377035039
0,10755556808248
0,111304872720791
0,109996635367234
0,110960070920964
0,109505601978558
0,109388883187724
0,110757287506705
0,111293119913264
0,110631746330407
0,110226469293471
0,110929185409424
0,112741075767775
0,112366556720875
0,115000262959488
0,111407844905261
0,110190784915374
0,112521067566669
0,112562011705163
0,111707722223207
0,111493024005615
0,112766083670413
0,114408397706604
0,112783484678368
0,108210591738297
0,111653740293945
0,108629590682136
0,110485157269972
0,110411921647918
0,11150144921912
0,113795275282792
0,113777156023599
0,111645061565887
0,11277660448498
0,112946539196787
0,112819776260608
0,113041141782734
0,113373420964103
0,114907144443373
0,112651203129038
0,115152583645906
0,111732629578403
0,114917626376547
0,112408530401063
0,117967100379276
0,115884708076014
0,11391084280246
0,113876861334057
0,117863508387382
0,116735304697999
0,117379752294469
0,118740833391668
0,113801204298893
0,116680332118723
0,114478175428919
0,114267495919067
0,118584839244141
0,117898577526212
0,117783219066524
0,119106630995741
0,1147850233624
0,113795477590909
0,117280545038371
0,116375808060698
0,113524355144676
0,113694848308522
0,115217120882154
0,115915782588159
0,115210125397713
0,115516061987687
0,115615285541132
0,117310390949818
0,113932065038921
0,114695123790086
0,112852665436831
0,110914313757233
0,114073980785983
0,111144153521936
0,113253845929129
0,111251461519181
0,113496903402365
0,114205079008242
0,11340241561523
0,112888783425583
0,112417920629093
0,11302431019723
0,113124205348627
0,114062502176296
0,113366251235336
0,112716906266493
0,110290161046034
0,112503286653043
0,112059921352142
0,109274840104308
0,113500532410294
0,110153423979576
0,111988224695248
0,110817110989169
0,107993191429066
0,109776609215176
0,111043738837028
0,110212322178855
0,11025532612195
0,11031182109822
0,109230818300329
0,111297377522977
0,114177942043812
0,109751104615166
0,108819236781487
0,10727064849406
0,109005330599931
0,110185113704848
0,110599474368135
0,108651243179489
0,112308289607767
0,107684185276405
0,110759370913832
0,111077355131766
0,11062028013796
0,109520001312234
0,107438080574671
0,107864520027533
0,112467080019788
0,111515715431768
0,109319334735541
0,111605840074558
0,108619695811348
0,107518812290306
0,109480741020283
0,105910842063256
0,111202116717307
0,106513479284296
0,103632891841117
0,106448562814972
0,109682044691592
0,10678992087574
0,107997366348111
0,106065045548373
0,108896701958582
0,108827255194807
0,105800761334306
0,104934186779628
0,10408444583424
0,107013285995503
0,108417106609168
0,105557425790555
0,104123982667313
0,103784407813119
0,106861559442338
0,108627019459101
0,108294828006783
0,1057830391019
0,104926279170842
0,106325155702859
0,105817439981686
0,105396560548415
0,102571968310136
0,10835334874159
0,105507795009555
0,103890204377639
0,103416462683965
0,104824890065388
0,102766017863994
0,104066333254547
0,107063103438463
0,105438721121728
0,105618491339878
0,103178617293255
0,105178605985528
0,102903430158897
0,105273698139913
0,104998207079778
0,104428829238095
0,102211695588289
0,10551118298325
0,104054249186181
0,103646584464787
0,102284756577468
0,103519529270641
0,10122327539957
0,104747847573901
0,10117758184404
0,100990800682668
0,100399350852695
0,101754667884035
0,0980488889163256
0,097950927900725
0,101104470381771
0,100437326771118
0,0989606390449418
0,0990432719516435
0,0973267272474093
0,0986920858756646
0,097323051806526
0,0978281326651119
0,0977114692996567
0,0961304272212462
0,0949572744849653
0,0956859065652932
0,0941064037874103
0,0993246512362261
0,0981208056267022
0,0991844849533856
0,0937292873470535
0,0959689984890087
0,0914066051319132
0,0949107369160507
0,0923011148933163
0,094226690158252
0,0930688312697483
0,0914783809453989
0,0911936686649788
0,0918777525775004
0,0878324189668835
0,0917233428357787
0,0863492610109638
0,0898801101113946
0,086573329966764
0,0883197192972927
0,0883907969965902
0,0893930156871949
0,0884868361020419
0,0892239018420329
0,0866342585800693
0,0879023116153212
0,0849815855666657
0,0919204079562371
0,0914318680044201
0,103927607935819
0,0881209388486907
0,0854052671122011
0,0925138689232356
0,0890957038935042
0,0854395116306078
0,087186124028502
0,0864622931865665
0,0872673375507614
0,0863609499955711
0,086573212729693
0,0864266729971435
0,0860036188496903
0,0842800888569108
0,0860087317821544
0,0839314360455268
0,0879409175202167
0,0842970672746409
0,0861397863927118
0,0839291797140202
0,084774149540504
0,0842767612769681
0,0855730077514045
0,083218057935837
0,086721902904739
0,0842382650255562
0,0911414626237146
0,0940651309629971
0,0855440187773186
0,0870007621699368
0,0838822003312799
0,084709358783574
0,0829565127442307
0,0833606467656327
0,0824070322750611
0,0829402130020313
0,0814793801103371
0,086264350932062
0,0829637707682094
0,0800587264141102
0,081565763114637
0,0786424788034681
0,0840385224845635
0,0812491589072499
0,081075964781895
0,0840424967745124
0,08240704607364
0,0809752942230444
0,0835911529681395
0,0840014742375448
0,0831634562337111
0,0828786549076653
0,0864344179770993
0,101325058517663
0,0880038877256043
0,080781566000503
0,0839385985608703
0,0793938276061441
0,083574579249489
0,0795094146193581
0,0813441000105162
0,0785555876828689
0,0820734637697313
0,0787997631188495
0,0825724076269896
0,081225699278078
0,0820262674448027
0,07890837115105
0,0834325892826557
0,0798691769248915
0,0816095933737183
0,0761338743645864
0,080591737882918
0,083257253779908
0,094966500911033
0,0873643897441922
0,083111098823293
0,0772918491421568
0,0827787353863942
0,0860938166232051
0,0991800072327633
0,073639710176365
0,0853058637055952
0,0739927604475416
0,0830942383072869
0,0754191665246611
0,0818506100648112
0,0784500494380496
0,0889360138629663
0,0832215451674189
0,0843650223742836
0,0799113801834232
0,0800850081966005
0,0764388413615911
0,076356805840709
0,0765531820299449
0,0780000633103333
0,0761195110723857
0,0794171223040942
0,0751125703812751
0,0787396839229087
0,07548872115936
0,0794656460881649
0,0802537942829778
0,0884967852246227
0,0762672916784444
0,0819109975800996
0,0726132145486442
0,0783145865288274
0,0819509497753993
0,0942210325711219
0,0827875806740809
0,0759492924549845
0,0783681699333234
0,075949962720336
0,0786542254161141
0,0774107880829163
0,0779133836558399
0,0759083492272871
0,0774998175506975
0,0780689128146608
0,0790125578115129
0,0770439020859928
0,0771818076264203
0,077194146319516
0,0777240882727252
0,0761878178044729
0,0772171344556691
0,0784196710502141
0,0766653943160424
0,0856436735815234
0,0874115084567818
0,108924990473395
0,0874964340263417
0,0937438147159618
0,0827406274250461
0,0769608544037865
0,0773641722409549
0,0772760032053029
0,0788595170420583
0,0823371724076937
0,0729077730733834
0,0750062465022968
0,0798439632894952
0,0753054040474281
0,0737060407784859
0,0741201204628776
0,0750793290489579
0,0753841083811918
0,0771402177452075
0,0749027077176858
0,0779574114310492
0,0711943942797698
0,0810978652936769
0,0788845602814696
0,0906751409247637
0,0694461252924817
0,0898333978078244
0,0900041828484492
0,116395760609375
0,0829804648422533
0,0810527453295899
0,076335776771924
0,073504519179951
0,0775391304167409
0,0786257851410474
0,0837229988593489
0,0763132403667631
0,0763475181799648
0,0760249436788645
0,0807475469388657
0,0773563882436403
0,0783093498566717
0,087516821204308
0,1076254496512
0,0959082713118237
0,0765431701474703
0,0771655471803803
0,0884651681726581
0,103016918497318
0,0907809444379708
0,0746030754287996
0,083811207950194
0,0744290652060875
0,0836056487237701
0,0727697568918549
0,0835547887359849
0,0810856606635341
0,0810775958109889
0,075867564400072
0,0771268180297103
0,0799780559138118
0,0803311537597213
0,0840273337966985
0,0927957820815231
0,0887178158908318
0,0819730160483377
0,0833784152517054
0,0892657071110691
0,0772954252809944
0,0801257939535598
0,0758710811281175
0,0861121450080364
0,091892277397512
0,10039246871313
0,0919785567542206
0,0980494820991594
0,0959404232698441
0,0826178074793445
0,0824885860393691
0,0993683170989685
0,0795877395386628
0,0916225755514836
0,0876831286268014
0,111497110974605
0,112063965040228
0,0965469873944976
0,0965450727578549
0,0741199352809329
0,0915302614821556
0,0730936119514976
0,0944868291932369
0,0855066301463751
0,102135483916816
0,0686865399540824
0,093361303639067
0,0867193236351114
0,107221396739927
0,0871426833651404
0,0906963063495743
0,0827393860216161
0,0920277192372194
0,0970287187144183
0,0956084536444601
0,0930000819838482
0,105301620678048
0,136988360951462
0,106875786933487
0,0978188463068649
0,0964926715348402
0,113029651852577
0,112008842624635
0,0816537963068619
0,0944725985357029
0,084601504841036
0,0891882770150348
0,0961934631828295
0,119551216283761
0,106438611744654
0,0912106844568596
0,096581161564506
0,100776037778468
0,103511757835381
0,115829284429982
0,0867866530497761
0,100879273187137
0,088250177003044
0,113508467352788
0,110505177989508
0,141947584747724
0,114074038375522
0,138287931368105
0,124307599449895
0,113169930981992
0,115230654797514
0,109284605328454
0,125373158031039
0,125514126812557
0,10771886872251
0,106014222762969
0,127548823264145
0,125164161878122
0,122574748840342
0,106821949510345
0,118645788175281
0,109840098490389
0,155891967742339
0,180799905883462
0,155415010712803
0,123785414795769
0,132475832642128
0,140016733868522
0,137541040274458
0,11635895432835
0,125434675340939
0,121217042019182
0,120961723027121
0,129358000109335
0,13186869419687
0,135639499940459
0,130609015594869
0,129590047751571
0,133172275699221
0,159432340510742
0,205663475243785
0,162853948900494
0,177720907752093
0,157457563603636
0,184711495612126
0,145155578711106
0,150584119686553
0,140227565917586
0,158689062406881
0,148320726850269
0,147245148420219
0,158021535259036
0,170172209758266
0,176109150858231
0,178772950058286
0,170199480287621
0,172339969304696
0,146721873851921
0,221348799270949
0,204526956319628
0,240355599644261
0,160612873657686
0,20139085883579
0,180651992675208
0,243817729360674
0,197218523170254
0,182413900672341
0,175984664849114
0,181111854671554
0,185649740911354
0,203381548725054
0,202730427264173
0,218408612689077
0,197698797803635
0,216902534261392
0,208303959026255
0,322346172616472
0,277340119874434
0,242407835169718
0,225005708651145
0,245034643204255
0,24298835109062
0,244838150685091
0,225508121861161
0,23871230401013
0,258360380325371
0,288674887105745
0,272919200831592
0,243773723289713
0,284628805621065
0,270770994977967
0,298802305119368
0,283114619778732
0,341400457457486
0,286598645843085
0,295250294129255
0,291108825866502
0,294138877437505
0,308307428845168
0,317767008672538
0,337575248489955
0,312388265509255
0,322307373241153
0,317344994886167
0,321379919373095
0,32468717064338
0,326956799285932
0,351676253674442
0,373989870975797
0,426313655844789
0,462155472397097
0,41023996162666
0,35853829326861
0,344258661728654
0,368667971639811
0,375813805814196
0,407279452370769
0,375408681556845
0,396145809268528
0,354151884129298
0,361224510944432
0,366713783375372
0,352154763184214
0,372796131290737
0,355873517284288
0,375926176258875
0,371291137784493
0,387043250487719
0,381768314176552
0,427726877519708
0,384856173345561
0,354243134469801
0,369147842669285
0,355660018484892
0,351514994237123
0,352789572613994
0,379423354012231
0,361256012137413
0,368159492592448
0,34047156046455
0,356867965083595
0,355614631618219
0,388691440290103
0,343187384297789
0,339659468510586
0,330785025897619
0,332560084001498
0,327185009609164
0,350131370991475
0,355179182914944
0,338810003578565
0,304807294097315
0,323042175369361
0,305922635634535
0,319271126347945
0,294255086830947
0,311403188428827
0,302436894134546
0,302051725932112
0,291095255980465
0,298228510878994
0,280227714484374
0,299464095998991
0,282727430130376
0,291619520734956
0,281503830786355
0,287178969205026
0,277583087985403
0,279795754874137
0,273266744192969
0,278773689807992
0,268550291860094
0,280780128697539
0,267824630149013
0,271075085901934
0,263299517722155
0,271752725924102
0,257969242252091
0,268791367966232
0,251709245800699
0,259403665527178
0,253059494865109
0,257305957916843
0,245594047858896
0,256894878997883
0,253269310961394
0,252209211529407
0,245320383169345
0,248055761992934
0,251281697658331
0,244533187638378
0,26178066721861
0,27932226903101
0,276965754934886
0,253531009717384
0,234779287111997
0,244722339949665
0,225177048257695
0,252112468197202
0,263606541415579
0,276065409225785
0,236205054644294
0,229631365119257
0,231975282691168
0,251649593445436
0,233435713215121
0,238684392264766
0,207191831939998
0,24227400519343
0,22936812644878
0,341573083786402
0,317595450377568
0,317909585311641
0,245954686331239
0,216198493443464
0,250998165486074
0,242881786942807
0,233512975978995
0,202835156842984
0,218944329291863
0,246767106311638
0,232892687124434
0,215048705799802
0,199508596642766
0,212596496221738
0,23988012124297
0,246409455844957
0,233199267226932
0,243191431434457
0,248438879223229
0,24812968294538
0,259377086591246
0,300508156101395
0,230291904704873
0,208332317248171
0,199014101430345
0,201144568451237
0,215150956739417
0,24311278471373
0,223766247473644
0,206641963389959
0,192692104398389
0,196050124912786
0,19646541756299
0,227122700886586
0,193810306440877
0,234678465344357
0,209323556555651
0,217601642652681
0,19090490311921
0,241894485163673
0,242306979152594
0,270282287172979
0,201005018787333
0,196102628924982
0,234161375463899
0,243456828394531
0,219272287892922
0,204297947818791
0,183317552674439
0,209044196988463
0,209092187304128
0,205112419094389
0,206983525073749
0,229279839868449
0,250904816935714
0,26169141903645
0,292851332050132
0,26025878133709
0,212899842354997
0,195150481434036
0,187718911476932
0,210707124771866
0,187431822566087
0,207158381154242
0,220415469620747
0,210399735604233
0,213921145737639
0,232864776229665
0,222177430195708
0,199847982727429
0,206223135755067
0,20732471276826
0,220662507933752
0,255872644811621
0,26564197265705
0,24938891234897
0,248730835965404
0,248901392504513
0,241153447020923
0,22573631653755
0,238972598705961
0,232887115819037
0,245435030864891
0,26217617800616
0,25483788613741
0,256456371568372
0,263268139061914
0,268536046486854
0,31197492296295
0,296104548633965
0,303993664065274
0,308618237514474
0,340411647531159
0,365937729855364
0,339104670191301
0,322962070307759
0,31892571037098
0,335777779857006
0,33500596349436
0,34181037331653
0,366331317292893
0,385055237089341
0,372423902987533
0,362846452467747
0,375115509482335
0,369519982876266
0,388016825212253
0,411458315424516
0,427001681169504
0,448844892622174
0,44090343772778
0,442266919134016
0,399911038719055
0,407353553204835
0,411850274512683
0,416662291003557
0,405218284892455
0,40473169112646
0,41936294797776
0,433623980283881
0,419129044317485
0,409198427125475
0,412861766530879
0,414670406062225
0,415589277066249
0,423865354037583
0,417709539714438
0,426530182478347
0,431523823659163
0,433718986919571
0,448594886200964
0,504136823462659
0,469992833805551
0,451850763594771
0,45251452718534
0,462978977883113
0,446246769910149
0,457344252412947
0,475352810103344
0,477197611575695
0,463021324149187
0,471292956196061
0,474290123890504
0,465647438106635
0,499676556121287
0,503946272969768
0,485885577648997
0,480716969202003
0,475590379152131
0,537992439651854
0,535229454861864
0,522769944867079
0,505719053418574
0,511799093920461
0,492669255279373
0,500462884867535
0,488433917065405
0,509653716978957
0,498321264712438
0,501955106059057
0,490656625629075
0,497118404226682
0,495302595888402
0,487875903536287
0,500534199452703
0,515380144264041
0,508268725841462
0,497101769686019
0,486817533022529
0,489190477509734
0,483802166348601
0,512875312154386
0,504567713091727
0,497811476861062
0,478270669336595
0,505987833476798
0,501506014561454
0,491731108459297
0,474183344553659
0,475523565461448
0,477384233082314
0,482964930780891
0,470028263895611
0,489188587640283
0,510798009540356
0,504734477147911
0,492179131879263
0,495507795894859
0,482993249409418
0,498168280087656
0,490368557710805
0,512476313023197
0,5055989424281
0,515369129293924
0,515774357606101
0,521803196914896
0,520161059550788
0,548704503575904
0,553297121222957
0,550895621854363
0,526417820850633
0,537309699682371
0,527689287575241
0,542296398980457
0,54163794593474
0,545216727353218
0,529526126963289
0,538151389524333
0,522525504539502
0,544333867705616
0,547837116661258
0,546790138505828
0,536621362648506
0,529492917781147
0,520916541072997
0,529190386066729
0,517545315261843
0,516604335980935
0,510506926123966
0,524346831940627
0,511812793779533
0,511531364632583
0,506497372641592
0,510692455621552
0,504953578357906
0,502937748837208
0,502963645030648
0,503959794441714
0,498992807265801
0,505394686774958
0,494670692474051
0,502245858386945
0,495249627127203
0,503721588753068
0,511476062288559
0,526026488255483
0,522193925599877
0,515725582856041
0,511522462241191
0,503170133398167
0,495985956117082
0,500997330028417
0,490269060439413
0,500343363870059
0,490529377905483
0,492800590118725
0,492900350418173
0,49387213721623
0,491161113213015
0,487758443536468
0,479846305944123
0,483420974903696
0,48407599829582
0,487075407067344
0,479465181372943
0,481472816586778
0,473206203482997
0,486481427132428
0,478709259653485
0,475921727650856
0,469135794954917
0,467858110218753
0,468195661504657
0,474027143728493
0,465526792897388
0,473707606350373
0,4599541843041
0,458628892529391
0,463817376344433
0,471250481381174
0,46045526017211
0,4594627316733
0,456809982270224
0,457218410645652
0,459649273326089
0,447558442983059
0,451130383786124
0,448037744705701
0,447647709669834
0,445360365108244
0,43852480338294
0,443078888160011
0,43663900117238
0,43203733729725
0,431747296918293
0,427662844427914
0,419767530058893
0,419365086389771
0,410243333583701
0,411961166464163
0,411541675223592
0,420876626957754
0,406025125464951
0,406434278665758
0,399309201432665
0,400881128318816
0,396256198509012
0,399888446054961
0,395671700718433
0,398886073795448
0,396372767190236
0,399280805242021
0,396967128629343
0,397961329334571
0,399811109237629
0,403929971418729
0,399431690233018
0,402355598930522
0,40340750650109
0,406059298078852
0,401647014481554
0,405629529779486
0,404410450623385
0,40663046680857
0,409266306829872
0,415892966613962
0,411013076253527
0,417799953789801
0,415619405103542
0,416241367345894
0,420538372763178
0,420501659315637
0,419250680908639
0,417149507554447
0,417905146168569
0,423200308292473
0,420513234071313
0,419066280188806
0,419025183995999
0,417225775071159
0,414752636920197
0,420379470973707
0,417999231127677
0,419409338290765
0,414829758230927
0,415113379069627
0,411589284677657
0,419842751032356
0,415517136584867
0,413906071553583
0,408662187382061
0,411684058221686
0,408672807739848
0,411651046222856
0,405195308228689
0,405320431357496
0,407198418577905
0,404800904131008
0,404632841482003
0,405429077452801
0,397624992134828
0,403566890801826
0,397426035514556
0,399108487743363
0,393900276874787
0,396905075537396
0,391347490266456
0,388774093646925
0,388802505452069
0,384059279584863
0,38236900649043
0,381902300147271
0,375393841881187
0,375760757179413
0,37043291061557
0,371561742382415
0,368007334408704
0,366491182043557
0,363973260744763
0,363868653061062
0,359257903245201
0,360875379868581
0,357085300235818
0,356819992914429
0,352372684945304
0,354779136824229
0,355010491329186
0,351779806494128
0,352100397276603
0,352423531543194
0,353156586033789
0,352564509344042
0,353976454015383
0,348295666662419
0,350672176483082
0,351647314042334
0,345458636356295
0,346333817299969
0,345427826302532
0,337730377212765
0,33246725172044
0,336101904674568
0,329867242025107
0,321542535667305
0,316101007529773
0,314732489901777
0,308454716654879
0,302874104073972
0,299591443880606
0,298537761116102
0,29596049288347
0,293591125324772
0,291519400251715
0,291592261489165
0,295822709047682
0,299390113690673
0,300472555724225
0,307910913543148
0,313873648041602
0,321604652354537
0,327056749731202
0,339521410586748
0,348499882544662
0,360235511628751
0,371857818224827
0,385795646598094
0,399307721488826
0,41316439103098
0,428983209581376
0,443913065811404
0,460367117554761
0,479454931818361
0,494903110127195
0,518066943204275
0,537815658077921
0,561601977480888
0,578082679387776
0,604286021882236
0,625409144982546
0,648256980129609
0,671816999683781
0,685478988815272
0,703238971469821
0,721282843333246
0,745694999861536
0,757918618034549
0,76776380707053
0,777431332799601
0,786665523388563
0,796561720734167
0,797025976010708
0,79400472198806
0,805109186024557
0,80713098518291
0,8037504688205
0,796285890648045
0,78794613056774
0,788885474195377
0,779433293150147
0,768083241557863
0,763560979729354
0,756739423163493
0,754701585558867
0,74758783126342
0,745739556679606
0,741765417878078
0,746354250343132
0,748999802984758
0,740343280228405
0,744794063908353
0,743296489483888
0,754173040865049
0,747431168589655
0,759839856216531
0,754991199010153
0,774234528085942
0,777186843470788
0,788130000556145
0,790098708693964
0,807786929310821
0,804063185176853
0,820922459837519
0,829865935404733
0,830882821894789
0,836371365811218
0,840353570874543
0,847865364482924
0,855203365418712
0,868664256001705
0,854606739503655
0,857485331309611
0,866083397506794
0,882732074184768
0,867088060995391
0,8689706479458
0,868386122663265
0,874426231545654
0,877106067668017
0,889271608374746
0,891210399896724
0,891444595516326
0,909961527156363
0,902855261982068
0,921697841553009
0,916411043542529
0,920753702644797
0,914515564698994
0,92417712747435
0,926126564555247
0,949002099925307
0,948071725545934
0,951626667718668
0,974696933735831
0,978022286503263
0,985705845634671
1,01918958676749
1,02360111101276
1,03579146615658
1,07144463021616
1,10944345725361
1,13927157604989
1,15045276064519
1,20032801303041
1,18486741335814
1,22786535665884
1,28227104300545
1,27811005746668
1,31369860667768
1,29178521246458
1,31310360241892
1,35244071933402
1,32570880294253
1,31520185216197
1,3559955214135
1,34709028272553
1,32813722793918
1,3228944606841
1,29956084583607
1,30771005701629
1,28629245154431
1,32616138896582
1,28479270601321
1,28892787371666
1,28394429960438
1,27758663589637
1,30925386016341
1,29487028583349
1,3374496730799
1,31509244822742
1,3217228116623
1,37294210102131
1,35311399067125
1,35948368569939
1,40436055872086
1,36482523481399
1,41144217619665
1,45957437489024
1,49597869288023
1,45474567843047
1,48356220083403
1,51167184307871
1,4631911842
1,54933652571125
1,54658995888496
1,60708612783927
1,56222380335319
1,62533511703095
1,62591050455721
1,70364350630722
1,61350633680294
1,7431915664717
1,72451647280692
1,70595844989207
1,79291410660223
1,79042590885769
1,79796443836012
1,8723411449309
1,88826178345197
1,90956170688935
1,97419776464057
1,93845112482856
1,86923188835205
1,85349282066233
1,83885764268278
2,42875759443776
1,93808629185746
2,05592876745506
2,02483106428153
2,09651916077851
2,02404001617115
2,15786452996186
2,10688611477971
2,14842621248356
2,07975025537013
1,96658110531322
2,08135638863028
2,44425322589703
2,12383634223667
1,96881655278428
2,01673094933629
2,00123345050126
1,84772722811927
2,02274630223543
2,10949237850554
1,8272470225775
1,82148074687812
1,80788000926615
1,79413225487657
1,96029195921526
1,75376303850142
2,02622887055955
1,78383270349561
1,73334404687124
1,74532354058444
1,82002126393939
1,77213944367533
1,7742542514399
1,63715165980104
1,75298465115643
1,62895677429635
1,62616887477109
1,55067816404558
1,71304954378987
1,64789197630279
1,58094687276282
1,50052885470087
1,54197974737075
1,46690530066525
1,45062617473826
1,43456214453375
1,47112657169879
1,3861242587509
1,36960689479487
1,29050931892687
1,27557497575833
1,24356801580285
1,21954267447922
1,16938563328129
1,12151717548877
1,0930045702496
1,05013278604789
0,993811103368014
0,962209662568727
0,92951095589973
0,893256436003077
0,849836038601987
0,818374451856771
0,78938713044084
0,774188452221688
0,730276889353577
0,708633405651114
0,690033134983385
0,685583507673249
0,650515732226251
0,651157009143687
0,638653141378701
0,633621869499898
0,60548930584562
0,614024640416542
0,598974726598001
0,590255658933654
0,583945050844434
0,591624187892195
0,585327389723447
0,589698299131937
0,586506623872945
0,588523506727331
0,589034249750148
0,594716367570867
0,612240395056975
0,594578492367945
0,599887840841001
0,616601732658407
0,610866923029447
0,614259615932748
0,618497356494577
0,632894914541826
0,623941412957838
0,629997827651462
0,627938437364992
0,626211486422968
0,616057266222991
0,624474625562401
0,624639926858631
0,621510399854429
0,624119032424912
0,626863125635491
0,638144795447093
0,632857540769678
0,638258652153321
0,640887900849674
0,642490449117382
0,628258081083296
0,631992568248218
0,628355596681109
0,623900630583837
0,62206558379736
0,622237510408985
0,62645020912281
0,605144780173289
0,629183067214011
0,612984339464845
0,606330461995073
0,598418590811999
0,590398007441656
0,588359091275139
0,589069990401141
0,594146650177991
0,600272009282257
0,574467764988536
0,586623057137588
0,586763828732082
0,581015111792398
0,583871234673981
0,595686320047924
0,591903973209821
0,595909972092842
0,610335691308574
0,609984921713056
0,614595925686989
0,635116439787376
0,633180588187707
0,640924478014504
0,63496431971239
0,636957538289106
0,634856722887724
0,631809810195003
0,635143692394331
0,618826727140372
0,619527824693878
0,61104199683631
0,607957362111238
0,590381288305315
0,598209769817175
0,58488226645802
0,561667093881421
0,574781019788419
0,571057066158087
0,564083522524987
0,558189475003669
0,566874931460306
0,560070748437437
0,575253549479903
0,567269724593385
0,575637000129527
0,579961003988481
0,572199251882141
0,566421010736619
0,57551755487979
0,558644804019035
0,572614642771191
0,56092800440629
0,573148779649526
0,578598201868053
0,576600876083878
0,579898239890814
0,582647266503093
0,569989370531246
0,585099028450857
0,579374335903972
0,578704536170969
0,569896887120489
0,57848704439983
0,560603915591757
0,590045941536642
0,594147633043254
0,578778138483493
0,566405869283515
0,574451490841658
0,560640800861248
0,564700436740799
0,576055715101589
0,561228275063
0,560041490828519
0,586828519334269
0,572683317324232
0,593297623266865
0,564159053334998
0,559986478976101
0,559078512979248
0,567230694697488
0,550659180151254
0,545840613219172
0,547489200511326
0,553338735042578
0,532709861865509
0,529040938315871
0,528187923245182
0,533042857523965
0,533514476524844
0,515268955462578
0,517395242749046
0,520121261467504
0,502138794431039
0,512758507669413
0,509926382525969
0,51459588755566
0,50813885011073
0,499134163558617
0,504302856415067
0,487946096144042
0,506362010630206
0,517525015462702
0,512573752705234
0,500842348495321
0,502811845087169
0,507704028649142
0,501297097040834
0,515990351831271
0,495675608907456
0,522235349163398
0,515763159521424
0,525956880577061
0,493736417601113
0,513609120819265
0,501024626600219
0,546874994823282
0,521856245614144
0,530002630617124
0,535881292917614
0,558850676784373
0,532828654513779
0,553581364450485
0,537149160286096
0,561193636932211
0,54833712248028
0,582733634430067
0,602204152412433
0,619445688810585
0,598891785262752
0,628269006609952
0,632523153064249
0,641694049286955
0,626904569692084
0,627589756370374
0,666656433454633
0,67879748203797
0,676551853046466
0,708294956757141
0,67576917627866
0,696901790908471
0,705652889271452
0,734556098223009
0,727365335763346
0,755173500704559
0,729833672886662
0,73695409137865
0,713359732223724
0,743852359665371
0,753891376974757
0,768420644634857
0,730284335325597
0,767120446197242
0,742664242623541
0,813189121775246
0,782112492581172
0,79524287505444
0,805080609944011
0,777641237357786
0,821743085879675
0,790205302021785
0,776248952912398
0,774706715495013
0,789432065976104
0,767009253383973
0,794233579097585
0,83686019268073
0,741056964675211
0,77199895420675
0,756170105672419
0,803151892833246
0,781296317540088
0,799016561526567
0,74242859063491
0,77468434380743
0,76601238804716
0,760066555627872
0,722333913015529
0,730859752077658
0,66638820642763
0,729141788213652
0,710078156087099
0,7747415413333
0,738505104709129
0,698242970916079
0,726683591949892
0,724917983849809
0,728936709402421
0,76158020772724
0,681031300976973
0,827571047144778
0,733255664997721
0,710012446885432
0,785853162626127
0,772637627972803
0,70246095423504
0,775716016087916
0,751909817572796
0,801637880515317
0,78889837666085
0,779267498248307
0,713511432815181
0,771727477594188
0,802826246008481
0,825182576090497
0,844719516464347
0,792618657284787
0,823381717712882
0,788218047884253
0,791551248955434
0,777359140448839
0,672150154671584
0,781544198477023
0,793943218038459
0,838923360933766
0,755117769337701
0,923379723099445
0,957345085395027
0,878417002735489
0,876290851573686
0,94997729623228
0,920885528384533
0,818027514282461
0,841312104483389
1,0664743911088
0,973710914575106
0,940668921522676
0,812104287636435
0,754650801740006
0,907628491028555
1,00139647037067
0,884658606158138
0,923019472977579
0,956494537325168
0,927512040972674
1,06347240704232
1,18272776518932
0,77317185551387
0,969392355838533
0,987665315526424
1,01782281813483
0,777291387897806
1,05299360626118
0,846071609423695
0,889216327353376
0,902888650866817
1,04988225223842
0,99097093953717
0,793467274711314
0,894763173162073
1,00030852623315
0,922252185141291
1,33570269155484
1,03716472614391
0,808441590623411
0,8242596758902
1,47003031688294
1,19798137567367
1,16725190051252
1,3560812946038
1,12909003285502
0,633326074665939
0,72664625514502
1,18826843294235
1,27551860494412
0,922864747982582
0,382983314516633
0,715345006469277
1,51564119047732
2,23590616536483
1,13470688872891
5
1,26187471605493
0,803717617248416
1,05998429373185
0,940017368332968
0,574129170198094
0,634044479297815
0,785262494677689
0,830766431475322
5
0,814422757036107
0,869677964336203
0,878242531026561
1,61808432894847
3,23419178164843
