3596
4000,36533379555
650,420452594757
1
2
2
0,0810848119048517
0,0988279920721809
0,0866859149448986
0,0950577490920748
0,0827416030591519
0,092789543699168
0,075195395508542
0,0909360439049575
0,0759843069463169
0,0966996192069165
0,079102850010435
0,0979363549212544
0,0802592167712984
0,0935049987310162
0,0850102312389371
0,0919676118781158
0,0801784805632553
0,0915580369132243
0,0832649538793616
0,0901711457940223
0,0857372488555878
0,0834902672569344
0,0760387991355503
0,0884755562110987
0,0800791319110301
0,0862293214769836
0,0827220669666241
0,0892370994506301
0,0786201033181511
0,0919646003211576
0,0804633058489087
0,0888164983287209
0,0859432594219605
0,097820984153119
0,0830945385120063
0,090527863843785
0,0836941483617438
0,0967889992716481
0,0791942990541422
0,107978674295364
0,0907810478559936
0,0924320007636413
0,079520771334882
0,0900251974268033
0,0792595297434268
0,0939046028047578
0,0759334061624456
0,0871633619505869
0,0803506087920064
0,0966588051864824
0,0854588394876423
0,0951688629969064
0,0878471798488524
0,102098818853581
0,0902524403899132
0,108535910671985
0,0912585891450089
0,0966302068152871
0,0775019842530242
0,0890532309190789
0,0984409758442651
0,104559361309305
0,0884839152309687
0,0849398079839476
0,0854981887535556
0,0915489918801763
0,0862288717683984
0,0917622948407473
0,0743463968114912
0,0819212061419362
0,0843211586558577
0,116289914413597
0,0942642930647646
0,0949719057032495
0,0814769794860524
0,0990470704185631
0,0720625425615966
0,0808605293679646
0,0738094617178914
0,102401663065769
0,104553775412956
0,100743931331528
0,0756039023855914
0,0685525304007125
0,0925288855661453
0,110937502251753
0,0739346728918108
0,0988553560585864
0,105511470179507
0,102514855297305
0,0720767810814952
0,0838812899761327
0,0744816926818522
0,0881242711100815
0,0746477594176443
0,089996138688289
0,0691145402673718
0,0826697297394421
0,0742033393566771
0,0988540880464948
0,0855926292622626
0,141401213794043
0,100597704439845
0,10926130579607
0,111683003981579
0,104398351230063
0,0788450088008839
0,122041444534476
0,101388163542545
0,0901765436615036
0,073193969464079
0,0837285586424979
0,0875395679110478
0,0845001387591686
0,0801906519600042
0,115190656422858
0,118660471343392
0,0962905916539311
0,0787344956069179
0,0799599980806341
0,0671292146862486
0,136177240251716
0,106740563644098
0,100283713392895
0,0819593507826284
0,0819635131531572
0,0768211885109872
0,152148962121262
0,0969598822992937
0,0887804844668039
0,0680781276184737
0,0884499213134278
0,0570451777721394
0,0998407925207327
0,106958968054479
0,10983714153416
0,0747079195334347
0,0955532508525335
0,101555775134661
0,152998427119709
0,0879655497659109
0,0857067420294639
0,0623646066881748
0,105229614386647
0,107877072099776
0,0964406846719321
0,0750094382968588
0,112681620787451
0,0781048441519602
0,0932997753201316
0,0609931215309163
0,0760059423162256
0,0909807876743372
0,0846856018634272
0,0488617349840358
0,179131623300068
0,123931705639112
0,156142705374645
0,108512539223055
0,104735595627422
0,0700969220543131
0,0985173358944269
0,068790976773358
0,0811302760877442
0,0708671800084512
0,07851630442492
0,098257870296492
0,115880190314955
0,0751778740983097
0,108586854651968
0,120752954708461
0,095399417935331
0,0784940287476938
0,145041277641479
0,084571106106964
0,0856905690174956
0,103017441102584
0,0977287243978066
0,0585666967584338
0,112450101333265
0,0983204590676838
0,0952094319974833
0,0685752714003789
0,084134552644645
0,0811319415846848
0,104622411054312
0,0739980873865927
0,0927923214020892
0,0643457928986075
0,0756953988742889
0,0877885533621685
0,158426273261262
0,102537733654816
0,101110177700809
0,063394372761653
0,0858555537230966
0,100206197643796
0,115137746095816
0,0756046535361078
0,0841705603505673
0,0697434510861573
0,0796936752141685
0,0614792135136122
0,0939845672191582
0,0483883745437331
0,0803408980499694
0,114929182903145
0,106701942425966
0,072667866413376
0,0841058476742416
0,0614520008034354
0,08483175418701
0,128636995774085
0,121691482557532
0,0801546729245505
0,0805103060783218
0,0761898541188391
0,115740278846555
0,0778094229186047
0,0798195110356904
0,0695290665659101
0,0772896628703289
0,0591612255955307
0,0812207159783136
0,0629232444059986
0,0836851899295885
0,0702178158229695
0,0761041600047241
0,0718645402349338
0,0891551963580166
0,0788167730433043
0,0855048876805304
0,0720247272250704
0,0848562314412058
0,0609280054026954
0,102224438581592
0,0911537644539168
0,0905933224017888
0,0735782908731154
0,0858804841779369
0,0615289393886353
0,0851207597024226
0,0759290262113467
0,077992831235364
0,0551474117702943
0,0964951373842494
0,0949362323102265
0,103577484979195
0,062281494466958
0,0772562038593004
0,0896064885389894
0,0971707657751415
0,0725455597007586
0,0842845525796552
0,0723189493848088
0,0729790407860237
0,0797368930008499
0,118445456654415
0,0773679933623164
0,0838511627362975
0,0923372305641433
0,0943900189641155
0,0726091401736963
0,0776131313172086
0,0804520166273432
0,160028863084489
0,102911902286642
0,100568685787012
0,122348513039163
0,115214844484615
0,0881570126087002
0,077152026107805
0,065393757411217
0,214387448571368
0,141356449327678
0,0826860048576766
0,0823008134560857
0,096605242543075
0,0741017914853076
0,099290244361226
0,0725002164152506
0,13156730704368
0,112267866137943
0,16890583964985
0,130057351514951
0,101405032511133
0,0931782568232412
0,106414760394766
0,0847529217367003
0,0854487567641556
0,0632675888495929
0,0763361213422724
0,0934248332412938
0,100739051495402
0,0966836159711938
0,0943905124629586
0,0873109384094921
0,120215770612471
0,0917816578683695
0,0772874255240727
0,0849076833824246
0,0963372995713871
0,0722864306590528
0,0863397285140183
0,079023469992051
0,0996282414451978
0,067555736545302
0,100635519096844
0,13136665006131
0,107382804721337
0,10172152223467
0,136408511461841
0,0820852252352301
0,0936299106660571
0,0713498311617837
0,081342018215232
0,0764890225038508
0,077164341711666
0,0766156429231665
0,112568914786411
0,0879817251842672
0,0929640572462792
0,0823262083038596
0,0854771775725408
0,0831742408453468
0,0920468398874162
0,0759987193260468
0,0938507478589111
0,0802389138932851
0,0897588711013354
0,113293619175462
0,128739867826222
0,0768809760421438
0,153041169487049
0,128638789179541
0,104747441096217
0,0824979226581875
0,101970370722082
0,0883944416647687
0,0975014996559351
0,0830950452034597
0,100064050467691
0,0973316556745389
0,12778139155637
0,0971640035363658
0,108313828600858
0,0976355031998207
0,218396710217341
0,152975461709654
0,147556844602056
0,0936951702737706
0,104389400500631
0,133264473059385
0,142154027051618
0,142173273613604
0,139149729772115
0,109916833158562
0,121666277878839
0,107583453702738
0,118100546053111
0,106439474295664
0,121310187603069
0,108469156534969
0,122220554533304
0,108555489355825
0,128509172667467
0,109948490850173
0,152916986553901
0,166025936080014
0,14558770072237
0,121533984926295
0,142072851733481
0,123104527351592
0,177859612939422
0,151171059483743
0,232195344505433
0,150104904462722
0,202592175703688
0,174696975377816
0,174686217075138
0,137133523664897
0,15042348100632
0,144877629248017
0,157951910208748
0,143389926608529
0,156623322294614
0,15215970557419
0,165351795640768
0,145672971604004
0,162862861456957
0,138163051879531
0,1751965325583
0,172886799549381
0,179354315947652
0,160012994714241
0,167989848031135
0,177671159633428
0,268314198797738
0,21607446322164
0,197434484195916
0,180613630174417
0,18534733662414
0,181141719591807
0,185481035183106
0,177851680829269
0,199113141141123
0,182503756847276
0,244012764949431
0,200540406902182
0,244965556458745
0,205202230750089
0,209670478667999
0,217454676592632
0,228219010838701
0,220435012543312
0,267546206426563
0,207593390304477
0,220947885938205
0,250582447364366
0,24198328591516
0,240172255011475
0,248860012969103
0,218505509227731
0,239838905144647
0,218284701125455
0,242388081851382
0,233253356627179
0,266773128766886
0,239817624524429
0,266702750119007
0,25562208229973
0,255158696237189
0,253238802820168
0,297452063719414
0,250438257635961
0,29021038056491
0,266966256969869
0,270145727563706
0,253501785944861
0,276068491797404
0,302559544425594
0,331767151093324
0,312762520888178
0,32320870402147
0,285204696402103
0,299751843203408
0,288602313388088
0,295924628519518
0,286292785363198
0,339284875645649
0,303894267390046
0,315379054561124
0,305721279032033
0,319263413653452
0,30054171167616
0,33375492530545
0,314794490156754
0,346639068789974
0,322384346384144
0,356584409114865
0,32559232774976
0,360394951533211
0,379239592655052
0,393950159299927
0,410842082227144
0,409954394671452
0,364491564365598
0,385518356858821
0,373159225400748
0,377776138711415
0,349508483812858
0,411306633139488
0,361998048160098
0,415574975511436
0,384194806088525
0,427044683488745
0,387583370868019
0,443782145428787
0,396836341748829
0,450338510085694
0,407111321771608
0,448236971921603
0,400670446935726
0,445867026238867
0,443035594964001
0,472932340605007
0,420831662236229
0,494696063858469
0,439468458562037
0,503972364910836
0,447073896328387
0,478562743120359
0,452477950797125
0,500590456436182
0,457509782324493
0,504774410695312
0,470465184430143
0,525814193710682
0,466197954163736
0,518548959014949
0,468315530869126
0,519480103595808
0,491994345656772
0,550943002736826
0,498959748193447
0,53862190213057
0,492912482499804
0,558519618909495
0,521113237187138
0,558607553614137
0,538878409363977
0,58694265930269
0,536804798141027
0,581350866799634
0,54118083063324
0,582167233009989
0,561113081141518
0,584937938951922
0,550989660542802
0,602729522519489
0,538304501268721
0,626620034132861
0,566673043880094
0,65496054031607
0,584378817637272
0,651551309128751
0,618048546008887
0,639518949152149
0,607279902513301
0,630668602302026
0,62826750766915
0,688721084956434
0,603862525072761
0,638224080619395
0,614911128823441
0,689409195615442
0,61278623372662
0,673085426546439
0,66260993062251
0,709237952961828
0,652892228695359
0,70734093476904
0,691529318046291
0,720462089525547
0,662468776490265
0,749190587356738
0,692636621400708
0,726626096586014
0,72702830999843
0,756684637165
0,682558695609514
0,770601230295747
0,741670406135807
0,788834644551134
0,730520956858835
0,75887028013405
0,758140724246018
0,786396275511033
0,776327768238305
0,804950592058473
0,728688639036872
0,792712113927807
0,74911135500207
0,835515298025156
0,772735363591164
0,822457200409649
0,73490266500681
0,838486333830481
0,727468438696439
0,829515706947646
0,715016582814751
0,840682848104978
0,785273441752204
0,83881253754854
0,772509384663768
0,848358370902748
0,842687390505557
0,90626591265656
0,809356208025897
0,941572541897338
0,828888506612387
0,909161347071677
0,819605026489378
0,874519013138997
0,876176249285203
0,97335552077552
0,904901532443341
0,904966200548095
0,880690831231539
1,00142908971987
0,87757994047511
0,903187865744422
0,901062963154986
0,947955033993489
0,882135174221104
0,998196888490286
0,838504536862252
1,01123797540885
0,92643519817559
0,962981910056719
0,901677365551649
0,907239131316461
0,890529071826294
0,968099648747994
0,888116539970363
1,01403014620355
0,982522696396272
1,09960104312717
0,950418711290197
1,01972421718931
0,924762520007539
1,0863073654779
0,938666555409409
1,0328487377188
0,987274646322207
1,03917561890055
1,04636286249485
1,10726047497605
0,892236456791736
1,02535640518117
1,03822846532141
1,06114245874532
0,988981424204078
1,06943857640971
0,941909357537183
1,12902908880145
0,964020594921168
1,03003286148569
0,952205697795345
1,11218106139478
1,06598329609967
1,10893824769939
0,957701904803219
1,18346946548071
1,03948096791595
1,098688216029
1,03391478916031
1,13498184915683
1,05853096567159
1,0644869078469
1,06983778513615
1,12923244154779
1,09748406762186
1,08378434610001
1,11007898630758
1,20653231762201
1,05479661402474
1,16326985030028
1,10917611014138
1,20486511241477
1,07176635715468
1,07154127088686
1,0804639618649
1,22056357158029
1,07611548406908
1,21528778143885
1,11465719845971
1,1831777822278
1,10413905229744
1,2139099559248
1,11217601282734
1,25873414080944
1,10956986837223
1,19201747794566
1,1390301220903
1,24871422934569
1,15498518630594
1,17739238474609
1,16144981356216
1,37466680720683
1,11731213251832
1,35426524651318
1,13745373914158
1,25105685531311
1,07361825918295
1,15096023596592
1,11737188762932
1,25535606814082
1,21153591816658
1,30547126961825
1,14633040955973
1,31844979215099
1,22376343526123
1,21765548619617
1,17762399765553
1,27709223409071
1,13681577830762
1,23362114097067
1,16122316601479
1,24808309805133
1,17506032797338
1,24379713913495
1,12763080899675
1,32646061389358
1,11542822844594
1,32652175256206
1,12498146085769
1,35817203248971
1,21297462853035
1,32883497920806
1,24256863756954
1,22140004007317
1,21825834390625
1,21850433960846
1,17242671283561
1,29913892371275
1,34856884355119
1,29830499670693
1,16099633420852
1,25912626062951
1,17296014854365
1,28951727858936
1,21363778776233
1,32083136252393
1,22636410019222
1,26580437002415
1,20622077744818
1,4028829027348
1,24494779378871
1,24911508782062
1,21397621472726
1,35904046750055
1,19569532229894
1,27953957687253
1,14771266001448
1,24188601800369
1,25216914949538
1,35349346275497
1,25053978201167
1,26318240630881
1,31942862445034
1,36654162989855
1,25321850971624
1,21440328807344
1,23377467906251
1,27515202165539
1,15332591236135
1,19102802197096
1,21237967271771
1,27067354309831
1,25960295993061
1,27666559399911
1,22548165188809
1,29576154257752
1,24582059559452
1,25658568663566
1,27364078840634
1,3157169159755
1,28503339198095
1,32158401184072
1,28208319847866
1,33489959038948
1,18706766294846
1,28410376404083
1,26515810873099
1,32202867056003
1,18861892728689
1,40088785144286
1,18127473879342
1,19190693058848
1,20202894254978
1,32358680679584
1,21579062487939
1,31393601820052
1,16703729063598
1,25519005702321
1,22923115829468
1,34415772667778
1,22833726142714
1,34985858035002
1,2288086114342
1,28233240708159
1,25749401962185
1,2865960435613
1,2638151108611
1,23983962587667
1,27756091814389
1,3388425692272
1,14878367121166
1,29491700345694
1,18155777810032
1,22869225374537
1,16016449868991
1,29966479788936
1,21581095453683
1,31269081782396
1,27775015062376
1,30566400460461
1,20150473257514
1,22834861648919
1,26791206574044
1,30323487353618
1,23349085585286
1,24918596766938
1,22054372810891
1,23757603888463
1,16857653061031
1,2229265085467
1,17505827603954
1,2895300538897
1,17650985655177
1,23884748314603
1,18249899197002
1,2135423296223
1,17348178793825
1,23408678877384
1,11685809858632
1,16555015837209
1,18739235426886
1,20256577024647
1,16718026428256
1,22644331731973
1,15841995774884
1,17763125730227
1,18167629095619
1,12666726779423
1,12180684920809
1,19278806756752
1,13134060160736
1,23255394140517
1,13955479499365
1,17078681908712
1,14441911417884
1,14560144032519
1,16516625846158
1,17868390106045
1,09903688601419
1,10470821521814
1,1018842945206
1,13052307650474
1,09388034169116
1,19128409759718
1,09615960513524
1,12349455616719
1,08505069330519
1,11882693141173
1,07310702066064
1,15878524519249
1,09320888225342
1,11625939967734
1,13250814837268
1,08466029522675
1,04540836304621
1,09246488172487
1,06171318146118
1,11417710571005
1,06641450528844
1,10335517175556
1,03786231343356
1,07165464893835
1,03124249616488
1,065601619636
1,02020681040984
1,07696583837075
1,033277263809
1,10339801776974
1,10357291009673
1,03268019505423
1,01205971349283
1,05752027419569
1,02177971619281
1,03883222256938
1,01736007474359
1,04629201670362
1,03260459721975
1,03451349601936
0,992667160169471
1,01555330052066
0,988746102424789
0,969797916413431
0,964407042399097
1,01323845205411
0,972717165191451
0,973064150773974
0,961108015674637
1,01571768202362
0,944574049964527
0,976356708546028
0,969625315544923
0,970099899667082
0,922473921902954
0,961674098304656
0,970531122430703
0,967517260929371
0,9320910697587
0,931283518537104
0,923131535403272
0,919383968962378
0,90812666818961
0,921940579748961
0,902379135880669
0,91389984656701
0,873149346673114
0,913600076756827
0,904771236986193
0,905217901551641
0,880246623755569
0,883625803028563
0,852373212267595
0,867326377613968
0,872482821680668
0,872733102943595
0,835762053953985
0,853667732901295
0,869575273805936
0,85970167836706
0,822854587779263
0,836891540986595
0,81670854588582
0,85110673273431
0,832133173110926
0,820219623542924
0,826252325253989
0,831965190432797
0,80448595882096
0,822060624309848
0,791945007371398
0,810839964979782
0,793481548815393
0,781822381648455
0,799910235158348
0,77077404693348
0,749068886852215
0,773549063894682
0,754567646909251
0,777390697746044
0,763277059137951
0,758411869602795
0,732759731419723
0,754911147101746
0,73516534821718
0,728987239965044
0,733764398108877
0,744944310238958
0,72512496220494
0,73542930136214
0,741442941236504
0,72368485415692
0,690827017616006
0,711667105161398
0,696360843302879
0,688488782519396
0,685270608628127
0,693022481981938
0,679594204003168
0,685055263548064
0,660351173450789
0,665252014081002
0,661164598501717
0,669528664519431
0,659811478202608
0,667180024839565
0,649117418322724
0,663669419213292
0,651239994071679
0,654906162415682
0,642667390166936
0,648681158485333
0,63877356885578
0,64443273858412
0,63110413765661
0,632361478762523
0,628716031604624
0,631801557773025
0,63962581420953
0,642506388632057
0,6069176563574
0,59867901756246
0,584619102545174
0,60581216017828
0,591354897804897
0,59974592698516
0,582502061725266
0,583975966492607
0,568594276037336
0,576393102078408
0,578434758567628
0,567754178792919
0,568744197333981
0,559347776037451
0,546974852795292
0,559737173417821
0,544987585374567
0,564973846725645
0,544907597078851
0,546850261722979
0,550013517105217
0,542175761976921
0,52812853527852
0,544696718743627
0,535166291287609
0,535626519294479
0,514579252080845
0,516935716895201
0,523091925621304
0,523438119504879
0,49799981415232
0,51559808753989
0,498538536696646
0,498481610229475
0,509894577511046
0,510268417646186
0,492836647905971
0,501455358747722
0,493535817575185
0,494271791089168
0,492430740019068
0,486980089415963
0,477013173966559
0,485143818560336
0,467539304710281
0,468420894663109
0,47675298762612
0,477122006241098
0,456716655249021
0,468441118097842
0,461412653840869
0,457379773015331
0,458505242553863
0,462390275208271
0,45314509275486
0,452503948733321
0,443524328534143
0,456240825382361
0,438303657469451
0,448519904300548
0,439541301262081
0,434743033771073
0,435731484877749
0,443462696889904
0,433662526591336
0,433779317341391
0,421846012434186
0,421386022561682
0,426198260994055
0,425538092524792
0,409227127198556
0,417324274477452
0,409129112643118
0,409739165631319
0,411563158665883
0,41225875132221
0,406167246819126
0,404451085942957
0,400255926022283
0,403903824116137
0,398467988864743
0,402664650160406
0,394441384831371
0,400755989370426
0,38901129056547
0,391596945366893
0,390578413170517
0,390635396244837
0,386510512711191
0,38702168587291
0,379090236508507
0,388734598318624
0,383739088466987
0,384331085224311
0,38226637131324
0,383346375884228
0,369237300580704
0,374846564535579
0,369784859009223
0,372368421841256
0,366769341121346
0,37694052097193
0,378875751521701
0,370677295190725
0,365063856368467
0,369592944627959
0,368111569774191
0,367411814597245
0,367418471238991
0,377319145577198
0,36369588078531
0,377741381997713
0,368348083545171
0,366784443157315
0,364700027014838
0,373830263002221
0,368561757686307
0,371344910573663
0,374733674110252
0,370667587172704
0,368020829223548
0,378084639972014
0,372913189829775
0,375724863434537
0,369366442151023
0,376795215225271
0,378840014463879
0,382996353891758
0,376283597781332
0,377883119312784
0,380504742600259
0,387958615857008
0,377908425074737
0,387433392990844
0,38645241319729
0,391224393940887
0,390780968231882
0,393115792562522
0,385379132898312
0,391989635732871
0,398136725960873
0,395406186847069
0,400946636915139
0,403032696713431
0,393883338196008
0,403645292046167
0,402029520153589
0,411225597860766
0,420599193946119
0,4196133275154
0,410981117062326
0,42070303422473
0,41638247418129
0,414609726471998
0,422799989220113
0,430729640417562
0,428251277098251
0,434869168443257
0,44054506491503
0,448449789028546
0,447464091951731
0,457553595835609
0,449842874528272
0,463959663846155
0,467647446596492
0,468403440594231
0,471296289394468
0,474604114255956
0,475612489645732
0,486345414204137
0,487598854085712
0,50749194153245
0,506617325680028
0,508608382733897
0,502756436099812
0,504395678133545
0,514589155088389
0,512044897636047
0,517020651342467
0,531320995074145
0,519600911307946
0,507068891321016
0,530135378360868
0,541042893626457
0,519177375139225
0,524075481198471
0,521983861140794
0,517992284811717
0,532266223571466
0,525006019961977
0,523903041053642
0,530368592645072
0,519155341455399
0,521834465067574
0,512177745354382
0,518513872042992
0,523944793152262
0,506316051205684
0,509725925949704
0,520737879235459
0,514765713768207
0,514422249996091
0,509707125895899
0,517957613244969
0,51404662157439
0,500992637295099
0,502743324234683
0,498368003716974
0,501362952889187
0,508010828368974
0,510656402116283
0,496511755390246
0,492883176681115
0,507498772461704
0,498970090047384
0,503469404537672
0,499652866847287
0,498657546622766
0,49561055551665
0,500550233191108
0,491235707049468
0,498319699658822
0,493171663125157
0,493854865405402
0,499009829971802
0,500625532751751
0,498049734712697
0,504189604976196
0,490771588025591
0,49564116319783
0,494231589115718
0,489079882169528
0,493279252826927
0,485649928023525
0,472806566423349
0,472241335858155
0,472514317905666
0,469076400547095
0,473363521240866
0,473434604915346
0,462095902678069
0,457468692897747
0,457301989208335
0,461898643850811
0,45716378957367
0,450124338214849
0,454947550106053
0,446566220340509
0,441000214156251
0,454806994514044
0,438375279780554
0,426976226648452
0,430506292348355
0,428629541628233
0,428380848133105
0,425217664344053
0,412576518701736
0,410636235435031
0,416595177665409
0,422762945320894
0,405904876874782
0,407801297942385
0,40082859079283
0,391704502833996
0,397312239702847
0,399256412496011
0,39477577478552
0,38904687284696
0,39051152049153
0,386736251659145
0,38885839482589
0,382589731420242
0,374592366801331
0,378121034728539
0,367637717113662
0,367513027871745
0,362473986228281
0,368576661935796
0,367598716417102
0,366986675526331
0,36332077359426
0,363765110895449
0,362840619171558
0,360862797919032
0,356849715528113
0,357315273604246
0,353010190592375
0,353164261824921
0,354487303026477
0,34772141814093
0,345547354948778
0,348424700723167
0,346416671548388
0,349709180575535
0,343976560767424
0,340592558775074
0,338437864221087
0,337253273661682
0,336645257778104
0,335819944249927
0,334837555722884
0,331812602381524
0,336289445271742
0,331106735562896
0,323889165250914
0,327068428475339
0,327724213594825
0,327080345906371
0,321870665885331
0,320708604356386
0,31507999166463
0,312366779290967
0,318714558683848
0,318372389516298
0,312872938200017
0,311673784326668
0,308541662586756
0,313485839369943
0,308623738150303
0,309631973136633
0,305671258917398
0,303536388868075
0,303378158562789
0,307673249435757
0,307624669740121
0,299973767529403
0,306300553057434
0,300380461310899
0,294235536714791
0,29841205422518
0,301474466236543
0,299835351492287
0,301542374900405
0,291986120102824
0,296700945238718
0,291625208861995
0,291915592159337
0,292849648139513
0,292384645195512
0,290964857640987
0,288030721212579
0,292826323228696
0,288019912938886
0,288089895329594
0,292189707442192
0,287357925624385
0,285101786658644
0,287074758609899
0,28733849979132
0,289120252252507
0,289045295111917
0,282771474853848
0,276101142153457
0,283704497728742
0,286073344997076
0,284004047414287
0,278230393480565
0,278135523628615
0,277071815812331
0,284709832352866
0,280145199907451
0,278465726121775
0,283266597982242
0,275841589202872
0,279479714241066
0,274951240954378
0,274264876315049
0,276530252819094
0,273483255547524
0,272786714175665
0,269614321204344
0,272841663476274
0,272014707057266
0,277220998873006
0,274900215713211
0,268514293636495
0,268949390520099
0,270679126870141
0,266763615143942
0,2657839383482
0,269106368773818
0,268940008858759
0,264526348160721
0,261279944372624
0,26703185554298
0,269013692353223
0,262816304297024
0,262933558300339
0,26340618143004
0,265346841443097
0,26896489715323
0,268016830901648
0,264500160036157
0,261535282221459
0,26376960519398
0,262815303443297
0,263758201845364
0,255400015214206
0,258927939492063
0,258789722010127
0,261662218468276
0,257968831631087
0,255240582667223
0,262693852166647
0,26123060116487
0,257867943712947
0,259090737074461
0,259169065049932
0,255628292936172
0,251849682668594
0,260155529154116
0,256894954190908
0,257431033193743
0,255630174369983
0,253415721694791
0,254926963492279
0,252161010689416
0,260147205396436
0,25253743665705
0,252629330693663
0,249100861272476
0,250800898727554
0,254301899908509
0,251380148145432
0,252863561340003
0,247967600638521
0,246853241513969
0,250483390246102
0,247430387815061
0,247171471815942
0,248985432551222
0,245626543435974
0,241737996749881
0,243456337384678
0,245264495336372
0,24319939669857
0,240846173393229
0,241703315576227
0,238847679249647
0,242717711056761
0,241758163943092
0,241224546318812
0,239845430693859
0,240739881957438
0,242710366003747
0,23884328063706
0,242968706602273
0,239403929304227
0,234455168117234
0,234625944079262
0,236333093894617
0,232017556517841
0,230575084496779
0,236636443032142
0,233529382506235
0,227454495300808
0,23167918539169
0,231111013777647
0,2361577654244
0,22687759031179
0,233315588221535
0,226418793933545
0,229867308554898
0,231999036287761
0,224807593273723
0,22322475303958
0,223650498022599
0,229626197273485
0,22618842191912
0,224720855187871
0,224868657445393
0,22485128461332
0,223585266659109
0,226742478994441
0,225049960854641
0,219963806974538
0,222153851476092
0,220276238346249
0,219966602007278
0,222007859592295
0,217748018562372
0,21629635160335
0,221403831046774
0,217562928824757
0,212001564504338
0,217791215045038
0,214268106505297
0,214671658414543
0,213613885753209
0,210416929947482
0,210719354841773
0,207039306603803
0,208855337021351
0,209193158119081
0,210816601427693
0,208904938541909
0,211440722896436
0,20209293683641
0,203875130328584
0,205036716017266
0,204446791374098
0,198630405471465
0,204812345605327
0,201099501053482
0,19763608736966
0,202028505817746
0,200848266679228
0,198192636587255
0,198612971307937
0,198077861875371
0,198858941433195
0,201666281839759
0,200062863980426
0,195301590714185
0,195390330725973
0,194873336932387
0,195542369491435
0,19237037758829
0,188579180992062
0,190001361115025
0,191832847209191
0,189262920942303
0,192120289996535
0,191960840120004
0,191382658283492
0,190400925457478
0,192605395812357
0,189536844950022
0,189884787757408
0,187978712190962
0,187906932750982
0,188174034221975
0,188698699010477
0,186424843425664
0,188537874543704
0,186527514296063
0,185258299914982
0,185573195617552
0,179711687705818
0,185635055102618
0,183008968560993
0,179735491619585
0,179777753800282
0,182641671524142
0,185394446692401
0,179205267579847
0,179767481196839
0,181304427628413
0,179941701423042
0,176703912170039
0,180050855257576
0,180468174946733
0,17961184779668
0,17777383534261
0,177269521740632
0,180815111527767
0,178463182469434
0,176905877548412
0,17337286066721
0,172503802617596
0,17361929243744
0,172299355556636
0,177624126696332
0,167377832897591
0,174241713651948
0,171770037552974
0,172715245290899
0,168159329404845
0,172218402854142
0,17517530403167
0,173363593696998
0,168332444548111
0,176141050415484
0,17471216529028
0,169272322507506
0,16848285111896
0,168825199764424
0,173200385223789
0,169420978486363
0,169750559968653
0,171657263118733
0,165250151606892
0,170895003010602
0,170868418345583
0,167996064904607
0,169838307015401
0,170279226285214
0,170481559384217
0,167409533138732
0,169319934901822
0,168945164365771
0,163462986918059
0,166857322877233
0,166036369094242
0,164698474000896
0,1627618229884
0,168738870443741
0,161192933683287
0,164520026637818
0,167249806155821
0,171321425718454
0,162185093187881
0,162800692613882
0,165023184024467
0,162993521063768
0,163925079245018
0,162577131156596
0,158140889113608
0,160856132347618
0,160095935585441
0,160475764552223
0,156635140835004
0,160349218644518
0,161755984301172
0,158489176439096
0,163535208583066
0,162605465384946
0,157328543397931
0,158801094434084
0,158517965011474
0,157030230084919
0,15737667864639
0,157156094454617
0,157120899332059
0,15235681324232
0,154272936991378
0,155276251711077
0,155646544346848
0,153263602043344
0,156273029040783
0,153392759330521
0,153517160226319
0,156106883310912
0,159628466958832
0,155127427926565
0,155684930502901
0,154248439698514
0,15261267717537
0,152124749690553
0,152021171850663
0,152994911732876
0,155464993481319
0,15334502887488
0,152066531943879
0,152482186005161
0,156325658222799
0,15356741115088
0,152042423194639
0,154057345323256
0,151204367145039
0,152942730807163
0,153507951260939
0,15130490838934
0,15280182016613
0,150014242432025
0,150439186879195
0,14997211663676
0,152289264743413
0,148050372061823
0,144462222926966
0,146201104085163
0,150342318224149
0,148671685474158
0,149822345765067
0,149228297405893
0,146036190672269
0,149159286304002
0,146265691681067
0,14398989727006
0,141821027245064
0,146989547578443
0,145643148742458
0,143940849554985
0,142904334923494
0,144463582625606
0,143053585467147
0,142092222927448
0,141478155513581
0,139629245203923
0,140104547581195
0,139545621687311
0,140458977151932
0,140077260996786
0,137231271144618
0,135840238651174
0,1384949691819
0,137338461997946
0,139352379157167
0,136914899604117
0,132818100231021
0,136986970322197
0,135656199612326
0,137328939015879
0,134181778424773
0,13478257306443
0,134868886162537
0,131076924803925
0,135999235152155
0,132077708206633
0,132879927598729
0,13531503787671
0,133173777854849
0,133875710328571
0,130745881720082
0,132691519290866
0,129082183199514
0,131756809191392
0,132788725221935
0,131518462815873
0,130898410560111
0,128044350403936
0,130943577056769
0,129913424582544
0,129572604589927
0,128491905862261
0,125771218733262
0,128677992928448
0,128649321434209
0,127172374943287
0,126440308907957
0,126420151390493
0,127303044402919
0,125208160793449
0,125031316652231
0,121971580772073
0,124633559728834
0,122227977602507
0,125670959214228
0,122360948640413
0,124053699031212
0,12322222478745
0,122331944917182
0,120266585062947
0,120314072664392
0,121771404344119
0,118261681037306
0,119944636140162
0,118382652128103
0,118107791626899
0,118832778323079
0,121090740374014
0,118352731836664
0,115333703742333
0,117083963231875
0,116039201067197
0,114334024845015
0,115961648871682
0,114208324438322
0,113945032845812
0,115900112128387
0,116794115450981
0,113610773478378
0,114127958193782
0,111143669061218
0,11223261825096
0,110406013527207
0,110846730397841
0,109673297697989
0,112039539329016
0,109030941151513
0,110631392302011
0,112146096836565
0,110668861485106
0,111592500345871
0,11172723452236
0,114885227601505
0,114165877438703
0,11023259610189
0,112187841626079
0,112349612656288
0,112894618247974
0,11548797866591
0,114792550516747
0,109139735151947
0,110879467139206
0,116180396875537
0,118449256793639
0,113540978754209
0,114533755612441
0,110303034318448
0,115164989068836
0,118152874043295
0,116134637858484
0,109408440928268
0,101853189336729
0,098944516027097
0,101058102517874
0,10831355419494
0,105939500757675
0,0977442242617454
0,102669405045711
0,0988306024100049
0,0978605779700123
0,101108580286596
0,103019173557444
0,102528177979986
0,103530985391552
0,0996938306271607
0,0992344939025739
0,103521931358603
0,099942908530682
0,107078572727617
0,0983514875554146
0,106594189078351
0,106007641608199
0,108400758359408
0,0990679090444088
0,108236354140983
0,0984091856088024
0,0988400442872504
0,0960959623378922
0,101565974196226
0,0887078474453644
0,0998728267891318
0,0902014560926976
0,103967925562116
0,0963803859278329
0,105333820666818
0,0980769925658897
0,104590527962728
0,0977695884837956
0,100055498749504
0,0893839030430954
0,0937679208319223
0,0972814556172266
0,110318617973007
0,0988228273703565
0,104801375195907
0,0927837470548981
0,0928144381677413
0,105097084380791
0,111139315390804
0,0969528704323711
0,100346040781004
0,106661372233614
0,113524700355647
0,0975013871015243
0,0914826959999715
0,104858894742229
0,105897617461423
0,107248491979857
0,095983305135358
0,108085569935114
0,0944715115183537
0,103578878677795
0,0966391392304734
0,101778071126975
0,0981224317384466
0,103515378665793
0,10024412227639
0,0983170482592034
0,105471666707293
0,0992990030265905
0,0993706141341851
0,0988627032083058
0,10169470079312
0,10017937058363
0,0984026161810981
0,0992337637574178
0,0930322556944757
0,0990856937367396
0,0986895294493735
0,09902378554496
0,0984668318856154
0,0944253284846695
0,0921139248255033
0,09594867786033
0,0943813676674838
0,0945464150136171
0,0945779401380236
0,0943655375820861
0,0964250002208492
0,0918240069820701
0,0963239093753189
0,0945673635356755
0,0951348012006462
0,0971023049581933
0,0943837700588768
0,0929868116157485
0,0919264642288395
0,0944061402049201
0,0959088048846692
0,0901604098652474
0,0953403858119091
0,0940577150510784
0,0976659269639346
0,0948637317596294
0,0969139371171952
0,0955458018855616
0,0962889867639974
0,0956475830867617
0,0935999244699324
0,0962927585027678
0,0932137901316488
0,0957742012880939
0,0958539310085342
0,0943224913713966
0,0918940646856583
0,0914963006296933
0,0944024282783798
0,0939912916448727
0,0979049443905366
0,092820691488723
0,094846619255062
0,0982639056753515
0,0944937100490306
0,0981608607681679
0,0934278597826703
0,095504205703824
0,0966519311546311
0,093525932254745
0,0902696569571325
0,0944773148035449
0,0944922752563855
0,094582992143546
0,0953989291139155
0,0945161677042206
0,0940597142364469
0,0933721501083519
0,0922134987566387
0,0914338042075585
0,0915145669928515
0,0947658554335042
0,0940853820708622
0,0956430111660811
0,0916517893885598
0,0940301328042879
0,0918258408326322
0,091738174946146
0,0954858977443975
0,0919751780968837
0,0909326222518765
0,0943535669773164
0,0923786829483402
0,0937938654227997
0,0934402201538129
0,0947108946840566
0,0953941602189826
0,0938076555048983
0,0932327910505729
0,0935076610552024
0,0928600038844871
0,0922326447507124
0,0938708713807383
0,0956017261890349
0,0951029333016693
0,0956762034205119
0,0968504220637335
0,0957184603976209
0,0942405408628735
0,0976756072809884
0,095773844449389
0,0969541928018661
0,095598254157208
0,0934373950065607
0,0940178960533718
0,0962424544058436
0,0940043985882788
0,0978450964168532
0,0955593808524094
0,0987187050141709
0,0989730608989984
0,0967786338131469
0,0990552352908456
0,0963910941924786
0,0973325918909014
0,0960084334605273
0,097569729094103
0,0959522017445235
0,0974552705222806
0,0985397697691393
0,0992414446570959
0,0964119187682983
0,0945870519995922
0,0985628508787789
0,0998126076489609
0,0976710467843901
0,0968661714708748
0,09826768317167
0,0981941839498254
0,0970646452760802
0,0978265345148117
0,0978363015731148
0,102423692931308
0,0989993611556859
0,0970821559197112
0,0981140233218384
0,0975681554197861
0,098586642710294
0,0975272993901532
0,0981581330677772
0,0994366309435626
0,0981862558451019
0,0985836182367898
0,0984217307167345
0,0973715195186196
0,101602977879801
0,100758051795486
0,0987930247706912
0,102690200032854
0,0997968464566427
0,0996567754615211
0,100167423519864
0,0993724916093892
0,10163636170917
0,100294086223362
0,102677724857813
0,10307762966396
0,0984580899903638
0,101514199360615
0,102311161419138
0,102724647563019
0,104142633179725
0,104694964009466
0,103373011600837
0,0995129054632943
0,0990864299486848
0,101628233146212
0,102845261720611
0,104584532414189
0,103080213772788
0,100848196340466
0,10074778546338
0,101026451902403
0,102372608142435
0,103010788761446
0,102764901117543
0,101723991823991
0,101251640497337
0,104320654343749
0,102641916946367
0,101848535540411
0,101106893798623
0,100262608861347
0,101041096830519
0,0992264156744428
0,0994166124203294
0,0981263232311747
0,0983712921488863
0,101198901811207
0,097386193390432
0,0998727165468471
0,100451589785334
0,0984200403863585
0,0992638519531978
0,100816590212346
0,0972441535888586
0,0979131208157178
0,0985739908157489
0,098427262146449
0,0983956993643824
0,0978048023602715
0,0971257207305166
0,099910797952695
0,0977423649080791
0,0985597833513114
0,0976414120932288
0,099189670724394
0,0966220651817217
0,097976033994871
0,0951259102906182
0,0970719163733098
0,0971548368108061
0,0993326867153596
0,0960024987350449
0,0971347857009073
0,0984388992994121
0,0991994637264886
0,0956681573939096
0,0944822257277043
0,0948472170725717
0,0964137355842148
0,0957031646157264
0,095957245353643
0,0949117773893292
0,0965451501376872
0,0947312136868045
0,0981575830210258
0,0972652887979745
0,0962858045508347
0,0936120086289454
0,0929796756267665
0,0947134880021449
0,0969065696320082
0,0968826550968703
0,0937690414238824
0,0966735127489485
0,093513752452559
0,0941710952084786
0,0991810870296241
0,0958173272422991
0,0973112747796719
0,0942115029253989
0,0941334561147264
0,0937972204376408
0,0967061408342787
0,093580868278313
0,0946202682730279
0,0936643328817779
0,0928962407071929
0,0968133367196937
0,0963127305181503
0,092451838846641
0,0939724109505551
0,0939865554033793
0,0939534513335839
0,09141641638249
0,091858261019075
0,0913251913401455
0,0939190266010372
0,0961078930513391
0,096645607450369
0,0951964644716237
0,0929225508073596
0,0926239839490599
0,094375503835979
0,0921207956972118
0,0889537787009227
0,0934275644255626
0,0930146692113072
0,0925886692928842
0,0946066715632531
0,091573843288905
0,0915884364199944
0,0946430423095851
0,0944245306608561
0,0906053488994435
0,0926227784552423
0,090998768650186
0,0914704917643848
0,0895707720515315
0,0930974301656572
0,0926960610629372
0,0923214495708023
0,090075229141354
0,0917315512169385
0,0901220932135556
0,0930394504241173
0,0899490835557634
0,0911280500631909
0,0884070444674545
0,0898531812866528
0,0862736268196937
0,0864934720999601
0,0864902298883014
0,0878029615183583
0,0869789343432481
0,084679788353334
0,0865569995233207
0,0879338338242345
0,0853362466394256
0,0847760618940707
0,0837325253303493
0,0869303202504341
0,0841457619631926
0,0834115159782333
0,0829960213195812
0,0829481159373609
0,083237113075195
0,0824456816199957
0,0810897966643787
0,0865613157791654
0,0856025756260114
0,0858501192172816
0,0798839059568272
0,0817837571636734
0,0796439823825968
0,0812684893809298
0,0775255121633081
0,080527335336079
0,0775605056403817
0,0777027993245739
0,0785782115100863
0,0805127447797862
0,0754134480047826
0,0808988399929421
0,0758959645601434
0,0772523378933326
0,0736804038176562
0,0767414581492797
0,0732620196829187
0,078064989353629
0,0769643103305589
0,0756881680799946
0,0746041514624937
0,0763312536598352
0,0724423725206303
0,0776259745819034
0,0808374806397591
0,0920568535116836
0,076609603166534
0,071137155671022
0,0775453152926979
0,0779584837020576
0,0725909790436694
0,0765619845841098
0,0728482846280019
0,0738585556122401
0,0748293608066766
0,0719901275088279
0,0736091626928343
0,0747271807981055
0,0716297141673271
0,0739225798228534
0,0726410340926663
0,0759106846113762
0,0730972289983186
0,0731998411644051
0,0706558134685859
0,0712931728406797
0,0702092671260366
0,0729233975876775
0,07049702140004
0,0744387953434366
0,074273289853684
0,0823748434582349
0,0794428611127549
0,0718308261348558
0,0741197138725612
0,0718805953761489
0,0733864120824544
0,0711207226409413
0,072067291280247
0,0699657308132934
0,0696439780138925
0,0689164512400285
0,0720769227894897
0,0704302253454633
0,0693076391291196
0,0730712045483966
0,0676652394311086
0,0696590006059544
0,0712767645118382
0,0697640282045794
0,0704095559640994
0,0693458659413111
0,0656570252110296
0,0717028636929894
0,0723025841234477
0,0695983931736825
0,0710740891916246
0,0753103709356092
0,0892758237150572
0,0753073776633272
0,0708327856178559
0,0722574292768743
0,0676824847071334
0,0731534389747844
0,0679991540458708
0,0709993262052406
0,0681893449415911
0,0701639790343971
0,0663626311168784
0,0693810231359951
0,0691020428491265
0,0718767890717617
0,0667680661411386
0,0690505185133872
0,0667228828649036
0,0703223735587168
0,0668872896572071
0,0687743472273228
0,0710550206016856
0,0855496957763211
0,0742014118829173
0,0687418964651055
0,0652586655147185
0,0717169858082176
0,0760936918371966
0,0864178070233424
0,0592396698187739
0,0733848452180918
0,0649501718739727
0,0712071093882983
0,0651120599453779
0,0705374633299573
0,0687294595421289
0,0779720125098432
0,0689083271046872
0,0728153254599331
0,0695957586661978
0,066030705713909
0,0637363994348336
0,0656092441550961
0,0640219622075597
0,0680756156012823
0,0651612168585338
0,0659412790035828
0,0616281320373912
0,0652916713243902
0,0635106438921395
0,0680970339670153
0,0683747367524619
0,0769312188969368
0,0653351762958188
0,0687094809534619
0,0598919551904126
0,0660828613326149
0,0683761772329035
0,0804726308268196
0,0680221791642144
0,0609184546690315
0,0658436588850366
0,0643627659500472
0,0673553984284555
0,0637520322575499
0,0649679101180406
0,0639652573322767
0,0636706860773715
0,0650425057345273
0,0664130555032424
0,0635782273708699
0,0636570720307671
0,0639044832345765
0,0645223356253977
0,0635515852246276
0,0643764422087271
0,067768158493729
0,0665114779969133
0,0743595517436005
0,0769477804434228
0,0960187576411254
0,0752354818786474
0,0806359325185602
0,0713381350521735
0,0667346690755795
0,0645997562334081
0,0647269492796118
0,0640074793866796
0,0674653082896978
0,061404576771699
0,0642891252870931
0,0675106548238745
0,0631177394455663
0,0612630643469548
0,062127365184698
0,0629437977816815
0,0648221687783525
0,0641247374876102
0,0608836184678361
0,0625974548066064
0,0581380755598091
0,0699703413256419
0,0689228846041809
0,0780284750611247
0,059392817049457
0,0810112836519668
0,0782204410003621
0,101998121198755
0,0680679870895074
0,0696069808862078
0,0644095965976453
0,0619190396035908
0,0627077507621087
0,0650975083748927
0,0728522217589238
0,0637642185970407
0,0610749547308676
0,0599421993625323
0,0649379417834895
0,0630056822513894
0,0656824304092333
0,0758036320130498
0,0988732741485471
0,0842785123413598
0,0621855016701958
0,0630282561445784
0,0764225940341704
0,0906013715332467
0,0766005191733591
0,0628469637630098
0,0721184597490466
0,0623300159674029
0,0697501026406247
0,0587130285972725
0,0705334024769336
0,0681574621192265
0,0686246767316686
0,0636198264950113
0,0649124603285394
0,0670393905196336
0,0671690046746309
0,0701577055443543
0,0786103268298093
0,0764308950666031
0,069582722453645
0,0691953486876108
0,0759415984984181
0,0644757119868925
0,0695398901716077
0,0642642786648675
0,0718476731028513
0,0797209171356295
0,0877911863376087
0,0807250168509643
0,0880328893141746
0,0832107856303765
0,0706846171479648
0,0672403306919697
0,0857319247256984
0,0668572448810247
0,0777916102750382
0,0727694534024568
0,102295767657099
0,10575346132202
0,084770675611274
0,0815989902322107
0,0614549029450618
0,0794060848281775
0,060445374371277
0,0826851146549968
0,077173639201396
0,0896619775199776
0,0581593296853389
0,0830329224766575
0,071472911051803
0,0946876744928417
0,0752066805936808
0,0767163809649597
0,069349779624345
0,0813026401765594
0,0844122891316315
0,0829638560625968
0,0817223260555395
0,0964892283878947
0,125857440308645
0,0930161224652191
0,0857093034615767
0,0855418855617529
0,0991181238668772
0,0976362652210585
0,0710846279024379
0,0843620717519139
0,0709345210868047
0,0772868558857873
0,0853046308912942
0,106137775683786
0,0940292909495955
0,0796083940506593
0,0827852717373038
0,0880269783766976
0,0928587995725283
0,104938074801053
0,0752527303643321
0,0879206300249792
0,0755793484938941
0,104607427518187
0,0972198031542494
0,128224451927187
0,100199059030374
0,122063397445009
0,109860145221489
0,10536855947194
0,099460130995593
0,0968741391299794
0,112183791929212
0,110088467160162
0,0958473185791534
0,0902423256283683
0,113856164364556
0,115799601520845
0,107071829191826
0,0915944157244895
0,106372735571478
0,0965353971220425
0,143007147254237
0,166595364658343
0,137375883632544
0,107068732058457
0,116531293526026
0,124666122160835
0,1227828536987
0,098744242518033
0,10789997353061
0,10697845484634
0,105449300147834
0,11182652530265
0,113853288127553
0,118177050881555
0,11126809001913
0,109279636570898
0,116068927173091
0,145459230041758
0,186310135936951
0,14762182771198
0,155077921595094
0,133482719557363
0,164356506878521
0,124391092838523
0,129139054534258
0,119404350914439
0,138535030265178
0,128732846178471
0,125967055235092
0,134644606571613
0,146574889953093
0,156770615102717
0,155546396908647
0,150365420922993
0,150884292191426
0,127115091046861
0,200664012604136
0,16157669058663
0,213951176326546
0,13589387029432
0,179251566000803
0,158445159373971
0,219784153701448
0,167895943320841
0,155081627725761
0,150112341321691
0,151404411688509
0,153759779403414
0,172270330527965
0,173060856803412
0,186535266523852
0,16255573161894
0,181428449661713
0,176393057259706
0,293797658770854
0,245007834828125
0,20346881494659
0,186143943435558
0,213211341993396
0,20448166737823
0,198497701684231
0,183004358709365
0,201432150255835
0,214444759795942
0,244543653653969
0,231180655829308
0,197218915673114
0,240118942736489
0,220767814508214
0,253798180056669
0,237839820106228
0,288187212246606
0,229301219763101
0,243465211685742
0,234190441672727
0,238066934171226
0,256156386807812
0,26058656601942
0,283429040383576
0,253645445446014
0,25938226289859
0,259055035385645
0,261253018320285
0,266422423244732
0,264783705543852
0,28457248191661
0,310516065351086
0,393761551728459
0,368243699944483
0,339966914856587
0,287191305585652
0,276774833391753
0,302913603478933
0,311089285865239
0,341631678288583
0,322602477922237
0,331991998683438
0,286435884519444
0,291865061068748
0,294292667051842
0,28383194374822
0,303214170095515
0,283592601819167
0,301218577784859
0,298627276600303
0,327422916306108
0,319080991451646
0,364923111341568
0,312201829063156
0,280820488396216
0,287682312614217
0,278435846569262
0,287083049228464
0,276134609368565
0,293718093428985
0,28789327541905
0,292687498485007
0,255831140275492
0,281873568161827
0,273714187041804
0,307035810909321
0,274074643887191
0,263427977575603
0,26600991993521
0,252723542263726
0,254439192304065
0,265796664146778
0,275473402549635
0,265590913222941
0,233277725125024
0,248457208458061
0,222576536958502
0,23748703519678
0,223274709887957
0,241436746009667
0,229061917250568
0,228699131159051
0,21968347474041
0,229183249036266
0,210477596573998
0,223363119521366
0,209651492235944
0,217073779908797
0,205075730404481
0,215330477749614
0,204509915819164
0,203134949963168
0,196305918490441
0,20639602160005
0,196114334747993
0,207454701052256
0,193609236018539
0,196765177725298
0,188463649300707
0,198706648773524
0,185820669247632
0,194220396814796
0,18422300170096
0,188129444414062
0,179810610665365
0,187276728746374
0,178360334533334
0,183914727577197
0,175034343225743
0,179258938314082
0,177398017165609
0,17248607381465
0,177149919719322
0,173517994090999
0,195442321725264
0,209021460090653
0,205713545667499
0,178273568402771
0,166119494089709
0,178045206112313
0,16073412240716
0,188326526134145
0,192776111047435
0,202552868634775
0,167669768093065
0,165565787006416
0,163193844212029
0,185408466982679
0,167229942822929
0,172089573769515
0,145181405934142
0,185588362098861
0,167278049461964
0,265703140893764
0,270051339542812
0,258784429117216
0,182548471154449
0,162499580789548
0,196448234948667
0,17956056769512
0,171215429430172
0,143243461638587
0,16557218800975
0,194419875561985
0,176378390360724
0,15500073291997
0,1455825124089
0,158265913047935
0,183499546365853
0,18558760569239
0,179296427947094
0,194657534455994
0,194905319251502
0,193578369596144
0,203612046586033
0,248083548473971
0,181129542566059
0,159719092565338
0,145920505027381
0,155781134508983
0,173585555382164
0,190564723610389
0,179731932074585
0,164976289598297
0,148014486618257
0,151045927381975
0,153075485512256
0,189696512039508
0,155583346350033
0,192015375771712
0,165727013539907
0,175558745185445
0,152308480956368
0,205618093842662
0,199322138304993
0,232973982780936
0,162003027545803
0,15996219532074
0,206930042085695
0,205737060219317
0,18436884466905
0,165262956549653
0,148101427145998
0,17801307581574
0,171050001709438
0,173462735175164
0,175817429859049
0,196732327745466
0,2086032416596
0,22563014266917
0,26053514805423
0,226927529756581
0,178114934053976
0,163878179910147
0,154539304889724
0,180735868224976
0,15465124869444
0,180269647844551
0,18967071034484
0,181274714971984
0,183234755781726
0,202279844576509
0,192695364480695
0,169513804738975
0,171176765902588
0,179132246041537
0,187313114770782
0,22783451933503
0,235713426718772
0,212238757665811
0,210616691680903
0,222497345314761
0,213997262444365
0,196413077996068
0,209948525533549
0,203696220015537
0,216763758757665
0,22497082076192
0,222643941370322
0,224914151802033
0,230193982433644
0,237149060574312
0,28039592345039
0,260249346391509
0,280770435157098
0,275607431810729
0,310340894363635
0,33209971911782
0,308451167204278
0,288297259314219
0,286221762282587
0,300395650459634
0,29819970880306
0,310821874044776
0,333383175125153
0,346021358729466
0,337633718972922
0,32612313072432
0,343674712171532
0,335741747991688
0,357378834784611
0,379852886829224
0,402421740356733
0,427229026231977
0,408855898408323
0,406940866455242
0,367868467052955
0,375530563115567
0,373157376966443
0,380560763936783
0,366560041236618
0,369913034763723
0,386641297538809
0,398187349481991
0,382038757852568
0,380867758267345
0,373962220004201
0,38593260455992
0,3779846040389
0,384773666753283
0,382340757941671
0,387171455470423
0,38993313086068
0,387848671029627
0,414048228872186
0,476815509171009
0,426179774494426
0,403594194525031
0,411025003806459
0,418645131538939
0,407112518030673
0,424735513256847
0,437333232731111
0,434433137373713
0,423204885147485
0,422051404627231
0,42834289148898
0,416407801118839
0,457377113818014
0,454964057131218
0,443655245529613
0,439786404806394
0,432728663486043
0,487614128994752
0,483841903028806
0,477642233286166
0,448155962608708
0,467921507572006
0,441883388816638
0,45289486876056
0,441858691489276
0,452637073252487
0,451600509140515
0,457121307159454
0,444126498408616
0,449609709132168
0,45160071723654
0,438998411188291
0,446359688770848
0,468465688744561
0,448957966211161
0,44343732727325
0,437401520958338
0,43249483231687
0,43279478927786
0,467289590738583
0,459411259318222
0,441064204440276
0,428039733592509
0,450188969340104
0,456529451729452
0,447602926065331
0,414773663340716
0,418216064615664
0,421621863623556
0,42768527861857
0,420448086948061
0,444644333808848
0,463604126622923
0,458717973669006
0,439473990794871
0,445967066748407
0,43383761614186
0,448127487814784
0,442307202912396
0,454640970407738
0,455058329228975
0,467446986607212
0,466701383004721
0,467016178199361
0,467737565149888
0,482747227205094
0,502414187033318
0,492886772915961
0,484907690801597
0,484984546157764
0,479011980487385
0,49091469630022
0,492784925992595
0,489759261261714
0,487877184618863
0,494798705558311
0,481040188282101
0,506849733037999
0,514308972918457
0,507320920476244
0,50187728918563
0,490246792387354
0,484200408606078
0,483540168977822
0,483434912584829
0,47977483580906
0,484959201756913
0,487902126599656
0,469773248607112
0,474911703957044
0,471275147409092
0,477231072188692
0,468443339612889
0,473529316288856
0,470921975078851
0,466135885318688
0,468411541903189
0,464860189820246
0,463318665476524
0,465492904207189
0,458769544003575
0,467559212812924
0,474556846014353
0,484890099726077
0,486067141827302
0,469346232817425
0,474989303606464
0,47129984538657
0,464795937649945
0,462036230613726
0,454532189751228
0,461200080446361
0,459918786075653
0,453949364321743
0,45393273355866
0,450745910617448
0,450071325525156
0,455738618773127
0,446018291014716
0,443457697611405
0,437935587688942
0,439847198250223
0,435378007695361
0,439580821109887
0,433044955795449
0,444439587656375
0,427017486694297
0,434035236535658
0,426374700803661
0,426139434276899
0,416597800356193
0,429181956779646
0,422289294709926
0,419198160907875
0,413388035094506
0,413955437273394
0,413464267373158
0,414025844491238
0,407072954006181
0,407921100882233
0,4090698139878
0,410429439265966
0,406030911659049
0,407529954448051
0,401966885978646
0,404555863601459
0,395247259000119
0,391844383340363
0,394680208885278
0,397208821228469
0,387489836686805
0,379811701250528
0,379837379337182
0,377390372694094
0,373017507183925
0,373191361316801
0,367797386617147
0,370386278357303
0,365308963833095
0,368360843368641
0,361746826931117
0,363747151912008
0,355967400378787
0,358685747740056
0,351970435673875
0,358975680968174
0,353015174163895
0,356117785882405
0,35476002875824
0,353451420344527
0,353401152915398
0,353710923886102
0,349302266348215
0,359528318761025
0,352093775944979
0,357569195595007
0,361009206536868
0,360773838486244
0,353870710631323
0,364022487015018
0,35758370548585
0,364630888995385
0,365171251853262
0,364713665920042
0,361975832943648
0,367289298663089
0,364952742274194
0,368148280083754
0,368813982774609
0,370456877230788
0,36823916239151
0,372367462726536
0,367075868478767
0,370972303297747
0,371608475094932
0,369610399632435
0,369042463936483
0,372464507552418
0,368632222819425
0,372992158712885
0,366431543233441
0,368110592937297
0,368143593816776
0,370431384062253
0,368218529592099
0,371437914465912
0,367060174186813
0,370725257533969
0,367172150562386
0,368107113885572
0,3645558463801
0,365031840013596
0,363956068965689
0,366056941478008
0,358735917013651
0,363221730210052
0,361891929069371
0,357365358129634
0,354566965799167
0,357584703317908
0,34974684817905
0,348754147660234
0,346869220596988
0,348361537907422
0,34207751594191
0,343418177461858
0,340227256744301
0,342481484615086
0,333653977216198
0,332366144116699
0,325563569397333
0,326617550750442
0,324463976145594
0,320915101349073
0,319578347234416
0,319154453429576
0,314309748971753
0,315808350158457
0,313204961992304
0,31242473946605
0,309987766805039
0,314433281362285
0,31102126366174
0,312487734902702
0,312778054003386
0,313700909808583
0,312193593513806
0,314035358753293
0,311868345399757
0,313108086864226
0,313800994731507
0,312360534108443
0,313259382614828
0,310720177102387
0,310201244447072
0,306865994677403
0,303175531452807
0,298540720837162
0,293722891478764
0,291616108858119
0,284654872410581
0,283792705725973
0,27583363603032
0,276533903197729
0,270129423210656
0,266364291564308
0,258960789520987
0,258033060738093
0,257616204274981
0,255000395759943
0,252724586310837
0,25587430646765
0,253816961058812
0,258185548114526
0,258638492491591
0,265537191516687
0,269611885199253
0,274578109743005
0,280771771510679
0,289432371302225
0,298727505903947
0,308470601212347
0,320770611368502
0,329795144353766
0,34639813824708
0,360751714759988
0,375815907075264
0,395487404256601
0,411431350111306
0,428655426124632
0,448055867597036
0,47738938852017
0,500694871113184
0,51862392342777
0,549016352764998
0,573416522916589
0,59543001635242
0,621798679883691
0,645139807662406
0,674744216601082
0,691006170239248
0,716291873054415
0,725240995535846
0,751664501038455
0,772496678783602
0,777424410811213
0,800844025112664
0,797857898412131
0,80107686020515
0,804844595810612
0,794801439211592
0,80228902004219
0,802257854665753
0,79199646882235
0,783593948281333
0,773495538173109
0,763065353105463
0,75432897227196
0,738067830301201
0,724440762885965
0,718719295717563
0,711834415045582
0,705395401027665
0,700649978783984
0,697512107823654
0,698467737373746
0,694099251274762
0,69372864595751
0,700508723552373
0,69781490203542
0,698773804344332
0,705486176019311
0,711859014016935
0,716853630038578
0,733851270600782
0,725577855245802
0,727254425771553
0,745158709413983
0,750733457721818
0,750000069471055
0,759997629041459
0,768797723543916
0,766877687197075
0,77225755057073
0,781966889280699
0,791416472656332
0,798054253492467
0,804978337506688
0,804663734261797
0,812516315569722
0,823251313382147
0,830761469931786
0,824570378438228
0,819308744737486
0,836401156176805
0,834874182387969
0,838792356295768
0,843378320392629
0,846440431259122
0,857100302430435
0,857440740250859
0,858811463465603
0,854491747205406
0,862933917212691
0,85926052415361
0,858278530778165
0,863581207774312
0,865709733763012
0,878538915015428
0,876564585863122
0,883733890044521
0,892422574194189
0,916453786565291
0,93517036482524
0,967130017218877
0,980207283786382
0,994185401980726
1,03495660680757
1,05006538777333
1,08593864201727
1,12316815390254
1,13556052530541
1,13984345156953
1,21974253150052
1,22241919961084
1,19624679426305
1,25108810201722
1,2352283287251
1,23230007132271
1,25908271257817
1,22536036931601
1,23456417259443
1,25080616967773
1,21695502727479
1,2092264941833
1,19782838682637
1,1840865147242
1,1536385752173
1,15659398507447
1,15476251930229
1,19298210129274
1,14773716473777
1,17818265573538
1,17607861514464
1,20462598595175
1,17279972606854
1,23680439010129
1,22791298416682
1,24846134107011
1,26635622667784
1,28568379848654
1,28034651009085
1,30458279683972
1,31678857751368
1,31257634195627
1,34229550088891
1,36880697447521
1,38594992069899
1,39588187648438
1,40469406144729
1,47515252193119
1,48274572401135
1,48609606928273
1,49240872996049
1,57426027416962
1,58136604736621
1,54801668210743
1,55211868704979
1,60652944089091
1,61690055097693
1,6193854741317
1,65704341918044
1,73678198873516
1,67985473088975
1,76157558563419
1,79618727972606
1,85156822717441
1,76910229378011
1,84768191410493
1,86968523456549
1,83805909877856
1,8157467853135
1,94467006841074
1,85168207918737
1,95232192520673
1,91512078320114
2,05551692945019
1,9063951905639
2,01812834625609
2,06735141285588
2,01017092018731
1,84722004501169
2,00849543677955
1,93406460941758
1,92271424834772
1,92716210187843
1,86343625526445
1,9588437741267
1,85274127448674
1,87387888094801
1,96799069515408
1,7043171278396
1,94046298562726
1,88406779889978
1,91324331116652
1,67747589572894
1,9732214041904
1,92502459798575
1,78127318624416
1,6921290617216
1,92901649802707
1,7005471280198
1,75935370147108
1,75364864594953
1,69363126133708
1,67818130540341
1,66584604590576
1,59343844285053
1,76118116687924
1,59401037543093
1,67495435776103
1,62239327398927
1,53791626410705
1,49961878873007
1,46586378943117
1,45295013864522
1,49376380016978
1,46933234352479
1,44152996420649
1,36026176587327
1,35394385601574
1,31717799768229
1,29478173938524
1,21712921017518
1,20096790674645
1,13997356859332
1,09799572590658
1,04094161840101
0,964279579250949
0,936367829612211
0,897688961427444
0,875267420943931
0,822874480547218
0,778904210480969
0,757263210693005
0,720636489714302
0,686912117906152
0,663293211849661
0,645828749261092
0,617161797027838
0,601582756527406
0,585631392837764
0,583952686236904
0,561871518983134
0,562391944212681
0,546636593821256
0,54931660591763
0,53431439519476
0,534743091880668
0,523329737916059
0,517965448768323
0,526313502554464
0,519523670426676
0,527499156736368
0,537723494776215
0,537211448846848
0,542142267445229
0,553796226221525
0,560079651583783
0,56868531639721
0,575653967723183
0,578180067696311
0,589639351076681
0,593095216688659
0,615575207934343
0,613019689866076
0,608925013603108
0,605520215887056
0,622607769949875
0,612308682080694
0,610153273824809
0,613117936998287
0,626487674168473
0,626903043465483
0,621136302139589
0,629238208072927
0,617735305976485
0,610246175865561
0,612220714645463
0,613817809261482
0,619878443925451
0,613689377062161
0,618548467893377
0,609100251001406
0,597044139260754
0,598756238366912
0,601567139803085
0,595064809150906
0,590877983389152
0,584935627227836
0,578491225203812
0,568032781574267
0,55892685586467
0,548304276968112
0,55939661837192
0,548109833036023
0,544791808120374
0,540451205247506
0,540634702161304
0,545166954159415
0,547301098686744
0,533125402318017
0,539756469861803
0,547253362201777
0,551588542460308
0,537509947535463
0,546232113807622
0,544995172564053
0,561222406880301
0,55510077134358
0,557070594740896
0,556426115424474
0,546628252948068
0,550443045976706
0,555272521428117
0,540661191834948
0,540298830166544
0,534172939663639
0,524885622319503
0,503225506123772
0,512018105208751
0,500166232081383
0,489800764019213
0,477741843783802
0,485300993294694
0,482266058591332
0,480222218576105
0,469100066386899
0,477165572323194
0,476993638745631
0,479261540517096
0,481474287515413
0,495963606499243
0,483220633823886
0,484644730118604
0,485851618553791
0,492992380900287
0,487587156922065
0,501561589672128
0,482960391713245
0,513290643231667
0,502067947311458
0,515103104012448
0,520365434933839
0,525323519203808
0,520586729228165
0,522715713359356
0,530501575729953
0,53730851403346
0,522845562686685
0,532352699224493
0,523059651202024
0,527050271748886
0,522332155857645
0,539434286533232
0,52542588463032
0,520178022754699
0,527960527844414
0,527887827533576
0,516639037264862
0,531715945093593
0,51989886527956
0,531635764502999
0,521704206429588
0,524438704944867
0,526070574104338
0,528888424815411
0,515321857293685
0,520783898472045
0,500543149357346
0,511245474374094
0,49717721335415
0,490256715207499
0,493526333222799
0,510627204900554
0,473975169598118
0,46753938644916
0,478657703490878
0,46814441749566
0,478348596845117
0,449910826301584
0,454238197203107
0,467080708159917
0,447297486290762
0,443811814539754
0,444888261094909
0,460075775031753
0,45045712582356
0,460294643506465
0,445168400785533
0,451675376136094
0,438321724999429
0,430686654780152
0,447314647897031
0,452653427369885
0,440075460963595
0,461611590865142
0,460670001052791
0,465643446403282
0,44179296924187
0,459948500165852
0,438314807424514
0,48512300839439
0,470012039752397
0,489691474886823
0,46129370132665
0,471426235519499
0,474299518976231
0,480081321951055
0,468237592431254
0,510262466611253
0,498530951180006
0,519615474825998
0,506021668495479
0,494210025768621
0,52363865241502
0,541500918986053
0,515957168976346
0,53172262517515
0,52565625593247
0,550661606177248
0,560490307757503
0,572403713379471
0,576636858140534
0,622929744538151
0,584282827142306
0,585313454329911
0,592761129467466
0,605774882883534
0,582480272632483
0,629762843359154
0,62322868201972
0,651491557042188
0,625675352980108
0,632319135850341
0,64267715897005
0,637447615582441
0,630520792293964
0,651294742331775
0,651514657861125
0,671070225584872
0,650735554992881
0,663067004461105
0,676316653714983
0,664148749252496
0,662515168122914
0,697678618488452
0,674111379650342
0,711625215112266
0,697618649664422
0,694527939258487
0,70739116744193
0,739385510113745
0,744511621413521
0,758031613241822
0,711218234548144
0,757485621478866
0,749844431252104
0,713317610765433
0,703967279680969
0,724988315935397
0,653011707711508
0,681504597146761
0,618949280289628
0,67480016018326
0,671438939809872
0,646993223407365
0,611435030547043
0,680947807568344
0,681479233220502
0,670236539926395
0,673345808712998
0,667008317846055
0,633745300504527
0,690412204053068
0,664585757969993
0,652629881007739
0,634026623255249
0,64558566370978
0,636694625988506
0,732893885674746
0,647726716646637
0,658972682950966
0,718417081164635
0,632706321819206
0,632943710840155
0,683928912907231
0,686528551258322
0,753656579076862
0,656258501745441
0,684478751836918
0,659598723353319
0,656940379498187
0,748088962337356
0,76793863182241
0,75365865539998
0,816305300472221
0,673682646694287
0,760620621265603
0,707399277328578
0,78300903742262
0,730535210344861
0,814413389977069
0,738102320401388
0,840116203807787
0,815605055248772
0,767768991532725
0,78430888937994
0,768497962206149
0,780196990139713
0,796606174623982
0,824268156555353
0,872315930548759
0,826774042389876
0,845626478007305
0,896642423692428
0,854139657362826
0,845331137580396
0,853178859292314
0,830637451379065
0,815655775659803
0,816446570011555
0,832131459933948
0,873717265705093
1,12777170977987
0,889119901173663
0,918106226564447
0,735410665436243
0,814528538678372
0,733899117250743
0,702788140327024
0,884239295606515
0,782494718056178
0,731567111090008
0,771693790024535
0,854433778051686
0,88308339243433
0,704542890398731
0,928913784807558
0,730109924030964
0,832737417407268
0,899024152529027
1,01603873524983
0,907647847770469
0,90327634017078
0,757133767547726
0,826648254432035
1,05731948012618
0,987307013805317
0,94789410860888
0,990170002210169
0,602585158293387
0,827241070323349
5
0,546515933616272
0,649509550291069
0,875600248945337
0,952192113705616
0,688777342952128
0,715298881086514
5
0,725470127663838
0,970645244116354
0,928601550932749
0,691413711380436
0,474553623934022
0,894272470921597
1,23812769449138
0,6375106699984
0,955448427183701
5
2,0620150091995
0,775042689847986
0,551097291233262
