3596
4000,36533379555
650,420452594757
1
2
2
0,0302938749736129
0,0310687891395999
0,0349820715545494
0,0288762302879136
0,0280359745732694
0,0211862856742146
0,0255793702087217
0,0225420353009806
0,0315492634197287
0,0271781941329897
0,026583274203464
0,0276461453910814
0,0286735546725039
0,0218338856191651
0,0212645541059
0,0250202048628231
0,0283785366344273
0,025203511468411
0,023247586517469
0,0256195576827006
0,0395272615559887
0,0288303780405687
0,0232544731093975
0,0231129384719558
0,0360549650788074
0,0350395453654048
0,032630576210443
0,0201450606265276
0,0297617206177581
0,0329343537189424
0,0308188840320731
0,023178228222948
0,0294144054722594
0,024368776027525
0,0301475584570911
0,0271580901200921
0,0287120131909493
0,0268779941745412
0,028567312495674
0,0232163324353812
0,0253562983452867
0,0223538701840643
0,0256464352476166
0,0240041260371084
0,0335534494363232
0,0288648108425476
0,0318889578593214
0,0239338962458779
0,0252664210754531
0,0335651891312001
0,0335955643524135
0,0187525241900124
0,0328697926741956
0,0251020210855316
0,0276197404583281
0,0331639503731454
0,0268768439359131
0,0202232667272638
0,0274540804297511
0,0205297955117749
0,0279878414205153
0,022642197757039
0,0251299914496153
0,0264576867475644
0,0266877182719362
0,0331138764689645
0,0286296055344963
0,0271802243108706
0,0330329314385988
0,0284437625891055
0,0226492300166212
0,0252898903974994
0,0211668086129675
0,0293517336140242
0,03361511731848
0,0165906300938308
0,0290166451672464
0,0298235046431168
0,0269981922276703
0,030899089000221
0,023648965293325
0,0318534203433807
0,0310006894757657
0,0217294277104269
0,0229333927380526
0,0251742423639119
0,0284967546392958
0,0230851172884321
0,0284439001426987
0,0311298101210681
0,0265651135186904
0,0209707056113215
0,029727705106728
0,0287461774371053
0,0252373623819448
0,01728541306923
0,0231175171798071
0,0226837829759122
0,0230679517753155
0,0199033749323392
0,0332603235128408
0,0121077735142076
0,0309006798008817
0,00524462876919193
0,0382593608572618
0,025453544467215
0,0267796886369454
0,0250530108017665
0,0168252018907668
0,0250776297255472
0,0222754738194311
0,0223369853797115
0,0249742880812051
0,0242867599634308
0,0177226249218563
0,0251501743497601
0,0186207144589318
0,02102599809557
0,0232663122799256
0,0129585279252538
0,0288865175846483
0,0315085508749198
0,0344043187620487
0,0206151916761161
0,0239997308197656
0,0174754843622749
0,0252548184053881
0,0292218813227282
0,0297300212476399
0,0134201395742586
0,030933860680672
0,0222353357437508
0,0292788521948012
0,0192155297146284
0,0385456560775212
0,0253671683651499
0,0301873469698175
0,0136362990225085
0,0213163782519648
0,0164149876811868
0,0223064442054657
0,0210176262088603
0,0146107638978616
0,0165467845721111
0,0334048292235913
0,0206888019055178
0,025360352265251
0,0269030888564455
0,0336939323506504
0,0163129085093099
0,0205863889060942
0,0183912959535024
0,0317543026286497
0,0241820466962741
0,0301917651086589
0,00777530423315368
0,0312021327115795
0,00133397429864045
0,0405411367998082
0,0155748307035784
0,0324920695075603
0,0230220084024161
0,0264350315620437
0,0219910292600039
0,0255693606571391
0,0222326024935229
0,03284881397106
0,0325511655721638
0,0236482749832131
0,0293183755045017
0,0277534837954295
0,030240814926375
0,0191434602216851
0,0200295038568312
0,0273607300471308
0,0165291743306757
0,032409262043748
0,0192351317793318
0,0255113448345356
0,0152532592531143
0,0306656684252245
0,0198816644982578
0,0289072166103928
0,0198928552385085
0,0257028070157378
0,0219655558798932
0,0292898367744386
0,0173873344861594
0,0233428984992748
0,0247802639478638
0,0402042202965821
0,0148071934100582
0,0314810285482136
0,0143437918845219
0,0301002358175142
0,0251200301025558
0,0343693414675717
0,0162467712921622
0,0244716888732893
0,0250994244585929
0,0209163152569118
0,024820799501864
0,0268532813935413
0,0149817214163024
0,0278967243482045
0,0235726989053169
0,0312536086855399
0,018845977170638
0,0243828158794561
0,0161919873779532
0,0249003873212375
0,0221149036250447
0,0370975747994713
0,0216523020842005
0,0264770901075591
0,03060939776713
0,0249345509346996
0,0245212356912263
0,02851893572614
0,0222211024099029
0,0207346974725905
0,0244658294021311
0,0274143158784708
0,0279757366883438
0,0274505754426979
0,0260378511402948
0,0284286820504001
0,0245174474999375
0,0289920806803183
0,0230599669886228
0,0270139338525269
0,0221036979453437
0,0228067295946639
0,0262519231407335
0,0246124278964044
0,0201086751406717
0,0381424224600671
0,02457045430078
0,0297756046224925
0,0248801788894775
0,0303314902012824
0,0242347805305696
0,0306613945957964
0,0233664087769111
0,0320339133517188
0,0133017019437852
0,0324135415796984
0,0196101637841292
0,0194190173599633
0,0279264258771481
0,02708994687263
0,0276789794406038
0,0235649722497709
0,0244768620197115
0,0266511190176929
0,0298542560074165
0,0256336955791443
0,0337939104380226
0,0317072078451998
0,0298155195893175
0,0264718819185509
0,0293652658386156
0,0242458784802956
0,0328064438087581
0,0282440581407664
0,0184572622073151
0,0330627292925164
0,0296874517907808
0,0295381431424775
0,0240387042514929
0,0262629832213498
0,0207868903703409
0,0214056290128969
0,0382812900495872
0,0406018627969294
0,0332147793922237
0,0227961753954389
0,0248134343882896
0,0260980431737968
0,0210148898553115
0,0334746852196875
0,0215617112654779
0,0533253438816621
0,0337622742068071
0,033450817551944
0,0229370890226599
0,0243988682082209
0,0304528489489164
0,0246519580247938
0,0274981592879082
0,0240858134257937
0,0272595223641549
0,0237698100980678
0,033500491724117
0,0272432727443485
0,0325846774871576
0,0235509700905667
0,0282432765440417
0,0253594671456416
0,0370751560986043
0,0300492679785828
0,0269865578062602
0,0300746344200344
0,0345723530206045
0,0352804312588272
0,0285490540098859
0,0383287778796914
0,0417005563458065
0,0450796576286682
0,0332913396580572
0,0395496181982454
0,0353324145699606
0,028416329245312
0,0287525800920553
0,0333232635227009
0,0346470326572532
0,0331205764992276
0,0325039022564609
0,0402927679268432
0,0360326547628904
0,0422667890964751
0,0350406965776353
0,0356340038737409
0,0382263722507214
0,0426732558488948
0,0388040482918032
0,0429697645019158
0,0419002881255567
0,039980050069166
0,0421282213711933
0,0453755040969495
0,044531304067954
0,0423963436725736
0,0231089052307673
0,0471600107300305
0,0438231260717292
0,0497879555973682
0,0500223326558839
0,0495140503188133
0,0472646048700606
0,0506621890214689
0,0549360434176555
0,051720174689928
0,0493754398469556
0,0548786427257791
0,0521106449742743
0,0564146733337746
0,0411952558938884
0,0647417641045163
0,0519479136729028
0,0573443337145221
0,0723691377130269
0,0538794707157563
0,069645575465276
0,0518896427423037
0,0684821241476352
0,068004304272549
0,0719336042652816
0,0679261106442922
0,0653621412669506
0,0694582708432799
0,0720959469938713
0,0760715145439546
0,0745327828279108
0,0778875267258739
0,0778819420615981
0,0823606284187579
0,0700716724731876
0,0804010355131517
0,0789793990720221
0,0890732930157348
0,0831869455960258
0,102489137089656
0,0851039104454301
0,10398285247899
0,0895591624637302
0,104027916295781
0,0914661122607039
0,107362528046558
0,0990739737391777
0,0982414132444358
0,101229586677062
0,114589262901454
0,117841790456102
0,110135991085748
0,112480101043919
0,116968539570016
0,119764788014453
0,11525733520273
0,127315842438368
0,125319205027615
0,119983154315594
0,124251557582097
0,129576841717328
0,125645756727963
0,143579169422868
0,132712994977986
0,154551825739716
0,132430801747733
0,138545323927767
0,142904884078666
0,148607991860229
0,14621856618483
0,147293167104932
0,153117776515957
0,157834180861368
0,159968432040475
0,148764592205178
0,180547641548976
0,169718707211314
0,159044971640265
0,173745940370552
0,175818364330636
0,182926488813104
0,183419956431472
0,189167187679278
0,174394711255244
0,183935031845507
0,17984693244738
0,19339806994374
0,188232017921822
0,193377302645229
0,181857056691699
0,194076853690763
0,203179124282113
0,207455115152089
0,218902908551314
0,211859660919521
0,219369087438413
0,225446914350923
0,234857037970316
0,224896583325259
0,226997966983022
0,213994862057132
0,231348914794055
0,248992979762782
0,240954767882156
0,241864226214568
0,242093863461119
0,25662511158552
0,248212395471349
0,261444185688622
0,2558511364856
0,253134396919057
0,260649202171768
0,26005407393513
0,263932617290056
0,261885111439146
0,273393387216857
0,277578013327511
0,283926454344291
0,287061933515635
0,290767037792608
0,292854431361758
0,297885756142578
0,31659061501681
0,290726056954738
0,295059659112889
0,310738543838133
0,312991734043062
0,307827484023764
0,32938669273033
0,311503841316706
0,34437250414808
0,348133830952763
0,330102153432489
0,334140216208705
0,359614238872288
0,34705878406407
0,336786545653409
0,359361097893096
0,365976009985134
0,359393054233391
0,370362790756931
0,363938956321024
0,377402058536277
0,372580528350075
0,393989827132559
0,393445225514739
0,39149826949345
0,381054938641812
0,397696412767345
0,389459070143922
0,428789580581143
0,43231527149738
0,414436264655624
0,419759385671383
0,435795472037721
0,418948914888458
0,435908547741087
0,409129749512184
0,437691737985005
0,438946486661379
0,450942958336943
0,429085094176898
0,452394597301321
0,440412948796381
0,486574061950784
0,468544982035225
0,478275898234137
0,466641924876175
0,473500264002224
0,468634319552993
0,502396020394432
0,464184973162546
0,495280515191919
0,49986776230426
0,521191502528647
0,48901407767425
0,515582260122484
0,533675101262339
0,531858939686423
0,522498249315777
0,513771089043463
0,548449504111659
0,568718556944534
0,505249901957639
0,56454479423277
0,53982039404201
0,543001278508024
0,538705563822862
0,558688822001646
0,55361347111471
0,620579748711418
0,572012968806578
0,568343141730667
0,55151836332521
0,598039731293957
0,60755133965058
0,610908797060513
0,5882138903041
0,617311275262073
0,597687891515558
0,622492553435934
0,602948466354467
0,620964565321249
0,586778627565045
0,64184611707403
0,604249630877875
0,656902365412245
0,616161698212492
0,632524407193673
0,623184443140741
0,69105671012785
0,679289394074593
0,711587002997764
0,665455379167136
0,695786563646612
0,682313084446366
0,693501358197681
0,69740408451163
0,697633885247313
0,708717884067126
0,712890746651647
0,687554935260772
0,737066367851555
0,683257000447972
0,746268967596154
0,733793151638515
0,752472004485736
0,721393518473988
0,735766442494483
0,749894829666868
0,784708457449907
0,734792092737564
0,791746804939516
0,719308963412867
0,781388442279228
0,711429424949736
0,799279265448467
0,744835907184462
0,777319139644727
0,777116492112557
0,779764355799574
0,787759202762115
0,833450292711836
0,796751327099979
0,836423406899789
0,791989541858643
0,898653369615203
0,853225503027802
0,899410736426504
0,77369250267556
0,855321813815118
0,811481794122121
0,876470708063495
0,840541232034844
0,874340565018854
0,850396638476829
0,879246676576188
0,833751595428452
0,978111712092334
0,794837502992096
0,901873968824325
0,873525374215483
0,901687498504539
0,838686295347994
0,926405259877954
0,860011572414789
0,892044354901395
0,865135909132117
0,901741291214461
0,815222404262579
0,916927501847131
0,885810281614547
0,92340742302095
0,882625710354344
1,04227666853854
0,950276309260032
0,990625551723626
0,899699164094834
0,999174206220766
0,919953429427081
1,00941135622902
0,897470030001154
1,01769058185044
0,921439977379631
1,03539069114679
1,0003555109733
1,01864858362646
0,947063673978926
1,04511143468161
0,980227273824564
1,05109094043206
0,965492508797567
1,02684894497328
1,04175419076101
1,02295790507321
0,955572488619189
1,02524221729095
0,974168054566013
1,01451730157118
0,960748560225673
1,08503735728187
0,996453448074546
1,10286646198202
1,0170187212248
1,07461840376567
0,991759964437341
1,02775702010467
0,960023001748043
1,02694292033913
1,01785598117403
1,13137234664128
1,02527161467895
1,12428661901097
1,03055576330327
1,1265497768337
0,990404547827617
1,10394318599344
1,07712786430373
1,09706673053006
1,00323269749728
1,19837287077049
1,02383702103734
1,30251539959988
1,06832222608351
1,15728569927048
1,04235860997164
1,18640406116811
1,04159260112141
1,0639201153946
1,0738655757008
1,15060083606679
1,09335843959987
1,16809518496908
1,05629518734388
1,17981315319404
1,03725235320242
1,21661613768017
1,11356111150134
1,21036126271018
1,11624462288232
1,12068140807845
1,03754886862548
1,24085715706662
1,14674947257008
1,21407794507191
1,05536950332765
1,19779800555865
1,07122966133171
1,16590898736871
1,12217569383095
1,20693677933254
1,09713499128479
1,19367799756653
1,1096414841562
1,24742258062053
1,14139530791346
1,16779625680668
1,08438007325005
1,28122428383744
1,12435819996506
1,18098452427376
1,09536161027733
1,16215660701251
1,11101051955315
1,16606748828011
1,1615042485853
1,29373403166008
1,11159472907154
1,29350799047887
1,13667252320738
1,32819971348547
1,13856199995855
1,37206539588497
1,04890240824147
1,23533518301895
1,11209210386085
1,27726649431043
1,18604422412713
1,23757195026017
1,20126269326009
1,21126425602163
1,14119189950637
1,22928874425783
1,161635669255
1,22174258656929
1,19762565327469
1,20965860767853
1,14830170866467
1,27510631658596
1,13964572515528
1,1944288594135
1,17062805256783
1,21062968006111
1,1940776786277
1,2501748639181
1,17895096089444
1,22690730618683
1,23238562852899
1,27066049151058
1,19041464709131
1,17960183726327
1,16213831113511
1,18703767767221
1,23861530089636
1,27004391836723
1,14563879854898
1,2489725151744
1,14461113811519
1,23040016666926
1,17773661793042
1,22018054702037
1,31149029814914
1,25920803930344
1,12602938677183
1,2902098724351
1,1325901447976
1,27266945962871
1,20852851558593
1,29227850250065
1,12426324732013
1,25106281044214
1,11143400796699
1,2384577232108
1,228935623175
1,17609501834331
1,19277831676501
1,28262227752884
1,25957933653131
1,23673358719195
1,18026387360924
1,26850343292288
1,15658914779464
1,28306794610774
1,14071624347046
1,20698042537549
1,18407537931437
1,22526663543575
1,11044938984246
1,28977397900926
1,14422650882178
1,1992204646446
1,20509806749198
1,23419025043039
1,18142886800589
1,19114635417725
1,15060757212009
1,28403078745222
1,1784323753203
1,27369375858137
1,23660343952943
1,19541696350776
1,11147251260154
1,21189323646177
1,18811404124561
1,25942975361259
1,17431218024761
1,20401825192909
1,12101824929333
1,21370082266942
1,12129715692245
1,19663597565408
1,18923714700602
1,23297033790337
1,14165563308701
1,26916300816156
1,18446024684216
1,21095107289947
1,11563584978508
1,19646254168785
1,2488963090986
1,15139095033529
1,12972729772935
1,20104405682806
1,12805094419316
1,14962755796104
1,14758287111494
1,21032961994882
1,14140318450446
1,29978568303919
1,10478068556594
1,19859686305818
1,17828273775017
1,17650605752073
1,10530002587375
1,21707771699301
1,112460602834
1,14014384997179
1,14232624889192
1,12553431246449
1,0679691790241
1,11793782078628
1,12203554924621
1,17333503679789
1,11856266453786
1,15595843617941
1,09294342151986
1,20166470773536
1,10378010099386
1,11956238478672
1,08268284474706
1,09254336600325
1,0734899071158
1,15389313697658
1,07423409512492
1,12965892298132
1,00795352077038
1,04316662714207
1,05649325270343
1,12503725121659
1,03513367439033
1,08429687841985
1,05522887777845
1,12088159480078
1,02623878555433
1,11442192952084
1,04214184104007
1,09776496908006
1,02732283749492
1,04397345063349
1,03749016152057
1,10773151058506
1,01738143086358
1,03314532297775
1,02601075154233
1,04207226423992
1,02202034403335
1,04637253198409
0,985698061658603
1,07262545260081
0,990653111851597
0,973013516117303
0,970590874173907
1,02837666447681
0,994871557419098
1,03525852923173
0,992969661372571
1,00150764744494
0,958021087378398
1,07566956842932
0,96515086867036
0,996608208762051
0,961107495136585
1,00910767288899
0,964651717437998
1,01160385539016
0,922441847161409
0,958382833919374
0,935945139257151
0,946059399677834
0,934752018271044
0,973170397475189
0,951382889462904
0,933493088284452
0,910945657788802
0,949672998218399
0,910695747752114
0,934534911563485
0,924518129345949
0,934546498126116
0,869246356761782
0,937842841853594
0,919071392236363
0,925971704046158
0,876331539322964
0,934304335210534
0,862359953688107
0,912933689789639
0,847794606528779
0,888981231724112
0,848835270021121
0,869546990076308
0,839366338733325
0,853799640623869
0,850079689878278
0,844133454348253
0,801311306464638
0,827587415141534
0,840698398961658
0,830491325219191
0,807115925018959
0,855378023220676
0,828463014995832
0,839566384329603
0,808634495275641
0,840634746678023
0,792961354582086
0,811582412432097
0,792473193124074
0,819513586763752
0,784017998285803
0,792801822350354
0,762384409421353
0,778770099299571
0,780905093934003
0,799107117838753
0,756037197258093
0,775569635623382
0,7598748760502
0,780773283867722
0,723492199312937
0,734904485566607
0,738907338726288
0,751318150989569
0,724855824706354
0,747624633832061
0,738631591369699
0,725528637322649
0,713260579626984
0,72262722433687
0,687893452876322
0,706000924250674
0,680955480842754
0,716468410516311
0,683672672061413
0,700226120358459
0,680049557847999
0,707944748857254
0,676769172478148
0,710137058604043
0,677266128602318
0,70070858988014
0,653967309208088
0,679049361779591
0,664831646067919
0,682649245993655
0,655610886399982
0,651052178789386
0,637242310316397
0,669280353562429
0,642761094466778
0,665067174421773
0,623984201060506
0,636704417521827
0,631343185305394
0,632370093780648
0,628599577485526
0,635248063265827
0,618547508194237
0,624427020666213
0,604399872218044
0,612603750973489
0,614571342900175
0,615852359860574
0,601883405394181
0,60318272374972
0,588402314631975
0,600689684894289
0,57862675373257
0,599022211337151
0,591281233786804
0,592172487041133
0,558860007948079
0,581129496534533
0,58370860642813
0,582228369898929
0,556466923874379
0,576907697244413
0,563274532969075
0,562736151330064
0,552680977174717
0,559040559590081
0,569049312468313
0,558701300665757
0,546487539715171
0,56401205094784
0,528711724111172
0,543335994421219
0,533939149108809
0,551334559357941
0,529960544295704
0,541140906214198
0,517972311389446
0,519415319500487
0,524034327510994
0,543919200871805
0,519116519915521
0,52413139864677
0,505445474402306
0,51780168545538
0,494315395665472
0,497905029647678
0,499790637354324
0,499705732881143
0,493318285799188
0,493210959725898
0,484857840224765
0,493253861719124
0,484418769591501
0,477987487791984
0,47097450529021
0,479393384686345
0,480364772569217
0,477625379240896
0,465077654728111
0,481496377718153
0,459244681004103
0,473152112319219
0,478782902791139
0,469833124922594
0,456769456383392
0,459468941103215
0,453088749132833
0,448524932201556
0,443617977533742
0,450855441505172
0,444822392502871
0,447750779303395
0,439436496449321
0,442911971104623
0,440106336457259
0,444838638450629
0,430978265546803
0,432680009499075
0,435003184637737
0,436309417015828
0,419733307690883
0,430469747866143
0,419372875452132
0,431171915227681
0,412923863785825
0,421712755777765
0,410974849888365
0,415164493143615
0,407238818121774
0,414003839068138
0,406331506567199
0,418566365607939
0,405178278772256
0,409045106051242
0,408340117962359
0,406458155977482
0,403150598005492
0,408283455442572
0,394309536604004
0,402197583684076
0,394164996281746
0,403210585360016
0,396258491185172
0,401564138511763
0,38932841780807
0,396029836597419
0,383537283973358
0,39519083058027
0,384954088310834
0,396126068250209
0,394990201742476
0,386442436148371
0,392141228649046
0,3957382265877
0,381492198592685
0,402544708844681
0,393588526916149
0,392500451473276
0,387579041676723
0,390198293984583
0,387081718357471
0,399123683004533
0,39289545936452
0,393344154514944
0,387490101984373
0,402413414885845
0,390181616660601
0,396019045876402
0,397714155510037
0,409589882300058
0,395508740849053
0,398969360712053
0,405252885653608
0,415551644954555
0,413102559545945
0,422486294196226
0,406765273648011
0,420075881988754
0,421938222935618
0,427013920136439
0,421437897181269
0,430470922586226
0,417591995127058
0,422178377929569
0,43509788893021
0,428530483737311
0,421226357200551
0,437765393841633
0,435474546421155
0,434955863383522
0,434971083055863
0,449622225369367
0,44090884618093
0,45513455556735
0,447413811777318
0,458954183060906
0,454996436378631
0,459219957897485
0,457866851246116
0,472676028617938
0,466531521791201
0,462831343169662
0,4753113788645
0,481505915113489
0,48660167273499
0,497101626204503
0,487507144340655
0,486961513101348
0,487914057199653
0,496899569976987
0,499370577328795
0,508878917042172
0,504386590638133
0,511226486000995
0,50428389850947
0,518469454426155
0,515903628829344
0,522615566956135
0,511428994147161
0,515525850000335
0,51969928139539
0,529670364127338
0,533185658277399
0,532598172121984
0,518248862327866
0,531631472777618
0,525082129070379
0,531880652733885
0,519554327789088
0,53820338786316
0,5169038528924
0,529863054247561
0,51800898948699
0,521337424735542
0,522478686924538
0,529643876699883
0,516605931141839
0,5247026609148
0,517831934662024
0,504674709358436
0,524823565645408
0,525994680381777
0,512733397825667
0,517227714298428
0,523249368336607
0,522226492271279
0,520997506698243
0,524670949105221
0,517053511111609
0,510032902357132
0,516107956945819
0,518336111955037
0,519501220991378
0,515651467185793
0,507100405468278
0,521656403123029
0,513879724277539
0,522113332657583
0,518428822486235
0,518504052767403
0,511834173682043
0,518783113117265
0,51472734752364
0,51954455532448
0,500456420514997
0,51748607237359
0,510595637284896
0,507963873667976
0,51783813741165
0,518535469360934
0,508459777100359
0,504719733532323
0,507050958364649
0,519371481134636
0,505350881578466
0,50637414036055
0,507315905865949
0,498443619190814
0,492033652264334
0,507794675379805
0,499349954892552
0,498743697265738
0,489343824404075
0,500044188120871
0,496355692676938
0,490498708394746
0,483773157997002
0,479688319320299
0,472700426626333
0,480452342668246
0,468689821254546
0,462946007756915
0,458589399177944
0,455222850250524
0,454637625185368
0,464594572200222
0,450997139289571
0,452076430626543
0,45276005758274
0,443096314414854
0,440464065933193
0,443017515430815
0,434137411180455
0,442252201690316
0,434346036281884
0,424564578957942
0,423678145919688
0,425265156132196
0,419413099498033
0,415517817239283
0,41176398322477
0,40923892406698
0,40849796447372
0,404067854277802
0,401513142711364
0,401124469988423
0,398884640633793
0,398313819131714
0,39436402175263
0,39906294784803
0,391127229120074
0,382887111642029
0,379183507094221
0,385867053994023
0,377648622555979
0,379003248692768
0,375792014239723
0,378185949093329
0,371883574980355
0,371124952137645
0,361821416106534
0,366563400639893
0,363897746775619
0,360626416562012
0,359321998299348
0,358914243891372
0,35865596228026
0,357110015186817
0,354712750176843
0,354911773989605
0,357050227303523
0,358104382658695
0,347457032890592
0,343310297539237
0,346642471474584
0,350434620787391
0,341021820445664
0,346957123771729
0,346560549587021
0,34126689412004
0,341288421945045
0,344198004522847
0,337793956285303
0,335023226063042
0,335395250298053
0,337783689380018
0,335547093130976
0,334994805041071
0,333989820412582
0,337222956888869
0,327965549047702
0,326154869574833
0,328841389995297
0,324628680998722
0,326075072943994
0,31934356300736
0,314284832754569
0,320196705609446
0,320848897741918
0,321113959544532
0,31523734099704
0,321085430894068
0,316996435304915
0,317602892458905
0,313877637217527
0,317442151637304
0,313759938930207
0,307970273940848
0,315256300455709
0,312392446578903
0,310021555724984
0,310764432234301
0,303144451009487
0,303607556792099
0,307225691726612
0,308747057007449
0,303303656446919
0,303453528546259
0,303344991314318
0,306228891886754
0,300928267147667
0,302594173096533
0,299976629847878
0,297385896751139
0,299693640004385
0,297913448491575
0,296811244726238
0,300667799303638
0,29476917187421
0,295556152336819
0,291831835751634
0,291078697048778
0,288968708080866
0,293106915754471
0,293864124282568
0,292220557867545
0,291696217549733
0,288528804868897
0,28171224969011
0,288211126535928
0,290700778867628
0,284819464432524
0,286990340744109
0,288760437100295
0,282345972129813
0,284724882108121
0,288552634097188
0,283226839804122
0,284384549548141
0,283650818946402
0,280379875958943
0,287350779024155
0,284574148860624
0,280584237071376
0,27815326542548
0,283099246501174
0,282800395967975
0,281353460079035
0,281303456931306
0,281431459814997
0,280346731905461
0,280533478243931
0,274417558481465
0,275156579071891
0,276207185520318
0,277777574543774
0,281120526907158
0,27853272645741
0,273675947667474
0,275216391078289
0,272319162180198
0,272691048049734
0,275386401246549
0,276384382761717
0,266048240105915
0,271909148934516
0,272763053529741
0,274589181492245
0,274441963621373
0,26857904404936
0,268580791760582
0,271124957916697
0,268751388957015
0,270773497678479
0,26720997951075
0,266339540461297
0,262950787612324
0,26372765206835
0,266888816807938
0,267668831736258
0,266707073725023
0,264274753541654
0,256144206931069
0,260078076265459
0,262542887537494
0,261993400691914
0,261329328973465
0,257554871231721
0,258150023485686
0,257427576403734
0,253418446401915
0,254558398261039
0,256398442506644
0,254780301631379
0,255720772931476
0,258025432324189
0,253725294816935
0,254317522583392
0,253040733351942
0,253678542042334
0,252811814033676
0,252157746874767
0,249848392582027
0,253500793977309
0,248473732820139
0,251163652522979
0,252287756048567
0,246776976856079
0,248694771673627
0,247407261835556
0,244798836666467
0,244291812944071
0,242448237359745
0,244509294616348
0,24900305914267
0,244380278830825
0,238143352493754
0,242902556688093
0,241755892820597
0,241058105496303
0,236255079409326
0,24328766259897
0,244537302833762
0,241179927523894
0,237304770555526
0,234773058316855
0,235451778781645
0,236798058755228
0,231509957208098
0,231935344290955
0,230035703594925
0,229497672031476
0,232420278247641
0,23148818692361
0,227570625655012
0,227545729458077
0,224443365776515
0,222882605363965
0,225301661400999
0,223088914535697
0,222346234176833
0,223162961011582
0,219811396752844
0,223220649976779
0,223139490426984
0,223430946099457
0,217876321920565
0,218063055392151
0,216005099358953
0,216735438624838
0,216718728005981
0,215204605066989
0,211963492345363
0,213763587937839
0,212743551097402
0,209698194449533
0,208068855433103
0,208025094135675
0,207157373706258
0,205622034632227
0,206212308332696
0,207508865736921
0,207331811336351
0,205678733675934
0,204149701874304
0,20441345990162
0,201346232661421
0,202813325915855
0,202929349503039
0,200591505945845
0,201907760649312
0,195218763120365
0,194074746713722
0,199559211672857
0,198207675764413
0,194290123779291
0,195942344931954
0,194682658965252
0,193380725939081
0,195465001847108
0,193141662727732
0,192023035435894
0,189268478827672
0,189831053878689
0,190791130825292
0,190443294932647
0,18613157961053
0,187532739027034
0,18692996240853
0,186425554833643
0,186055358398677
0,184838603991406
0,185723066952727
0,185633892129634
0,182580927677194
0,185592754480959
0,185334110904806
0,18446842697383
0,179807557608405
0,184801207289682
0,182611349412212
0,179962821908573
0,179805507085299
0,178900635293985
0,176732474643355
0,176395478957456
0,172261813841474
0,173238692164805
0,176591978457128
0,175038719946684
0,175383918712745
0,178326561700439
0,175290332080824
0,172866402680023
0,174022785581523
0,175570661688804
0,172628585020818
0,174135668140594
0,173992402909317
0,172694875569796
0,168876642347486
0,16688825507744
0,171188121169541
0,167827278831961
0,171854634467127
0,169416035422959
0,169295111770674
0,168381796013579
0,170575231164906
0,172032621620002
0,169221508843865
0,167813475161993
0,164892637774756
0,164246729505293
0,165123560949967
0,164011930365864
0,166305025491663
0,1673201953982
0,162504900344103
0,164628802329831
0,164910458168043
0,161020966512043
0,161696290998725
0,163376188044638
0,163775032754033
0,163718695375524
0,16245132866966
0,160305752199971
0,162210203698786
0,160440997295661
0,160821236115482
0,158695804966759
0,159562574156688
0,159835792036663
0,159357910552779
0,155438388307334
0,158633160107586
0,156262678589895
0,156935182746306
0,154918764948016
0,154080843422453
0,156015124303827
0,154720250865312
0,153951367172618
0,156623957709251
0,153267185843131
0,150159307600389
0,151284836132556
0,154416369885491
0,154597971630719
0,15494621811649
0,151505543922067
0,150147096721882
0,150173654339551
0,152523714889315
0,148753691715931
0,152523761680938
0,148729197331135
0,150688837727482
0,150915605734313
0,147740452257066
0,146564612029853
0,14804393647662
0,14942991709051
0,147734628030063
0,146384606579677
0,149135763963006
0,145663862247102
0,149053711585979
0,147008813172858
0,146719596893965
0,147569987681592
0,145196181628322
0,142054590003335
0,144181681724663
0,143873229395658
0,147399416594793
0,144187142531446
0,142982074100944
0,140231799248443
0,142704930965882
0,139776593695724
0,142476793298935
0,141207026275921
0,144666674466791
0,144055972982007
0,142483200297644
0,138557275867357
0,143808995767456
0,144486903654758
0,138536410550444
0,137889352256286
0,140569837474818
0,137488958662776
0,138419627806313
0,137129609470612
0,135045556780174
0,136455574159031
0,136168133105858
0,138505128594841
0,135316069394205
0,134686508337359
0,134201870646921
0,13410899823335
0,132903493637871
0,133967150990284
0,129901824648726
0,129934860887534
0,132139832014939
0,131257830043263
0,130355908711659
0,128280678652176
0,129703748855754
0,12779079538144
0,126345148400833
0,128473701001531
0,12827095061994
0,125105370044816
0,12609364924885
0,125721709385381
0,127467822534433
0,125623843432741
0,125788108296169
0,127399417917875
0,123900076370415
0,12248788865663
0,121372387500182
0,120903815608056
0,119973843713545
0,121439414807272
0,118061816913203
0,121571620177923
0,117469549183029
0,115244682790393
0,118401656854126
0,118300881199764
0,117822302502366
0,118974934499523
0,117217590104933
0,115355010812943
0,117145859367782
0,116784197758997
0,113569642628394
0,111370726312606
0,11318396377025
0,112285921125912
0,112281353264047
0,113369390116306
0,112660548815589
0,111928116724958
0,11402754442431
0,111396587427273
0,108454631538808
0,108609112559215
0,109566514948082
0,111080086407102
0,109045796583052
0,107222558224359
0,107914018638892
0,106279500901049
0,108476514617872
0,10598486765226
0,106262667687119
0,10498523955077
0,103558486088983
0,1050951049767
0,103268831182218
0,101531238476103
0,104330880552155
0,103481431234766
0,103528714539159
0,101505422061555
0,104348994038563
0,0991794281552365
0,102648560203935
0,100824664512343
0,100963655842828
0,0973653371145449
0,0983141953474146
0,0978724117913024
0,0981351963350199
0,0992643282710357
0,0972568016096955
0,0999719608511671
0,0980387728612473
0,0959353870052884
0,0971058354132653
0,0948917678660837
0,0968223063389541
0,0960312222364159
0,0974440954105188
0,0949512279436688
0,0927969660162909
0,0946731245972315
0,0936706700432956
0,0954657802167769
0,0940111540671887
0,089460745282151
0,0913638067695331
0,0929938266629516
0,0937990041458597
0,0892629613008273
0,0922867981239302
0,093459737969851
0,0923335463595396
0,0916661053128885
0,0951873038966834
0,0894368954737226
0,0911013693796885
0,08908741858593
0,0864835273996083
0,0914894400453181
0,0907053012096148
0,0898969497983065
0,0914026351813553
0,0866619994684089
0,0873706614301604
0,0850984097834999
0,0875028701468756
0,0940863764379733
0,0889200148131177
0,0830966806095605
0,0899625403963712
0,0829384531665637
0,0837722786294606
0,0838791320087246
0,0850441015661314
0,0888523978926527
0,0873441252961627
0,0827744246728795
0,0850342710253671
0,078211925723967
0,0838493626518114
0,0808611821275543
0,0879177141071482
0,0814000023097804
0,0862996777001372
0,0828255928396874
0,0834269075455817
0,0803430734690846
0,0859223181529185
0,0822762140009043
0,0844244505353434
0,0801498011655124
0,0866349790073006
0,0767024684220507
0,0814473683818679
0,0765219710907753
0,0870476661547207
0,0748939990569827
0,083296679353034
0,0787564715939176
0,0796255053672615
0,0750859322023376
0,0854738171643835
0,0751268166855104
0,0850932923773075
0,0776686668339381
0,0832264533716547
0,0725925059445407
0,0824729776656876
0,0777673503939144
0,0794121954141204
0,070655315435668
0,0849884560840711
0,0739546528079764
0,0823535205168628
0,0752215684416559
0,0811284508605498
0,0743828426829613
0,0809651622168612
0,0785024073096058
0,0785811593029156
0,0763088353232018
0,0799647860026074
0,0785521037153731
0,0748193220020281
0,0829908393506403
0,0746398371582093
0,0847039797276554
0,0723936837073657
0,083469583919848
0,068615380972571
0,0843897866290525
0,0730114833889687
0,0814649818852824
0,0758062895234914
0,0784229437790319
0,0777037378411902
0,0796935162415003
0,0768492779622078
0,0781223906995025
0,0745481836577173
0,0756301020731158
0,0782340009762454
0,077600356070151
0,0757967971072466
0,0774391797417023
0,077315722065621
0,078166915749144
0,0750643973861587
0,0753115641526814
0,0731868877259089
0,0795541714623927
0,0758352702538298
0,0772690113667534
0,0778006257898311
0,0769740961556713
0,076029206717646
0,0742802625120865
0,0739278726537478
0,0788785274321897
0,0770814178318546
0,075037512166276
0,0765326132889915
0,0749340261727831
0,0762646704813467
0,0777785065427409
0,075708744077711
0,0776945356671585
0,0762401330985936
0,0784239456877221
0,0758757206388648
0,0763653878736393
0,0757907690215166
0,0744448747859589
0,0759222351441201
0,0771249142780295
0,0781822283801586
0,0778489071526263
0,0770655241773858
0,0791468870113052
0,0754145647454752
0,0735533644624786
0,0784392642083201
0,0784610923765685
0,0745459011849881
0,0752212594059963
0,0765943570168988
0,0780211811887514
0,0754725001950137
0,0786639553561372
0,0787494986208463
0,0765243070827819
0,072032204066482
0,0761348320946373
0,0782667743805029
0,0781193354457964
0,0739415699983595
0,0778129166212865
0,0784594395622308
0,0773712706829261
0,0746746898195421
0,0788725046698423
0,077529176545074
0,0757471888070929
0,0766306825936178
0,0778697559160068
0,0765741186046785
0,076552648357271
0,078532437887754
0,0774434232134389
0,0745269611433861
0,0784610074683745
0,0778988322166661
0,0760583629109735
0,0752747511238019
0,0754365736007847
0,0750368423036457
0,077925244211459
0,0759082698318395
0,0783057127675138
0,0806304293084463
0,0797096363414982
0,0774187580807608
0,0768578004673526
0,0777028981173203
0,0787968814496783
0,0790577274265989
0,0771402077253289
0,0780702653065202
0,0787162562788725
0,0774352072321729
0,0799327721037348
0,080983697189852
0,0787677660411743
0,07817409120703
0,081058744438385
0,0797436293371465
0,0774057742497899
0,0777536997015715
0,0795967446813185
0,0804276814833963
0,0783108731909649
0,078781905692374
0,0805816051578077
0,0812097621133364
0,0799409736598148
0,0798752197401054
0,0795150728040651
0,0833430650606293
0,0790661721780034
0,0800792634415522
0,0804040665352365
0,0838335814204229
0,0804911432836853
0,0805718100482925
0,0835389775468239
0,0800409700606102
0,0814777595806445
0,0777995337542696
0,0840417499696411
0,0803828930159142
0,0813765953415555
0,0826535020263417
0,0801953095811959
0,0838881293744785
0,0812004387201667
0,0825880529209782
0,0801306419468789
0,0814138735230068
0,0857236867882192
0,0836084003663148
0,0853845775365175
0,0809351770017273
0,0862395522641001
0,0836327844559175
0,0853961049505926
0,0865180586178124
0,0840498319843107
0,084248418455179
0,0856613848059409
0,082992470762761
0,0834575156499696
0,0863984064893337
0,0843954758645259
0,0849667970204467
0,0861235824970187
0,0825073173312719
0,085611971992363
0,0852917030098647
0,0863453366044707
0,0882418400723484
0,0840231842742708
0,0884634687550663
0,088206070093528
0,0884306677435308
0,0873812117183451
0,0849277075402393
0,0849194468524449
0,0875017894340978
0,0873698102763344
0,0854290219401527
0,0860040378721562
0,0848845861959393
0,0884481982360865
0,0875333939578509
0,0881151346481837
0,0878864578610587
0,086330431361302
0,0897048217570768
0,0863690449823099
0,0868909788282265
0,0869781433504444
0,0853540493927418
0,0858202726652895
0,0875805141156985
0,0845567946651013
0,0861084560047405
0,0849029656583199
0,0854532612381602
0,0849260146859582
0,0856771292088996
0,0893240998045832
0,0842547138324959
0,0846360658832024
0,0843567883113749
0,0860562027788494
0,0849775777860591
0,0813002738826413
0,0851283631932496
0,0845804946606226
0,0862852089446338
0,0841026527507193
0,0818638177697034
0,0827963056349264
0,0860949478623807
0,0822658200694843
0,0825077776804053
0,0831303505810224
0,0833914726651039
0,0827771438348787
0,0831621504106658
0,0831015338744478
0,0826035386388965
0,0826733689526166
0,0819172435744261
0,0835560540203265
0,0815045510765889
0,0823410687333344
0,0845188815684787
0,0810235761470613
0,083260409597592
0,0834020035526942
0,0829631771980793
0,080202557293444
0,0815329553608686
0,0787213011317267
0,0830303632787842
0,0806739433138691
0,0803452396945403
0,0815080246177086
0,0824117544373185
0,0808859362008394
0,0817082729127997
0,0813283400386636
0,0819280044018059
0,0814740168509137
0,0812256927660312
0,0802910869168057
0,0803554211083488
0,0805046199787498
0,081413057143626
0,0788546676842163
0,0796479305100503
0,0790241527370758
0,0801830545275751
0,079027314090331
0,0772062723644979
0,0780147487649677
0,0785061348767672
0,0819373116317646
0,0792392499526997
0,0784012241733319
0,0777623692748178
0,0790083182295254
0,0780701506162192
0,0810837416190887
0,0805469715489404
0,076389993510022
0,0788073930435067
0,0816652367068705
0,0774019730912167
0,0776520063414905
0,080960124064478
0,0786843469737202
0,0792143339268484
0,0775028054567334
0,0781378797538035
0,0783676098666149
0,079199628358915
0,0781025085175358
0,0776002145155362
0,0771225818457131
0,0773642581259811
0,0794073449055667
0,0774541810277833
0,0755281317609678
0,078152508577841
0,075694111543284
0,0770108849212632
0,0753439634295531
0,0760774189017177
0,0778005735700575
0,0766742778448411
0,0778743179121323
0,0753445112127519
0,0766316312129755
0,07551952608988
0,0782485306617132
0,0772118098016107
0,076274161749062
0,0749127594064252
0,0743087957371603
0,0767669486655134
0,0729296270032969
0,0744952188719928
0,0733377776926256
0,0742267679646221
0,0741577332848627
0,0729739074399428
0,0740497737590958
0,074899163018592
0,0731521294219649
0,0735480369852235
0,0759764834892333
0,0744976213233897
0,0733843058408003
0,072132862227784
0,0678029786827354
0,0705470277473381
0,0692132685738148
0,0710560684436876
0,0714158365419376
0,0709262457716257
0,0692120868029446
0,0686454386852329
0,0685751162950349
0,0709391824015381
0,0707383390720073
0,0728324879220683
0,0673686604959759
0,068334411888295
0,0670215645562808
0,0689299551697418
0,0664237874485047
0,0647721085712119
0,0674935670904353
0,0683275719455069
0,065975816437333
0,0674331282516772
0,0631501790635633
0,0668681334536962
0,0671458769920972
0,0662838602974698
0,0649323605079514
0,0647316584195226
0,0646814142782175
0,0642753298480485
0,0650654700205403
0,0643240649078699
0,0632866444615096
0,0652169916613899
0,0624774192766831
0,0644896471679037
0,062781417865612
0,0656147899893442
0,0616327489427601
0,0615215937095645
0,0630388628003002
0,0605485378030179
0,0613157820736395
0,060874205016968
0,06153052704948
0,0606004326837481
0,0610459079554662
0,0646759749715668
0,0612498055869324
0,0610282016364308
0,0621314857388212
0,0594372271602142
0,0625103436595992
0,0616853547705936
0,0612042070476226
0,0604081404750081
0,0626315581079324
0,0609698531246852
0,0579362101097351
0,0616093321373191
0,0610237539286182
0,05958668351483
0,0622902226587955
0,0602505403473718
0,058708191683808
0,059948212389746
0,0601820009963142
0,0579295866330527
0,0581585766273824
0,0586359071432512
0,0586684821068836
0,0609978824094946
0,0597769907709349
0,0585732168264534
0,0586535890933483
0,0596678733826846
0,05842057662466
0,0585000353566321
0,0587906561975559
0,0579815242284717
0,0592364666444852
0,0571226461260219
0,0592946370459169
0,0583133869140426
0,0564602743972043
0,0578820463821541
0,0566188159998234
0,0591517037936521
0,0575822082168349
0,0574362619654732
0,0573828311090324
0,0605401482155396
0,0543331877140048
0,0608089914440423
0,0561794068710958
0,0593001201054848
0,0559252192325366
0,0566872945784064
0,0574257951528647
0,0571378144662329
0,0552217243633313
0,0578286592972825
0,0565253882263276
0,0570060588101273
0,0543528447930858
0,0564600438997555
0,0541901508957828
0,0575095875160275
0,0540209654089961
0,0581492118625753
0,0582007116123822
0,0576770948170968
0,0590469246102238
0,0593489062028283
0,055473459828937
0,0572732016455086
0,0538921707017806
0,0600102985205408
0,0552296113627263
0,0571298138472631
0,0549267946889699
0,0540862229279164
0,0539432167084067
0,0564634454791309
0,0509205567622807
0,0554558590076113
0,0561508594660031
0,0557462750153989
0,0594696929269344
0,0546481846185724
0,0564273818395524
0,0567030024022272
0,0546950389781159
0,0557095457417959
0,0557168397396983
0,0552386806402548
0,058197523251203
0,0555439391204026
0,0544589944650985
0,056608428928897
0,0546647681097649
0,058409084439082
0,0567300863505683
0,0544130717881568
0,0546550601222392
0,0582769339581888
0,0555851223401385
0,0591780578442511
0,0605015111764766
0,0538554020524974
0,0571162475028555
0,0542731541431472
0,0563003917031534
0,0532399261933997
0,0535232712702987
0,0564361443793668
0,0566283208548275
0,0535638102353108
0,0568568600948093
0,0571018499381842
0,0536277579567579
0,0553984003465468
0,0558018936272061
0,057225844817584
0,0549993373190389
0,0552040417140181
0,0545225834030666
0,0575859056705078
0,0539223833473921
0,0570621495644988
0,0583655054613091
0,0607474072849017
0,0603895502686098
0,055256388815233
0,0579424197833687
0,0537678546958007
0,0539478347733065
0,056957935756184
0,0560889312682962
0,0544092673572998
0,0554373675682448
0,0548407471063152
0,0536100889647183
0,055814419668807
0,0576930481390592
0,0560299566849042
0,059210113659636
0,0562752827968557
0,0577916227608332
0,0560354049938363
0,0592048916305374
0,0557418103442817
0,0587599584227262
0,0567561589812279
0,0576659095655035
0,0536241691725183
0,061349480771106
0,05775871863569
0,0559795417281625
0,0589932315120319
0,0568643693298974
0,0583067807181387
0,0551917838401177
0,0583467826588429
0,0597762283363521
0,0590784790270321
0,0609853313758858
0,0596959419816749
0,0589633896773152
0,0591396007476964
0,057008002978409
0,056537393477112
0,0634037840877777
0,0589070682593892
0,0589318663187743
0,0612414968220155
0,0606248900929849
0,0613541187917771
0,0574106424361603
0,0621853530833276
0,0603884548682063
0,0607532588508772
0,061739555810721
0,060291640428339
0,0604532690380105
0,0649477812159756
0,0617524815091489
0,0609643726188912
0,0627596774946772
0,0605168738328759
0,0649987062432385
0,0619085610670076
0,0650325245902859
0,0659957890001177
0,0611008774728042
0,0664921935376303
0,0646413401578101
0,0626545035327321
0,0651570154237477
0,0643024626982774
0,0626540526087545
0,0648634466894819
0,0676159100380818
0,0642070189336491
0,0674018095158992
0,0666377609593853
0,0627019864785937
0,0689862992446612
0,0651957055540714
0,0663299139811405
0,0666950771504882
0,0691982281116771
0,0717584461317659
0,0655358513517191
0,0757801695533973
0,0672387125606144
0,0702776857693629
0,0648107116500516
0,0698924397829268
0,066079705639789
0,0706169811882607
0,0690568243832139
0,0739140090285926
0,0714643525966741
0,0740910607732694
0,0708242683247721
0,0711360008753715
0,0720225514428944
0,0729738756913221
0,0724647910779854
0,0757269742348628
0,075240206763226
0,0692024060067667
0,0788889900250423
0,0789984129987171
0,0792399725207648
0,0740301361654318
0,0724398148272269
0,0848534480028413
0,0729373920155811
0,0768455054033814
0,0760875254865089
0,0773809910541659
0,0766553477050025
0,0761676924749128
0,0846223220767399
0,0779244839530219
0,0783900982942325
0,0835691447300605
0,0803016251894785
0,084080712399567
0,078780492762052
0,082892620227358
0,0836827685615515
0,0870577621907562
0,0830810016713303
0,0918930769045974
0,0899029728881253
0,0893005172657741
0,097149818690302
0,0880730114244943
0,0953899538083084
0,0912834488002933
0,0968651100246397
0,0922849995540706
0,0937662806749677
0,0904302314462813
0,0979345840529123
0,0962376273096502
0,102002251344102
0,0953794765846068
0,101395535300029
0,098662418306425
0,104898085277924
0,104884607227652
0,113869588097485
0,10461155094838
0,106445521425679
0,105475134536069
0,111166689243498
0,10690187488543
0,110442997408324
0,110856639045827
0,112545132897109
0,113200611578872
0,115945992127445
0,118455408014094
0,118724682677707
0,120472139313073
0,123338726751063
0,121960873448474
0,129946241236582
0,13074347134258
0,134114132782628
0,124949183754915
0,134115477466833
0,130751206546
0,131043189622396
0,130810786028547
0,135138518360671
0,137760571583345
0,137538592658585
0,140695128624007
0,142145971813657
0,146148162006218
0,148854236846762
0,145903762151252
0,156692413038657
0,146966951135833
0,161869814044435
0,156632235774052
0,199163396038239
0,17092950436057
0,176309530579814
0,181135794634147
0,181494522627621
0,200137256650717
0,191513080492895
0,198006387973606
0,207039399039866
0,210920612540299
0,215428525965932
0,221429719342462
0,225088506067741
0,236030461377865
0,238476300677037
0,240107122599322
0,252660157000962
0,261643658536155
0,275306836650155
0,277244817861318
0,278014525577772
0,28554181999541
0,296424957314185
0,299862038523212
0,30872964408859
0,315893870810623
0,319683922382619
0,352083004131262
0,339576799028337
0,351463208785793
0,346488715079052
0,366735140622105
0,369048346964671
0,38026622398278
0,393694337336664
0,389142934082394
0,401690973693884
0,404218599453441
0,41653749526505
0,411408136654772
0,440301907861393
0,442821923704277
0,442567271719078
0,452917596675165
0,459876747922204
0,460823812562204
0,464322614710355
0,470053726109507
0,46466236526749
0,493132102162599
0,5032685919048
0,542022331020911
0,508481874401885
0,480758530649774
0,487708436354189
0,482440222352968
0,501185225283279
0,507850223002341
0,528426243366395
0,518240090170653
0,498899800999083
0,503375830393745
0,507300682883255
0,50573872835131
0,504030242138949
0,506743338245902
0,499671565158384
0,512796908447905
0,506968264663188
0,491080517482274
0,549889856476429
0,498838436642976
0,499898253038643
0,499690962334419
0,499114563779791
0,498298540294253
0,502724975736031
0,497287561457775
0,501637495689343
0,476527888870359
0,482959554702011
0,476140945441736
0,479674177927988
0,485265419600629
0,455141906256139
0,456463788079295
0,453393199306349
0,443840762014901
0,445920636677533
0,443532386350974
0,450354612771587
0,43063242088411
0,428838470494896
0,420670345807165
0,415763665644338
0,413935224136773
0,406157059269402
0,409230266083198
0,405139565558663
0,396858554914255
0,401906748334599
0,390416050294114
0,392434198822453
0,390200777750635
0,391863233762923
0,387898784145732
0,382625205423028
0,386662327347353
0,381238248247942
0,380926674235525
0,37096547072077
0,370624854086053
0,376126209858395
0,374551111711989
0,372153591534513
0,369256123058755
0,365805561873911
0,370618042037397
0,3694034323065
0,370140856285813
0,36935306846934
0,366212764490256
0,367947305851314
0,36421692605471
0,365466484284529
0,361355536630195
0,358379315510599
0,359941645490658
0,354863860064006
0,361438577181535
0,358945689341812
0,358208336354926
0,351986929076816
0,365921940817199
0,368090023499479
0,350409920392826
0,34904944147529
0,349146769046115
0,352572608310706
0,349475459515492
0,36250012417517
0,353313340273416
0,3445835634506
0,340358265719331
0,337989365284982
0,342157337238267
0,340748932669851
0,332897617824156
0,336949643197425
0,333368324114901
0,339590072632822
0,354132951691776
0,320185225655354
0,344546916887421
0,331267123900716
0,331199921798917
0,333558313035482
0,339758196624875
0,326384741065144
0,328538485162223
0,328780404629466
0,332812291238048
0,332634890258277
0,322603682798823
0,322762416621468
0,321118371225949
0,3226942766199
0,329450820668638
0,324242429948735
0,325274331822753
0,328130633189685
0,321429593567469
0,321619040502296
0,33391684889698
0,315001903722126
0,305603173908203
0,302139269665785
0,308396039618932
0,301123360570381
0,303500934877841
0,297401808381238
0,29185024925899
0,296004099713881
0,286580759051661
0,290221398065834
0,285485481751786
0,287585317843286
0,286247271068554
0,290888432879145
0,280361131108627
0,275189611282623
0,277077790148976
0,272834239841515
0,29294994021465
0,275188555291337
0,272231360885553
0,277220189560413
0,277164641369137
0,266051894863883
0,266462352454671
0,261436701770615
0,262743701477573
0,264689307259083
0,257455745643259
0,250148035158144
0,259996864984445
0,255092912583914
0,262324359444474
0,257469666955929
0,254233334367619
0,24708508665955
0,246047676668872
0,247158759799912
0,247232111390307
0,245087863945958
0,250157934821666
0,241051773476705
0,24943278900606
0,243785097015192
0,25499424484725
0,246266486609076
0,253236368719083
0,250019619861916
0,250611806650743
0,252807936799916
0,26413174183293
0,260595560800567
0,267045914964811
0,258108440053003
0,274646182003305
0,267399808831911
0,268609370767428
0,271378227403048
0,278532710453213
0,283175464572636
0,286601228576809
0,293357668398742
0,299839287208794
0,30208755958175
0,311788922976795
0,310323952999636
0,328908125782524
0,318921266216695
0,336524554462622
0,34288461147556
0,345068566749762
0,357212134599616
0,358302144490777
0,366298036989655
0,374500148182732
0,374685693998169
0,382806241337714
0,387082818383047
0,395776242476862
0,397339609540795
0,403949341755437
0,403018279169768
0,408684893717507
0,411043243703899
0,416225614063949
0,427110249598375
0,434534686546405
0,439059255994526
0,434261130651108
0,438714507781798
0,438679289267585
0,442173976439262
0,448436377427443
0,443319276449003
0,44492679540853
0,441886553659738
0,457462403525698
0,452062006377847
0,448315013107526
0,458505600326701
0,453363826877053
0,456828913760954
0,467385415327552
0,467364300579403
0,473868362562412
0,478185203289527
0,471650082873738
0,470715976571998
0,504315113304545
0,485307444552345
0,483825686405235
0,490763321832695
0,494492372272144
0,495970333410971
0,497900961150059
0,500568856731887
0,507932385022271
0,507574099692609
0,512405942706398
0,509720549877096
0,518379725595183
0,522023766667193
0,528565998351865
0,527385154460748
0,529899709224884
0,527434965609647
0,528211822569735
0,550565373955984
0,549551250967133
0,549681476212637
0,551355355057845
0,543634085811432
0,55379377275893
0,552271785544032
0,542242790663002
0,552155326852895
0,555683241583677
0,551118155589531
0,555349271337612
0,554348764663921
0,55336644772615
0,551569830238151
0,561879172900696
0,553388925386262
0,554416049885328
0,549578860102892
0,552546980051798
0,546668138426363
0,557579212783784
0,565002586760426
0,553463517118062
0,552907204808038
0,549375857652872
0,547379197203922
0,555099073156967
0,549809169656451
0,545788591589592
0,546918903237163
0,543024893263863
0,554301290755382
0,562119378376316
0,567359691102201
0,565371011172965
0,563953406413211
0,564518376960073
0,563311664304615
0,570031995500729
0,574696487048578
0,577238602747914
0,579432934846383
0,58535209062575
0,585844889573264
0,589235817401248
0,573214351225126
0,587660208041082
0,586575142181054
0,599316394323685
0,586574251148187
0,584196673807633
0,585500045355851
0,584415126648828
0,58838124774071
0,582740584821857
0,585828519626072
0,582439184602319
0,571521570417623
0,578181368711008
0,566794007193271
0,567848588062414
0,564839257824125
0,560164445212511
0,554225549480589
0,560676913762742
0,542459356806178
0,545995357861487
0,539473304657298
0,542006043462248
0,540574756743023
0,539334580423786
0,530628412974224
0,52738094496875
0,526113675938788
0,533943516460431
0,531438814540639
0,529402056889335
0,528451142638945
0,524570720605471
0,522690338163662
0,52463249037055
0,524851113319942
0,527274557767006
0,521570071689739
0,53265046419864
0,528175002137932
0,526719118299883
0,525088354265698
0,522787235459686
0,52232643384409
0,523967049363069
0,519712058044994
0,519075088794717
0,52113903543001
0,522844750451724
0,513748284485321
0,51934794386203
0,512265794190568
0,519665798521276
0,519431542763079
0,513854864436168
0,51704329209192
0,513119344867005
0,512908333379126
0,512929588574882
0,506613845710359
0,5037580180228
0,513047431622763
0,510922026293681
0,508542390678666
0,502438096650925
0,503725794064141
0,512737679358972
0,512845813330333
0,509795606630461
0,502414158658112
0,50712871488278
0,506691604596327
0,510982061334247
0,507843348250036
0,505576542428589
0,503638991563231
0,50841831990252
0,503682229465258
0,494399798358636
0,490583651599907
0,495346443638919
0,487985632532925
0,487366092309695
0,480868315856383
0,47746747047689
0,471335254270645
0,470132442706929
0,462795892152824
0,466224987320034
0,45898293225291
0,456422764613858
0,449676508233336
0,450346114776736
0,444775078435783
0,448359268409322
0,446393923084598
0,444919371982026
0,442930687820352
0,443696533056056
0,442643492304155
0,44538745393633
0,439356760398065
0,439428328224117
0,43947196896756
0,44143210694244
0,439505983693117
0,439542969648794
0,439074795515235
0,441959861929994
0,440417153550352
0,44516025370563
0,444215862575078
0,449593599800918
0,445994033025454
0,44455502402383
0,452585111339605
0,454954847118121
0,452143902609954
0,456323642116796
0,455648445754312
0,456994488877256
0,457565720208391
0,464983034863443
0,461392237641645
0,465061932829448
0,464880584842355
0,464367093237052
0,467041156006263
0,465790576888289
0,458892058619188
0,462534044663395
0,461738811782253
0,463259469426629
0,460206158451618
0,456883764499575
0,460263878945372
0,457580247613808
0,457578045798771
0,457660962197063
0,452688435178849
0,451965097317828
0,452637855031561
0,447548232657696
0,448710855602083
0,446977638687777
0,448581072615781
0,447882825704518
0,443883181126443
0,444024776101418
0,443989819961393
0,438225385904561
0,43781973958343
0,432920282119804
0,435539033064632
0,436545287345656
0,431981183348724
0,432139505272053
0,428751156476861
0,429851331465613
0,424897818632345
0,428391167081835
0,424058561931997
0,424191625879245
0,419301828901
0,416187292547999
0,417610483007341
0,413868696855383
0,40881902697786
0,409079417858707
0,402524440041317
0,403597603164034
0,400382617219609
0,398302531668669
0,396563841026458
0,390363266771323
0,387590171543378
0,386822980163723
0,383301910480947
0,383614144516376
0,38182149713332
0,378893085678356
0,376634198930477
0,378037555936611
0,376266236493916
0,378730392416831
0,370946696161716
0,372856674127683
0,370759881896939
0,370253533765786
0,367415275929146
0,363451595645485
0,365489418620618
0,36067027878736
0,355999556516259
0,353992250836739
0,3483090754334
0,347460357388415
0,336541835333592
0,338505663128957
0,331325760262083
0,326981566949542
0,322040164423308
0,318527424748701
0,316703682798253
0,32151266210384
0,320138710099727
0,322965021352698
0,327041472661187
0,333632676833679
0,338085004033223
0,346181567298041
0,357214733094606
0,366265825746388
0,377936366141868
0,391118996776585
0,401849481915216
0,423514645958033
0,436093670026198
0,449600293885377
0,466776463305213
0,481111867187329
0,495063431486158
0,51457860148316
0,531474969504212
0,54800258809972
0,562094965544577
0,580744346219595
0,595479230066108
0,610135050452116
0,635260519096037
0,651459515454714
0,660839075506213
0,684003177713107
0,690566857582825
0,708474055634394
0,723481197274393
0,735927964261531
0,742925127284722
0,752269053337442
0,76894200445366
0,771054641995479
0,76692904826505
0,779003676799586
0,778516870512283
0,783117185252798
0,785363143178643
0,786276809608121
0,783873769868451
0,778658733782728
0,786474350471826
0,783024088631542
0,780190833846486
0,775516401015244
0,769265261748613
0,77568909643361
0,771337902640006
0,776355259831347
0,776908070882605
0,780487114313141
0,780414712568954
0,789040958952796
0,789597777652935
0,791504201723658
0,795083592557097
0,801874393602615
0,813526342104389
0,818825732823384
0,831479832050654
0,845265463948766
0,855984392561973
0,867078033797491
0,867104705801132
0,881035242227847
0,899344096850464
0,904780354061844
0,909326759037066
0,912997219172505
0,918833198009128
0,935820202519142
0,938915769196912
0,932032196142194
0,932566199717199
0,935227719921924
0,924967149576516
0,934700710163511
0,937671193466231
0,921051531079358
0,927321635288186
0,924887054516483
0,923019613631538
0,937391555432597
0,937099314288115
0,955465913381834
0,943133492366198
0,968145895996068
0,971865878841525
0,988430588663083
0,997875724700249
1,00941829338867
1,02508707315705
1,03653732006133
1,05685732394885
1,07391140579259
1,07684905119157
1,07624791587766
1,12262098712236
1,10275143541205
1,12683738424207
1,15443267505984
1,17246005375226
1,18855897284535
1,21226379224902
1,21092247018762
1,23441062156212
1,25867651120774
1,31520279426633
1,32621808367582
1,33598338312552
1,36938394167538
1,38550321091657
1,41989465497083
1,42037457335413
1,46107062572003
1,45807963537417
1,48016689128685
1,48674688619968
1,52140752091681
1,53969145820771
1,4967069772801
1,51705324617888
1,55010295520138
1,50588506626291
1,53305744502259
1,54343180790451
1,48680940483799
1,50285419964531
1,54120554649238
1,48289476229358
1,54852503986201
1,53008819173889
1,49576902889441
1,52365962883711
1,54232162766895
1,58318865901053
1,53938416427359
1,54256099499125
1,57525288954744
1,61571968563333
1,61831363307964
1,57077572400176
1,64297379815483
1,69745666136571
1,60960180389454
1,68934631955618
1,73258434071983
1,71423856741261
1,75175717603585
1,78433612215104
1,83317721452655
1,97716426796006
1,8585753447938
1,77248985007013
1,84123613335266
1,85965183842815
1,86762281245235
1,79032970964394
1,89259943197614
1,98760356657648
1,95572519113402
2,0433591524057
2,02201982298231
2,01975571589374
2,01753340901243
2,06919981437587
2,06001636830062
2,02209008391971
2,34589913186448
2,01774018142882
2,09590727044814
2,32313816074155
2,14507820911355
2,13110072358027
2,1107637086076
2,14900713721964
1,92299093969775
2,28110497752852
2,17048535879236
2,11550070946054
2,18986285986482
1,9888623506763
2,13802985140626
2,04847677993389
1,98936016291112
2,05153611445476
1,78736498196407
1,87654954545443
1,88102515853736
1,79117012129583
1,68603275210109
1,72881509225416
1,70143315186078
1,69106382682206
1,65537541392195
1,68146060458532
1,61215956533643
1,68417995776396
1,59122060890697
1,57202327885092
1,59922486008588
1,53267493795004
1,51444211664009
1,57020683911688
1,50261837492508
1,52577150164307
1,45072400553024
1,48423662204155
1,4075175160464
1,41049624980127
1,39604390240308
1,34982562750537
1,25509185685005
1,2418344629876
1,2261828897083
1,16722104359191
1,11389009974206
1,09771428784043
1,02562637834577
0,981176353504209
0,93895676069758
0,905755388328149
0,857754182466732
0,84016329617844
0,789709624506905
0,754281367949161
0,708873727490035
0,700472691822526
0,665313946599755
0,65026478632611
0,619556992780837
0,595736456547163
0,577606517170348
0,568311443934895
0,544166300515852
0,535050095967468
0,523112507346214
0,516294358409081
0,510529854372435
0,504703602332285
0,495468853997822
0,489441061812175
0,485416886723952
0,485055549072049
0,478353869546241
0,4831964878838
0,48349781712544
0,485751218619335
0,484782236838641
0,483697372018563
0,493593450254987
0,489278709336709
0,492028437668039
0,494862358933664
0,498355975673226
0,492055885596246
0,488889648359269
0,497340901346759
0,488664141730541
0,493272178281039
0,49050742565447
0,490187773938998
0,492276674610022
0,48120339920556
0,487244487205363
0,486163466355638
0,475426449419517
0,479943214359377
0,484260675944409
0,479431424862807
0,490230528909509
0,482570901472145
0,486263208465417
0,494042511613869
0,492146892218691
0,502087411596679
0,490936462239333
0,496963280312438
0,497247068023218
0,500931439166047
0,488829664344227
0,503019368349946
0,50452218007318
0,509173695696741
0,49816608673512
0,510731755006991
0,501051498953837
0,493024731118728
0,490328161664456
0,500980544642148
0,496965846303426
0,502532748117378
0,49983797932639
0,507006719986036
0,511925396548535
0,502311617684669
0,507930792232665
0,516945363597587
0,527674172903733
0,531212044425874
0,5385294818634
0,549865878666072
0,553265756891852
0,569647576246166
0,582327274812036
0,596969130391303
0,602595862116971
0,622306652128952
0,628281604858956
0,631591805681727
0,618307590112483
0,613842729951149
0,615534162034876
0,614183057229911
0,602967627854837
0,606922217700285
0,595999907330229
0,576997095347363
0,573231074731906
0,568947705126331
0,560869630902447
0,553174594244957
0,554905451852542
0,564231554916564
0,558616153210947
0,559393006615591
0,559157085300872
0,559337834098937
0,577984788670146
0,579266394615684
0,562887621007957
0,560837233211108
0,557028503848026
0,565681448017432
0,545311002291453
0,557069599810032
0,547376723662804
0,555342232032609
0,538367970691395
0,544225848338013
0,527902851276294
0,529174909784489
0,533601297390828
0,536365894667891
0,524550522692675
0,530745046887654
0,524495695387935
0,530846642690046
0,519857797706614
0,527202556676053
0,526008352767301
0,521388363965443
0,511972404827754
0,512466184385602
0,512647459526513
0,5191704569182
0,499954717255266
0,498918728379417
0,507458238521122
0,492565005781777
0,514782720706975
0,517825495594583
0,500707683657234
0,518072466926929
0,498836289749986
0,486208777745824
0,490223605050792
0,492590593361645
0,482492880088331
0,486348899129835
0,484747139089893
0,482311427580954
0,476880740970576
0,464797627705391
0,47929583201307
0,471670974567926
0,465936548951483
0,479452655439975
0,468204160186555
0,470982208532396
0,470977801330763
0,481031250717073
0,472753795532226
0,483454661361595
0,471098636240465
0,48928973691619
0,459098721447029
0,469773443816457
0,471404875126137
0,479653785982356
0,47469451997442
0,487471487560512
0,476508612330763
0,481597550184517
0,485627147496871
0,497357978772839
0,500330348022221
0,515428541756791
0,519822861104226
0,48635977007954
0,482353868667525
0,506838149773169
0,512421902227605
0,542886290286482
0,537894765926715
0,517047237790227
0,547600198464877
0,533689141225477
0,532849663647619
0,557801071542065
0,587341447212496
0,584127874349451
0,564325215986543
0,595726179775278
0,610840184123905
0,655727787885057
0,634726888419978
0,626008764541835
0,658837902198607
0,690972813784935
0,69989385253245
0,702981158303536
0,700985816108175
0,715210591131049
0,710911332415713
0,782478957563376
0,779694957704467
0,810620909799496
0,756484179864572
0,783589108758977
0,780636985254124
0,788165425908723
0,798869419584595
0,803030338372598
0,775262025480291
0,777144244785576
0,77369392797036
0,767444855511868
0,683625037011106
0,753106390500056
0,805162767165486
0,790109145005726
0,728985102055861
0,78167501473372
0,74947824255227
0,781987169136689
0,776522844123484
0,762372615188019
0,738424097081716
0,752342046571863
0,78654742882975
0,769134014058422
0,746462564607931
0,774371589071739
0,704982874434388
0,702876915399955
0,687241402531579
0,72507703775973
0,698309863051918
0,751635748011563
0,721545653971002
0,793162120737264
0,734905843530545
0,720466927827248
0,684084713906789
0,728005589077915
0,716970473403563
0,732064704993605
0,723418200409547
0,757202297935531
0,727371864193185
0,729348213373339
0,749004537475498
0,713158694875182
0,665516657364782
0,726127671088868
0,759274565977621
0,768089614846042
0,69170433941019
0,740385021041733
0,740625557483276
0,747230160993773
0,719525419294546
0,835522835227278
0,711049810966923
0,693954766886809
0,704306275446782
0,754908053495364
0,754493781619886
0,837264341810393
0,772018413964352
0,770006572067369
0,876931878858303
0,78101898897081
0,730571856627224
0,923529105389335
0,87798147435923
0,835461834011588
0,823762122112
0,912609618009826
0,939438007617157
0,867833948465278
0,852609236630958
0,948814648703217
0,854707257935958
1,07641996756388
1,00619972186101
0,944079597304511
0,960961670286734
0,974574061094167
0,904152873507294
0,933862176751008
0,943865550066478
0,843601209407768
0,883990012767465
1,07723763545824
0,926495714139241
0,834481578977222
0,986138661474415
0,926461630607647
1,02728070611025
1,19436283821344
0,969331297424232
1,09635681291085
0,923933540410288
0,964494863460017
0,948072754585295
0,89972844829026
0,910171955972124
0,854090944822873
0,882872271353066
1,02832994341452
0,853987561816062
1,4396682399277
0,988415178821688
0,887615651264863
0,917545995275176
1,0665646700367
0,914797057655988
0,976128991044244
0,79069342588051
1,04701680650609
0,940930234385804
1,06443786521293
0,885139514531349
1,03906663768187
1,04554664904448
1,72224727938608
0,875717330271011
0,976946198051574
0,843675152228271
1,32410075132553
0,959713764688842
1,16579672914475
1,12991394596037
1,30964355705073
1,52417674522673
0,91992094671373
1,04247818749911
1,32858990685189
0,996724191004594
5
1,37864393078723
1,23503160755057
1,94858446733478
1,16730363259641
0,783098335592954
5
1,03843412816917
1,41118686379656
1,16650029369915
