3596
4000,36533379555
650,420452594757
1
2
2
0,029574466570725
0,0143553927416553
0,0230797600271437
0,0194568927834455
0,0200308351937169
0,0153684267362228
0,016259896488086
0,0125010553519047
0,0220774953000632
0,0168410829274853
0,0163876816589085
0,00629404765928975
0,0161520566512628
0,0123284002856568
0,0125355269546024
0,0112378193220002
0,0158288167818897
0,0127685010528008
0,0256743107009028
0,0111872550002383
0,0125260152357066
0,0128917206258331
0,0207316836236337
0,0166651563754056
0,0216282759665172
0,0220710100965193
0,022141023236733
0,0120468835413839
0,020786231624406
0,0132196326825302
0,0170086083426332
0,00873488517198434
0,020611470469
0,00820299187602338
0,0170791101974384
0,00809510985496857
0,0158488567747411
0,0195263759644511
0,0148658254699441
0,0047052312589039
0,0173794030948744
0,0115518960552884
0,0135610018554434
0,0158174871597158
0,0249212751667127
0,00984247409157166
0,0189241049761594
0,0123743049862217
0,0153811674475991
0,0153929627826925
0,0301910572588198
0,00760088580989163
0,0210583358870368
0,0122304328860429
0,0156081827784604
0,017163309997325
0,0163300533963579
0,0119995851377871
0,022924105483463
0,00679331548155878
0,0159208522503608
0,00402210591216764
0,0168049192218507
0,0151207582851285
0,0133052586711848
0,0104694159401553
0,0117363466400484
0,0184126102358093
0,0209856383769822
0,0131204466346426
0,0116512846198596
0,0216943011520497
0,018388899615003
0,0116118441047921
0,0246856942162195
0,00567120240571649
0,0178766898575682
0,0112995730090809
0,0114463427184192
0,0217921474421483
0,00995348133077919
0,0150134631510105
0,0203149721315841
0,0080485595337061
0,0117777615757721
0,0148637744149918
0,0109121499281485
0,0105759256680365
0,0264494985726277
0,0136726654472207
0,0185583073917066
0,00181786862425473
0,0128619419242568
0,0160818131708621
0,0101554432847411
0,00983086671958136
0,0121054045373402
0,0136133241554065
0,0140980230682372
0,0151090785797509
0,0206909242209426
-0,00944723782172596
0,0264993068647494
-0,00242823781695262
0,0378329198173326
-0,00206168109589923
0,0275768779698759
0,0238903693535196
0,00436647633001165
0,0101405754937625
0,0112986241243638
0,0136875928587755
0,00966105432830765
0,00941789747987963
0,00323941647951566
0,0151244369595358
0,0186415441776322
0,0114660456102162
0,0164743964798816
0,0116499793687672
0,0155689736484912
0,0165763091478682
0,0192745256059134
0,00663492509647176
0,020481990825316
0,00955550781676226
0,0225954152724816
0,0128217339732408
0,0145103925852967
0,00304695029324215
0,0222782692055641
0,0036146948458219
0,0196795994891071
-0,000716001750209847
0,027014239413786
0,00514552649462188
0,0233997870305927
0,00879849721522884
0,0244026132589697
0,00395845503578044
0,00257864910835664
0,0109557710600523
0,0171296178048239
0,00793983985200324
0,0260155069169171
0,00113006880498112
0,000406084505370417
0,00954225923852549
0,0186689882446191
0,00463323605461685
0,0203824875349378
0,0074502823376586
0,0255907703931009
0,00850311318413144
0,0187943077129136
-0,0115684810207951
0,0225387989275063
-0,0152091420701617
0,03084971481659
-0,000845681537217551
0,0351544035327595
0,00762888588859556
0,0140003738668416
0,000776538722389639
0,013850712252981
0,00332150231572888
0,0093092425118611
0,00754116018113064
0,0150843442296778
0,0119146039477345
0,0216448418479969
0,0192342675290697
0,0130775296602114
0,0138592445008594
0,0134411353827128
0,00281237586799024
0,0128770635870524
0,00673123633923527
0,0204323242550172
0,00197017676592643
0,0264461755020062
0,00608518009401328
0,0178927800953024
0,00628737711488718
0,0207595229171271
-0,000395007791464999
0,0156223337191765
0,00513657843519227
0,0159695153201911
0,0078322701626909
0,0293444705436933
0,00662103969986199
0,0287350329084951
0,00460077734905708
0,0196375130057768
0,00178334865582677
0,0241599656566228
0,00277690343044849
0,0145903698728917
0,00816923544149495
0,0114558599491538
0,00688162956425265
0,014209662661672
-0,000120151812858508
0,0193730467899878
0,0113824505299109
0,0307926433918941
-0,000442238848445062
0,00985689380910752
0,00763959788394604
0,0222240015155611
0,00246584348103197
0,0251773045995833
0,00510518432178563
0,0175761878585671
0,0206946196551942
0,0104266425262548
0,0148489045618526
0,0181256478096644
0,00412434786808481
0,006623792623985
0,00820026004698996
0,0159780934294831
0,0161611972730056
0,015098696100345
0,00982811075350009
0,0208031608330304
0,0111220517519013
0,0126187731973416
0,00617429890591086
0,0148673116810446
0,0123563745024216
0,0117099342575336
0,011211180643245
0,0147518586556791
0,00629462442286391
0,0227011247668931
0,00369793580141798
0,0202304220472294
0,00947881738166646
0,0186319118879555
0,00369458185957737
0,0188765637917974
0,0075238354452313
0,0255743976235797
0,000771630401124116
0,0292699532641889
0,00539490778183956
0,0125113237977257
0,0113642513151869
0,0148287565441026
0,0118330663378971
0,0113188293118591
0,00900095769040197
0,0128023683098007
0,0159052440854031
0,0214795108046486
0,017860909452182
0,0183426684490333
0,0221339659963711
0,0190474030696023
0,0102422954822098
0,00784054221134483
0,0227622562701309
0,0209706726177659
0,0173049056857502
0,0229221018284491
0,0186969195980272
0,0229572051252797
-0,00343625509423797
0,0137522518811516
0,0131581815621999
0,00476635583133671
0,0183551920124321
0,021618057596737
0,0121708054756638
0,0121429014476141
0,0142718078154529
0,0148168553022754
0,00745343719052151
0,0221233438798894
0,000138752302373323
0,0496014887380749
0,0168832695121049
0,0288106975287656
0,00572824876340447
0,0180638787337754
0,0103770685911393
0,0102611115170307
0,0149927961354167
0,0107683578283767
0,0176237287564865
0,0165502120066609
0,0183988566619644
0,012210918883907
0,0239072482336641
0,00980777197798076
0,0165838728381512
0,0109085494533791
0,0206990670451841
0,00980784376131429
0,0162623287950467
0,0127195770341502
0,0153630979799162
0,017002356143156
0,0149791115955299
0,029611625680384
0,0150140766950041
0,0182062484470978
0,0212448775862955
0,01702213641573
0,0205677958630101
0,0113080947306744
0,014345901852542
0,0202975721543164
0,0153719508006402
0,0150449579704874
0,0146785569501335
0,0254482344289405
0,0249064519579075
0,0242494156823472
0,0117922752849876
0,0193078613994494
0,0167084527553023
0,0233614770578674
0,0104110706223978
0,017168528694536
0,0171648482117787
0,0172636617582334
0,0241713142203459
0,0216691047042203
0,0228989863077057
0,02727329025494
0,0130916198023297
0,0285620455063902
0,013617334748983
0,0235795997028648
0,0186179520816304
0,0278651928956139
0,0176316587997026
0,0252355008416102
0,0248915820467596
0,0226664561561846
0,0206871516413707
0,0262113722546716
0,0154500452316463
0,0482827390680441
0,00762726305872866
0,0203065542623195
0,0195584344517575
0,0256951612825934
0,0373519982335112
0,0232439834714315
0,0403041333975892
0,0208971595281515
0,0409385035607427
0,0287874585781262
0,0356232619247177
0,0313323634368853
0,0291663126985193
0,0310943570890578
0,0302636115317631
0,0378191121320601
0,028227051155493
0,0384467373382266
0,0308260637846782
0,0467475175763839
0,0374149229952249
0,0496193674701627
0,0359287229790542
0,0346835088825979
0,0374098087650824
0,0531075194759638
0,0421142081559966
0,0612584864107049
0,0106918537384893
0,0724486461184578
0,0321255175649133
0,0623656782471928
0,037909492367266
0,0545067252643161
0,0526481010836866
0,060009618692769
0,0549954576332386
0,0544629923627728
0,0537349401221257
0,0625736813089426
0,0574207681106736
0,0595819182099978
0,0585853491374633
0,0704254840433008
0,0664542677161246
0,0730742610191605
0,0646287300650361
0,0669111595340317
0,083108115527608
0,0703753338843186
0,0743679576141966
0,0661191322926278
0,0761250495040664
0,0790206755836025
0,0918026731889316
0,0729733587888173
0,0721260094295098
0,0786587140502362
0,0843709510446818
0,0935891472850152
0,0846618203369446
0,103090974693954
0,0803320333432737
0,0945009148707666
0,0943079339443162
0,0868133279368918
0,104315836589466
0,100923657559406
0,101890881253166
0,0927606445468976
0,101586445369248
0,0883924784109834
0,106924201918866
0,106145191008281
0,111048367331676
0,10332242886544
0,107725377847994
0,123745574617451
0,116249837985203
0,123471232600877
0,118677492352485
0,12798039889763
0,127820499162015
0,122858805094649
0,122783394861863
0,142051741894813
0,107834930106894
0,140099112065534
0,127337974921672
0,128877881895025
0,135357443064363
0,145706768637134
0,156768137621804
0,140577649890678
0,150595921981156
0,151249856758425
0,151850715260417
0,155169288194301
0,153756386355753
0,159383799560067
0,159177411190293
0,158393589505466
0,168738019986582
0,173145827378686
0,168869787284877
0,184134056222318
0,165611768146011
0,180146233287195
0,179541165087645
0,178123477473952
0,179833591238872
0,187061497346253
0,192892869981978
0,187166758611588
0,203992660374365
0,201830894007789
0,224550079806011
0,208940679665888
0,20757867899356
0,206699413505423
0,19733365997538
0,203900423437074
0,207396185806584
0,221961642142544
0,215507704574156
0,225561276085781
0,224855136758767
0,242864471048385
0,234304140090987
0,239059917015138
0,235560513387635
0,239883647745547
0,240442919623413
0,245420154355873
0,243668702841481
0,237186337835416
0,257708078074662
0,269415087244748
0,252254727032395
0,269079576108788
0,253487174465034
0,264123438410129
0,256229732497999
0,264952504526367
0,263033184999834
0,266505478275802
0,294929109762095
0,290754932287196
0,295805176716974
0,291915237599552
0,30505634566719
0,311678601827723
0,30989652006626
0,320170712996861
0,318480297637935
0,307625919279144
0,318355021597441
0,306259378998715
0,319731660635028
0,323943875768677
0,312875535828262
0,317950866317925
0,32187024427692
0,334593990738917
0,329247241483631
0,31977560809071
0,332339258101943
0,35391121662134
0,346795731229532
0,33831410201234
0,349587800420508
0,377436271943663
0,376358373432485
0,353615016319998
0,382284374148184
0,3782926010861
0,384590474952694
0,382170243381834
0,380532052700593
0,388337910531674
0,381164577181492
0,385151532207163
0,38302731919865
0,389941788672027
0,392520892915974
0,415235935352385
0,418382700375316
0,40083896045721
0,417701560991971
0,403727234067501
0,430502533291676
0,402954258474407
0,425062862226284
0,422456560645682
0,427141164431229
0,429730912986385
0,43295442722134
0,441267079143803
0,446807997292646
0,448083393502903
0,453507238925625
0,450486429952466
0,438422408091188
0,455348365092509
0,455685910446924
0,457933971847841
0,468646017800372
0,447426957201422
0,48583698288465
0,490465489274116
0,471684534878249
0,487523306581481
0,499244819988321
0,482188056261932
0,470619438743513
0,480932209511376
0,509628550402016
0,49862824174002
0,489969236787623
0,474602262554788
0,500278585936342
0,490417397568775
0,505474722246639
0,533351993027714
0,513495817724996
0,518578951213619
0,50083425815952
0,517775128912122
0,550570446803601
0,520601801568154
0,564913020582919
0,525185621835494
0,572846703316358
0,562490112958403
0,562823068504811
0,550576552706522
0,560955554479241
0,563302508717055
0,583361481218116
0,547262419929694
0,56790585291668
0,569955541544126
0,566484352911186
0,556830494914183
0,603244766656497
0,563938844399265
0,604906243853407
0,566916272197934
0,596201226288096
0,592953368577799
0,604207657365628
0,565288756740373
0,619720086005575
0,564852318375789
0,600701791584897
0,572982099060876
0,603661094639446
0,589167295109131
0,612481364683565
0,61377141069595
0,648715109016665
0,612814027358536
0,651003710759331
0,611560510615067
0,610330333447799
0,625185713623922
0,644000781190109
0,634877561116331
0,64857912897473
0,64951314264249
0,651831052182407
0,625209427333145
0,684382185853313
0,661196853418244
0,663879586748244
0,648265559237147
0,684076773144397
0,658717458175429
0,64146166033428
0,628149324415377
0,655990812296693
0,651217208554525
0,649418608022388
0,665807514500066
0,689066222866194
0,653745375354899
0,678722823248909
0,660756066076107
0,679805983587448
0,630245965624088
0,68886899927722
0,664887895381591
0,683918613550602
0,667652821918404
0,675411549287306
0,682300748560559
0,69709433325652
0,673153519008346
0,726559026903505
0,713357455590458
0,692055531704483
0,68357961468343
0,733915805550769
0,728527619021538
0,695044507059826
0,700044148965698
0,747661323403172
0,706142646571988
0,713254700946296
0,728050407677965
0,722421713837906
0,720637594991475
0,706271234414059
0,717719303578121
0,757995335294971
0,756015957386021
0,733430132628923
0,70987013358288
0,763064328362853
0,719229289446832
0,743032428576065
0,710822344040008
0,754157640429936
0,72202944506802
0,757015194215228
0,742649154911107
0,750942887038863
0,710530094622453
0,740264720324158
0,724081490533242
0,760781898387672
0,721929489632841
0,743365101687807
0,726781013379009
0,804980909184745
0,748106986320613
0,75920640933104
0,713548462573781
0,765050707222785
0,749451340741926
0,780547041712649
0,734619971042531
0,773674919661494
0,744536961469846
0,769228622842911
0,755675318817925
0,770295053309832
0,73272230517865
0,772325697503467
0,755721749805928
0,787651117213267
0,740572133635696
0,753995799270078
0,754558902036871
0,748946428857722
0,73429699556246
0,775030634084806
0,744701205261548
0,776294715714909
0,757762970060099
0,777043423135048
0,746031696514978
0,804523245324793
0,745844238675853
0,797463049879692
0,773467128257353
0,80534730962147
0,759183602281497
0,774011447776053
0,746914008598119
0,793642256123148
0,750098819922713
0,79565804681708
0,748045572698564
0,774515791459376
0,758915173382402
0,789625819489523
0,769205998310993
0,759619965777291
0,751159281709252
0,770239476139987
0,783989708621502
0,778042232550272
0,750609398828878
0,800078253179716
0,745726262666541
0,773879552375002
0,781533035562729
0,810060092352579
0,73940427062236
0,775359300593066
0,772755014930198
0,766942532880589
0,768853951211495
0,806217643194705
0,736801259455464
0,756426077373592
0,757351248790963
0,776052630767014
0,764005064752046
0,789214252914269
0,758129102020435
0,775993034260497
0,763703413618162
0,762736382073934
0,746067557219948
0,779135889410151
0,73538266011022
0,772607300145512
0,7393851489308
0,75375886496894
0,744834057166007
0,772271934517178
0,758853664835075
0,781671109097405
0,757983635302769
0,788043063650226
0,742881664815633
0,774384411311931
0,752005387618391
0,759533195638315
0,77379260508033
0,797917326858231
0,760956559450136
0,785498498745951
0,74508015896521
0,760831058964807
0,726629001487435
0,746335339562961
0,737768851695284
0,744573502826246
0,73343679468824
0,743554534193795
0,746530374051496
0,768445460424413
0,726047402838615
0,755767424240292
0,729255429689782
0,744898790299761
0,750288525923008
0,738901121398632
0,722546453592171
0,773117382476549
0,715114762246876
0,740713285380952
0,737730564462658
0,747179851005771
0,702739446061182
0,73533750691698
0,692957087929998
0,716407307142885
0,733909682134281
0,734269581344853
0,709868755838561
0,733791326697277
0,699929550019948
0,735212310810901
0,706635862753264
0,709645017041735
0,703526902525306
0,729757105868513
0,695017393247624
0,734359725803071
0,68471027852403
0,716428405893097
0,681149662101664
0,708902069873802
0,662948345558178
0,708526800259119
0,691606978200945
0,707429070237466
0,655821152414688
0,73215543336251
0,667594711754791
0,68838546682615
0,691348373099226
0,692766477299814
0,6766649347893
0,69793122330779
0,65501532563859
0,692205565322317
0,674835217880151
0,665486188557432
0,666784879722934
0,674332028399524
0,648434057377452
0,702624624864727
0,67893388024537
0,657803827970212
0,650671259679609
0,674420637412786
0,647706144144784
0,635893759984665
0,643453401835574
0,662227091306383
0,629702735442593
0,660750709188345
0,635844739210653
0,647607660709166
0,62583442522573
0,645287378857072
0,613686916724182
0,645172660355149
0,616344852913145
0,631302409086428
0,613118385749206
0,629676531418533
0,623506951504089
0,635297172204937
0,591859384071256
0,63185067584599
0,59099186503649
0,629049987812247
0,594303180417014
0,614759145334543
0,59823341673018
0,601216573948634
0,576806227803497
0,607546750581251
0,591617027037741
0,594246856611835
0,577090436167486
0,592352925752721
0,578785489795204
0,58117991970802
0,561508873605876
0,593730187732033
0,583877306148218
0,572668695116331
0,553520729084519
0,554685754687152
0,558641056203766
0,567970407403575
0,548259288985477
0,57584243599324
0,536524645725848
0,553598363168761
0,539481882873421
0,535501695636429
0,535359308343529
0,557549529529766
0,53185775098929
0,53754193427903
0,527178633866335
0,533950910712672
0,519981408370912
0,537228539147611
0,520809640809053
0,521855428730911
0,516093040992105
0,514068974822182
0,51328137983829
0,523291077559798
0,498765400508868
0,525791271360978
0,499200871947797
0,506977665794476
0,490754804994869
0,4978083133875
0,503261328719444
0,496555614871866
0,481277425329979
0,484131046553788
0,484141369134592
0,479322795776732
0,461017796506789
0,475256658213193
0,474653837436662
0,481209418711813
0,468855414210121
0,471157662158499
0,469844005264735
0,460897725118073
0,448182355111518
0,464912949788279
0,44361606525927
0,451655338398894
0,445633024814429
0,454723355718663
0,435369084252346
0,439075213077498
0,434280290497795
0,448483974372598
0,42905554426846
0,437494602516662
0,419303320504183
0,423898471847558
0,423818594996448
0,438687912998851
0,420786638995939
0,420893939301341
0,418105170069488
0,410272424728804
0,405862821990433
0,41181090835654
0,4035656063185
0,408518276557577
0,399187594693731
0,400536264429104
0,392012624016876
0,404647052892279
0,386738284390228
0,392936167283615
0,378032235365076
0,384311018604775
0,389908152962524
0,391289448853707
0,382846706191151
0,378776261059055
0,380154666366357
0,373129261436093
0,370918366262764
0,371294401716978
0,366859336769472
0,372852042442533
0,356221642723402
0,371096901442372
0,353149154146503
0,365536670448368
0,35305625611282
0,347362815141187
0,348550759631191
0,351069111790682
0,344634783810341
0,345618694792675
0,345626678846043
0,355963504134543
0,332091317243604
0,345146658422425
0,34141451301811
0,341533415984384
0,336301171665536
0,335142908297715
0,329229898626704
0,332528703267086
0,334524755018387
0,328591418425675
0,312147278470215
0,3229874456193
0,320616453973296
0,323432622063387
0,323347369310778
0,321831545087917
0,311624546002302
0,312924474967551
0,311069636573837
0,309282867853818
0,301996749791286
0,311728562790846
0,30325123977415
0,309080059851608
0,300805777090939
0,304005172826264
0,3005547502984
0,299361980221987
0,289673807723092
0,298444864344357
0,288100897314622
0,289519074793107
0,283777925031562
0,292858462338177
0,287001323081056
0,289276963300962
0,282711843376348
0,282559576107654
0,275749947758189
0,28156668339045
0,271229067343725
0,273527327029067
0,264579270941802
0,272140734633516
0,268069026772788
0,269159929588374
0,270155295311789
0,267383640017682
0,261557717834726
0,262618588367006
0,259818389953334
0,262584277902168
0,254506721804528
0,258331768466233
0,24782255134109
0,252939598544052
0,259132788516501
0,250804966284214
0,250506525975691
0,244672909902718
0,238501629078152
0,242194878084133
0,24849820497515
0,242559442521155
0,247898097205732
0,240795925049985
0,237407024385728
0,240608340382483
0,233353082419407
0,240042036503235
0,234388971762881
0,239058862333309
0,230017985153166
0,236367274657932
0,224762988565275
0,22580264423148
0,226357080194746
0,225171270162315
0,223237448341227
0,229918383627924
0,215153169059956
0,226238090927806
0,217202348969357
0,2239682107845
0,216964534386322
0,223090505658004
0,219247300863279
0,220274031644648
0,218379550259725
0,222726664935648
0,215237421532501
0,210677743002726
0,209742363709117
0,218330729937124
0,209581612932157
0,211092287669041
0,208392443349443
0,213141474696469
0,206700241112416
0,210013880802587
0,208102057203532
0,212391716989106
0,208575541760506
0,214547638647959
0,209546884538452
0,20659072930422
0,207479207648652
0,216754062907063
0,21681609391366
0,212212696777782
0,210908859313841
0,219704082710622
0,21199570443106
0,216114896502498
0,20949360876334
0,218033208566555
0,213956716750549
0,222280759560616
0,218968630352818
0,228092744579055
0,215308650685547
0,227794151792474
0,2188508996757
0,220186917501905
0,228022686460822
0,232756932873761
0,232084200609234
0,236063036803901
0,233475733440687
0,240432024663114
0,228034186694591
0,233821458264994
0,237979735545336
0,247261494783473
0,238674659428082
0,248405606089329
0,245018207227913
0,250365115456784
0,240763687657147
0,252635895330562
0,248384979377431
0,258014701766008
0,253292753043341
0,262345992913353
0,26177142385296
0,267850641139547
0,256977881314796
0,268174180520009
0,263319404204391
0,272152291145754
0,269513653965747
0,27411091966892
0,2769336408172
0,284774086787048
0,282544870156589
0,290248701304418
0,290900641548425
0,295289591802234
0,295210663578699
0,305454515798601
0,302551022198966
0,309594777027298
0,312544599146526
0,308392181055997
0,3088701260851
0,321237178717363
0,316133739421918
0,326135297696256
0,318346723238834
0,331541264153393
0,328200119009093
0,329340225927857
0,328845708905295
0,334191608282126
0,327550858645278
0,345037311273004
0,337567483625589
0,341710702972707
0,327087194060643
0,342977947701899
0,335786210447949
0,349618728722041
0,333537695701924
0,346257682520752
0,328172511145802
0,337244019315235
0,328838854282174
0,328863505285503
0,327653645944818
0,330084151129172
0,331063303706406
0,329202020796747
0,327390396913104
0,326430028918957
0,322316982465324
0,330346943006275
0,314813261379832
0,32112140093825
0,3134907079534
0,319282919862361
0,319131291141498
0,326525041927742
0,317531162376226
0,318316384704186
0,318110682508358
0,319193162591573
0,312036900039502
0,322108071598928
0,314237265381865
0,317951072679703
0,316621457542443
0,321549726112216
0,311495864600273
0,316769321037646
0,313244308546638
0,316589200102797
0,317009732558407
0,317551305252202
0,305288688484829
0,312085580767777
0,308278731095435
0,317204723597295
0,308972744862672
0,318037548095947
0,31522610196022
0,309384127555377
0,304464436517008
0,305162854505491
0,299761253352612
0,298389964002235
0,300470421197384
0,299653907549382
0,294815028729214
0,290666850001552
0,28656140690878
0,291083463015605
0,287968511736753
0,285971392788662
0,278584323167155
0,283823644733211
0,281292566287781
0,278142897443696
0,274899015104396
0,278455705697326
0,26562283544098
0,271342721325818
0,260448115707572
0,263714768663643
0,264985639756912
0,265067619905044
0,260116804503781
0,262590584013106
0,255998873060813
0,253650289215821
0,246696396034373
0,252182478394898
0,249938107900562
0,251771822622652
0,238072945506729
0,235220772473884
0,242708776545986
0,23738986593312
0,228180643846274
0,229494573802137
0,231396840265578
0,23214543540835
0,226291327733833
0,230432211559941
0,220987613439994
0,225835091358493
0,219850894891745
0,219125358585637
0,213406489445049
0,216236011598246
0,212222132835209
0,212845910094896
0,206906814876222
0,212221971471092
0,207226854410782
0,207349531840488
0,204562002922926
0,21062065861754
0,205779367720334
0,203878650443914
0,201444396340819
0,19744292465909
0,19394218476732
0,200404601798394
0,1897347756531
0,195668315397131
0,190895614006247
0,192736884860255
0,189689514793886
0,191769107793626
0,190682555693506
0,192076990408838
0,186018306943085
0,186092169592058
0,186164258451243
0,187550273246262
0,179625930675963
0,188213110091421
0,185325123088478
0,182683032533056
0,177342281738514
0,179547966557403
0,180248773404883
0,178100307660961
0,174128050034712
0,17706479215207
0,168948740242849
0,172732992792601
0,174440841297591
0,176905157330658
0,170508226006093
0,171882823104831
0,170137692395372
0,17195485366707
0,167992647837777
0,163761110475946
0,165156504404741
0,165727557710631
0,167990669338929
0,168758671012962
0,166327285801173
0,16678377531381
0,158622443125463
0,163743544660567
0,162089679834474
0,16223116232404
0,158207475451851
0,160639332285746
0,164024845833771
0,161390068219009
0,158629582103709
0,16566083479847
0,152449536907347
0,155226440049946
0,159759930415013
0,157736226166924
0,153964648283779
0,159781237544633
0,157173196414103
0,157300046980274
0,15327351309849
0,152788153069862
0,151665164145737
0,150484043640107
0,151807583411778
0,157672533536356
0,153768000391954
0,155620282223293
0,149973576442298
0,150349519353854
0,144800188767245
0,145489184323273
0,146374293441947
0,154027298475956
0,152503120059358
0,150814624416134
0,146324051569687
0,149291585068281
0,144968084254984
0,149145625844162
0,147232507112025
0,146120695004205
0,147359364291596
0,147166902560815
0,141351214069702
0,146365367530927
0,141299864182462
0,142733381813581
0,144153052906675
0,13997484895515
0,140570643254795
0,147873075580614
0,144065542008409
0,143411779777506
0,138619552720516
0,144242329874986
0,143181478193631
0,138065760222053
0,13660606701877
0,143958340209486
0,140232168331797
0,136881052999625
0,134629031337169
0,138167083972994
0,136675442135236
0,140085090269169
0,140936659632774
0,141354960369057
0,134774936919025
0,137179248172846
0,135258748829341
0,137416058776191
0,13743699381101
0,136007979444144
0,129976073614034
0,130385353388241
0,133519759924986
0,137481062157181
0,13277005208162
0,13356828915522
0,131419424552397
0,13516097504962
0,132195161064139
0,133920105811593
0,13135773039103
0,133108554926818
0,127429497409585
0,131910313764549
0,131024684659703
0,130264667353218
0,131627822055675
0,132053643933707
0,124910113025307
0,129600536510653
0,129074091559174
0,128419255573674
0,125407688412477
0,124279362362943
0,125879882820221
0,127915007720854
0,124107028393426
0,123334149365481
0,124826808476638
0,127307453320177
0,124775222540788
0,124512997592511
0,123124457286629
0,127059764907303
0,122955700953938
0,123730406546762
0,123251483298837
0,124941741393228
0,123785278237052
0,126170188882582
0,119711528929754
0,123837477264672
0,12225386411946
0,118824515738814
0,125301060673603
0,120100641262987
0,116073491947771
0,120265235534114
0,113716298883625
0,116624242884548
0,116738479772718
0,118331275243842
0,114645199434399
0,116112762594689
0,114936640210457
0,114349374339775
0,110342400746414
0,116907729117048
0,114831683939289
0,11296058383628
0,114884422219702
0,113194922044578
0,108248209169872
0,11509610682605
0,114080214511552
0,112496974403748
0,109196352323852
0,108928918527541
0,108374840781203
0,109133809299281
0,107264426239918
0,109273685141375
0,107291765594736
0,108417237197511
0,104601394692788
0,102082339324833
0,101088219220232
0,105370309086144
0,10052552115594
0,105690041823383
0,10484614851171
0,103485155158087
0,101130448097589
0,100669323330994
0,102772280071319
0,102395616994063
0,0968993776937792
0,0986267916586576
0,0977740802265655
0,099919663964056
0,096547614820545
0,0989964382817346
0,0972053737890798
0,0932414717049752
0,0927824128931779
0,0977076464339267
0,0928803967039486
0,0935523957599719
0,0942338920123604
0,0929868177463687
0,0926197211778512
0,0942682156034984
0,0891522314434663
0,09225475514171
0,0923922993507989
0,0906257765342956
0,0881591999665591
0,0875498745518864
0,0890460645791961
0,0897014115052905
0,0867893655485161
0,0850499072619197
0,0886553674688487
0,0861696988157596
0,0856439780489067
0,0877193901639907
0,0837894360972787
0,0881226249229821
0,0865069982866108
0,0851405859985153
0,0828916209200278
0,0859439024064208
0,0841009832024077
0,0821578119010222
0,0835852024709875
0,084994630214046
0,0812273231951007
0,0820819062338788
0,0823365574095381
0,0829958711356169
0,0808031329648451
0,0818454255707006
0,0817497899106173
0,0797841996007979
0,077588177414374
0,0820543132792652
0,0769004578790051
0,0810726761822314
0,078119219442809
0,078728975227105
0,0781735557507887
0,0803666697214894
0,0787899086965095
0,0780287787687808
0,0798382668245125
0,0776171907224777
0,0776541009901145
0,0783917275128853
0,0759411394312102
0,0755779960110597
0,0767630392362209
0,0778897941695427
0,0754274103223887
0,0752305179720582
0,0724926994245636
0,0742800426930045
0,0739396255962654
0,0725328155314133
0,0727001512826636
0,0734841906406611
0,0753213802300351
0,0743657236715127
0,0721045833047774
0,0730726670319406
0,0747178247717095
0,0747032629144496
0,0712268550225366
0,0724215841450652
0,0715914058944006
0,0749822167504124
0,0704100129743787
0,0698620917489878
0,0705132521973587
0,0715605337562602
0,0705134230862143
0,0714052700640435
0,0710191075996483
0,0709869953390421
0,0720346751382544
0,0742177547857166
0,0696553493767026
0,0699521921304634
0,0677311447749546
0,0674538779150372
0,0699663107557017
0,0672933003738489
0,0683378239891606
0,0698125908758672
0,0690385524801193
0,0685823068480156
0,069249854909662
0,0669344552623378
0,0668468737762604
0,0677234703416582
0,0688836604723849
0,0649359173967265
0,0651641695719798
0,068176355221994
0,0661171939825813
0,0665861098785633
0,067865910906953
0,0671485133824296
0,0616540504035297
0,0629069306892243
0,0675146493078329
0,066635066170529
0,0653325829651326
0,0646344631541655
0,0653939748989063
0,0668848836108902
0,0661428698673682
0,0632480226394363
0,0651692441035396
0,0623246156425033
0,0616178055622651
0,0619548767242004
0,0634830663743709
0,0624369867794779
0,0631259423778169
0,0625450452973099
0,0609674589589218
0,0604398093487423
0,0648322030724704
0,0610292857378146
0,06046329910507
0,0607164872851462
0,0620499702117345
0,0623543418053396
0,0614899149563758
0,059526767301613
0,0590454036846329
0,0610486462286497
0,0651659588318246
0,0631608553874865
0,0625308240941926
0,0604811296850278
0,0611499400766219
0,06065866394677
0,0597322843037276
0,0574079905878605
0,0618083420532339
0,0590089074495261
0,0598663843334201
0,057323885537631
0,0587683786735911
0,0589278922184909
0,0578460481345708
0,057398062639975
0,0571297296202447
0,0576235314583051
0,0561518695981806
0,0599375373013532
0,0573229291278365
0,0558053978159932
0,0562080116664564
0,0570055873243959
0,0573715253477745
0,0563754749259047
0,0569464624763773
0,0553217788459595
0,0546337964163715
0,0573536280171235
0,054244050641589
0,0542881045877203
0,051490068654992
0,0528371416008827
0,0549994766663164
0,0535544336585973
0,0529243640304474
0,0508640425006371
0,0541943587464725
0,0554055905759459
0,0537497701288692
0,0535032706866131
0,0506099357386275
0,0506724749089702
0,0547429248448891
0,0508736703298646
0,0518344969053593
0,0511876623776181
0,0487891144254774
0,0504874930246766
0,0511959740334743
0,0504962681367948
0,0479540496180478
0,0513325889374439
0,0506493655600754
0,049980379575022
0,047587214745533
0,0479852876526716
0,0487629215558937
0,0488273699359313
0,0474659600011182
0,047409078412799
0,0504248547086801
0,0466805568699348
0,046483132991216
0,0491333374745053
0,0465069595679485
0,0432994647824947
0,0463649766976726
0,0463962726084957
0,0481908563084224
0,0477641303938223
0,0452857122716042
0,0433350576143467
0,0439112778475823
0,0420157516546413
0,043753138812064
0,0444055567844009
0,0453137012364708
0,0452815641703889
0,0445190221673783
0,0427918900940817
0,0431967678742417
0,0413659836513239
0,040713522894815
0,041476390251636
0,0434948308278505
0,0449377615691496
0,0408427243954498
0,0426475660976602
0,0425094113702914
0,0399933237401994
0,040537712370556
0,0394781238016157
0,0451938331667836
0,0370601618655587
0,0416245215560437
0,0375830260432638
0,0421798729515594
0,0394039705288646
0,0398906584784149
0,0386102055616483
0,0398528033894153
0,0390177911671955
0,0383038617597557
0,0386408165465234
0,0374444255777949
0,0400342422390821
0,0405366167993313
0,0361018913543499
0,0375621619400451
0,0378307066105743
0,0376865995325602
0,038536967371895
0,0395637092322972
0,0355863378927659
0,0374403833409837
0,035913851906497
0,0351002514386859
0,0357510710832821
0,0353892358958929
0,0359803558078094
0,0339617687238606
0,0363336439294601
0,039458321998223
0,0359700553865999
0,0351271016578224
0,0355537331859203
0,0364936795417502
0,0350540871223422
0,0389654948150991
0,034507362590126
0,0350064041084036
0,0310912000505949
0,033356666112475
0,036940193281666
0,0375614442763857
0,0329654104271581
0,0380915335467457
0,0330285028593904
0,0333885235004968
0,034402442534417
0,0336701377465483
0,0358425970108666
0,0340610769204769
0,0322444982127137
0,0349114684406135
0,03101359441761
0,0295335615657644
0,0278896469543661
0,0316471301811847
0,0310732184648324
0,0371105512741498
0,0310761552451569
0,0378235259925284
0,0272646419873702
0,0330928432662803
0,0272525221026443
0,0343025489667083
0,0298754534226133
0,0332301391749883
0,0326227144992627
0,0320156676322739
0,0243365086102799
0,033665159534075
0,028899182485487
0,0364627725203735
0,0285389711924484
0,0351734919515218
0,0255731957530996
0,034733033492817
0,0254275387707152
0,0366399022162131
0,0247285539779141
0,0355759672874733
0,0264160372197966
0,0340606101812252
0,0205169145622188
0,0358366263957527
0,0208243690199419
0,0387069790657719
0,0245747127201481
0,0388240414539256
0,022785599748062
0,0398942194237596
0,0231137636935438
0,0355039552692986
0,0176990683122396
0,0390524333981771
0,019433632955568
0,0426223982186332
0,0211484228929535
0,0357888236748766
0,0196462920127594
0,0394063137696835
0,0268060747761547
0,0333368629216742
0,0261595605813136
0,0343127304758092
0,0328990378647603
0,0243357921662437
0,0370450592920608
0,0223961409084434
0,0364775982016658
0,0194701363441082
0,0418097671205491
0,0178672843079516
0,0386246578325739
0,0196845965600891
0,0341470370719271
0,0243742619818651
0,0332672990368821
0,0295028618571086
0,0325277120444198
0,0289619210802218
0,0278005323987812
0,025914481204993
0,0260866405120736
0,0279975928433291
0,0325230624789811
0,0284882146438204
0,0340943528024619
0,0287247374263245
0,0314910943399605
0,0270463782549852
0,0283142332474578
0,0287076386367842
0,0323970097940806
0,0284161521757938
0,0308407875647
0,0277884715790106
0,0313034305140922
0,0267378532522498
0,0285322160226094
0,026467074185297
0,031482411687329
0,0290384670829783
0,0300691011570246
0,0278721113986267
0,0307930559939877
0,0285052994288978
0,0321950802878917
0,0284226555348508
0,031079371084937
0,0269427724926614
0,0294008863224006
0,0292343811908254
0,0318436365618496
0,0278263290814481
0,0271929026697041
0,0252349453607319
0,031098026830737
0,0298362362005025
0,0299710991019781
0,0304003387759219
0,031061070448846
0,0281652169130362
0,0298847250051368
0,0284913654509418
0,0326404496701833
0,0255943010808934
0,030948161499162
0,0280798853056768
0,0284839600039753
0,0289879838060669
0,0310316536475474
0,0288506189568948
0,0319211586715267
0,0275339214522093
0,0298521027288215
0,0285630778132403
0,0320796563557362
0,0263528276613139
0,0290853912013043
0,0283497065677306
0,0307120853462143
0,028634986716031
0,0315474015257424
0,0278569114205225
0,0308578531544941
0,0289410826973519
0,0309790949048936
0,0289281246477704
0,0300614205468529
0,0288751493446468
0,0291787626347584
0,027879786319836
0,0280133935486289
0,0303668765733033
0,0276333259024755
0,0298232704030668
0,0274825936607526
0,0281733701117622
0,0302939307278259
0,0288629484534609
0,0298122029913705
0,0307715706695382
0,0299207791986534
0,0285810825242852
0,0313035850429836
0,029408737261814
0,031945017821601
0,0303464134627617
0,0284890567050335
0,0297764259311758
0,0297503097035902
0,0298382071656065
0,0327435084603551
0,0314112948259436
0,0319819329894378
0,0285702128124396
0,0312236977748021
0,0286947757276264
0,0294434587438836
0,0301461097537944
0,0334692599381244
0,031208132657438
0,0307975428874633
0,0295562452346097
0,0307082271819122
0,0298641727439336
0,0300145022566765
0,0312855509603608
0,0315676668182383
0,0343031280849463
0,0329209499724363
0,0315788541789674
0,0321045729167669
0,0317120739564075
0,0321143158363465
0,0305497991066913
0,0316762064638438
0,0315630418068776
0,0327219574891134
0,0298983601560625
0,0320507892215085
0,030982523692627
0,0333199978068775
0,0331880415865237
0,0309840831505827
0,0334202332582244
0,0333207119383758
0,0310220239897454
0,032502633483191
0,0305512272014577
0,0321776809104413
0,0338112673653361
0,0342925927269446
0,0304227777307127
0,0343272211175518
0,0326048345498222
0,0325457899662097
0,0332546577042348
0,0351008265013553
0,0330123092642531
0,034487064659972
0,0318926213626139
0,0335186656113838
0,033092078325437
0,0353891856124578
0,0325919453018883
0,0331132371264815
0,0325881164041206
0,0354509692211682
0,0343301045875375
0,0335635992820276
0,0360763951832766
0,0342847047495153
0,0360034672837249
0,035575362408345
0,0356410079578765
0,0349060754290897
0,0351142939391637
0,0348412542642658
0,0320746872174719
0,0352747698624967
0,0342205551877264
0,0349774870737091
0,0349833267194163
0,0363010656417485
0,0357351031122776
0,0344447027907931
0,0357717036074423
0,0358567591615434
0,0367245616938097
0,0352095312106827
0,0349406666853005
0,0349657354692718
0,0328319562019111
0,0342125436456916
0,0347082120068596
0,0351132429473968
0,0333465050244778
0,0348676991849849
0,0328049528926412
0,0351395218340359
0,0355712169339594
0,0385110523857432
0,0361003442685201
0,0360006347490672
0,0351274772516914
0,0335483531950402
0,0357637805500438
0,0311527839245303
0,0332793141559319
0,0348759689186829
0,0347469891137295
0,0358358090279831
0,0347488870393333
0,0338708412360271
0,0356836186594287
0,0340655791728502
0,0337920590961717
0,0342778017001831
0,0334397198377941
0,0337112406220017
0,0323852839631086
0,032973399298636
0,0335917764227288
0,0320906411343953
0,0334794632789044
0,034314989762367
0,0321664235607052
0,0326027710004314
0,0349428986297094
0,0333228216958808
0,0334370734273703
0,034808507301317
0,0343094911391006
0,0312353034679759
0,0329460711737347
0,0337716477743885
0,0354703333201818
0,0330142565584265
0,0340255574043055
0,033572161546948
0,0343575460386633
0,0320010344905464
0,0326411889828427
0,0350145922440149
0,0332857295453925
0,0335575034869959
0,033954586751454
0,0331830546245884
0,031101598907012
0,0332228006578858
0,0319546932448515
0,032451301445625
0,0323739384847239
0,0320747489423273
0,0357178875890471
0,0318316404822169
0,0306364460908105
0,0308345949854545
0,0322736985850138
0,0355384812707163
0,0336977718366365
0,0310527569934546
0,0325443189614789
0,031910990045096
0,0324374734488706
0,0333715768564454
0,0337819406846176
0,0312120929635524
0,0304354488298145
0,0351844115235184
0,0306008664785389
0,0329560003299814
0,0336117242473118
0,0340131127463052
0,0331968489438143
0,0325760151796479
0,0343007381962754
0,030872873083637
0,0323843057534171
0,0338735208101979
0,0335509870487495
0,0332989598818655
0,0299852103382157
0,0328919683951014
0,0311174030838042
0,030952060604791
0,0312664799730036
0,0307864801207893
0,0333347090160191
0,0293760135082669
0,030733133331398
0,0298245475392747
0,0320586844418225
0,0323079743693901
0,0309975427173743
0,0332958092837063
0,0306107127682398
0,0316530765290358
0,0318711566111129
0,0331421351026296
0,0294823720948713
0,0325538212425361
0,0323380937345108
0,030358831435998
0,0326863275252891
0,0312843318547164
0,0317685789241444
0,0316714012487626
0,0307865557797157
0,031608475944136
0,0333633103480301
0,0303163165163084
0,0303120107909708
0,0312636785868668
0,0312367956235676
0,0301135015710948
0,0296489442436636
0,0289263901527783
0,0286819612743745
0,030438069010773
0,029022705289962
0,0297073024604158
0,0280815070706729
0,0270795106281081
0,0283807239430062
0,0311052085985299
0,0291204679730968
0,0300146330879175
0,0303510586971037
0,0259830448491806
0,0287313768167228
0,0264997768909259
0,0275900155895675
0,0267605566444405
0,0257489692938033
0,0271547699308505
0,0288028526328323
0,0271482361273014
0,0281511947708838
0,0260960085009925
0,02597170231561
0,0273613611357708
0,0282822025751649
0,0270029188998095
0,0276374326997177
0,0246680633749788
0,0259987460985775
0,0254604022797488
0,0270627257512119
0,023843114580701
0,0275373596042529
0,0231762443792467
0,0275455456019442
0,0255833532979137
0,0291851214663261
0,0256737069696963
0,0288817972971201
0,0252125704891841
0,0240937515689105
0,0255500928058565
0,0249003833894393
0,0241971445553482
0,024650967254743
0,0227551490570455
0,0249809539427854
0,02625732113564
0,025028970328237
0,0273566714842201
0,0239820269432952
0,0275882480784715
0,0253177687450128
0,0250172026593019
0,02620135189729
0,0263239970661116
0,0236306566419692
0,0249436137636242
0,0251505344710693
0,0256837493791073
0,0246369820240246
0,0252213241679536
0,0250620724397946
0,0243130206691825
0,0246894904416095
0,0258953691968264
0,0234153118183736
0,0267023033455542
0,0282565450272655
0,0264627537615291
0,0259048297063641
0,0255368309744892
0,0243725044413731
0,0266359986937109
0,025466796738387
0,0256977134815776
0,0242806323183276
0,0249417557326549
0,0236500277801157
0,0241965188724705
0,0251755064405215
0,0252744565285433
0,0229918558841344
0,0240943463773816
0,023922985433231
0,0252695145824626
0,0225083112581416
0,0266033745496791
0,0239781321157705
0,0270751898870805
0,0279862487143185
0,0239419992066806
0,0273763109918709
0,0231814098703308
0,0265621683564081
0,0220413225629904
0,0239216412285529
0,0254288589629719
0,0269645237657362
0,0237611992334688
0,0259770780933661
0,0252622835637897
0,0277846170351804
0,0206836208947859
0,024213860738099
0,022951996856991
0,0266531413893802
0,0224103462032553
0,0257662712634863
0,0231252318941901
0,0276150380057522
0,0284502788883768
0,0252515715131709
0,0231907809753375
0,0240946908971539
0,0214653754559859
0,0309635753597479
0,0201287372508282
0,0263290051776657
0,0225497721965182
0,0248271264604663
0,021487233964181
0,0260293246824933
0,0203493632495891
0,0261810670910482
0,0266560404742457
0,0217061444997451
0,0248255415716153
0,0243474899378095
0,0253839755383517
0,0254514568987809
0,0233089409254436
0,0226112965761214
0,0236666601393232
0,0248513690434303
0,024529311015342
0,0234230490536505
0,0226335959745977
0,0248996141366649
0,0214185410647269
0,0259713745019768
0,0251987442303163
0,0230596717649469
0,0215497608457591
0,026870751050934
0,0241925748336384
0,0297304890162511
0,0288591838582198
0,0200176191952202
0,0262255126513203
0,0204596411909401
0,0248675268171566
0,0211887285890303
0,0230606423653489
0,0239691105977583
0,0264291758984416
0,0208283586690107
0,0239834197330326
0,023477757004307
0,0241118475554927
0,0227011055066679
0,0255935352133697
0,022743524064276
0,0236326136342024
0,0243691497548243
0,0209283949497086
0,0267472689900331
0,0211939731341943
0,0268266771066103
0,0234415212679733
0,0275656294842855
0,0296065472979127
0,0231617712137602
0,0251174481338877
0,0241493862868846
0,0228074700029494
0,0238944089741775
0,0240178058263032
0,023072309800045
0,0251977632275966
0,0232777465550404
0,0223756884715813
0,0220811555096884
0,0259247545667867
0,0235830904706801
0,0265636637808561
0,021467725671356
0,0243359047286305
0,0219174688818646
0,0254327803904125
0,0200133614714174
0,0286790642556303
0,0207395372251193
0,0265881002951142
0,0221588420668958
0,0340372573585122
0,0236547736804827
0,0254475196432243
0,0280065015968904
0,0231825586944383
0,0254996730198101
0,0217397703572786
0,0261906509850742
0,0252544265107636
0,0243545361190356
0,0265613570174941
0,0238620156680986
0,0232337258919944
0,02360451461606
0,0228338952088858
0,0237101599108253
0,0295884731978476
0,0219397335333909
0,0264102312991747
0,0261126890098687
0,0255273081688935
0,0294245027379642
0,0188988963688517
0,0285278147973928
0,0247034247578689
0,0245232574983236
0,0234985746427248
0,02426750929069
0,0219924782588371
0,0260870184498326
0,0258723307624185
0,0253055530999903
0,0265878013935725
0,0220926198892177
0,0267246707965583
0,0241421616913278
0,0277714589780955
0,028125784320121
0,0252511351035203
0,0283786193628904
0,0248570305107669
0,0254674287328636
0,0262080136760355
0,0273793087869039
0,025393475770118
0,0286044465476448
0,0284284785168377
0,0233046050452061
0,0278209320536069
0,0280666676121809
0,0251012907556862
0,0270941230019268
0,0252948000617841
0,0278977379018701
0,0263939785502573
0,0325798197851923
0,0323993475856655
0,023042932685619
0,0369508937488851
0,0212047640219398
0,031139221458643
0,0227026237761829
0,0318266441302403
0,0239206709239579
0,0343512364026179
0,0223433314008032
0,0312101199335371
0,0269092702814216
0,0327452375357535
0,0275481315057184
0,0266114658029617
0,0279179152644426
0,0311295859660278
0,0284256115256844
0,0310914441860282
0,0315697808146444
0,0258364362722377
0,0356357642678959
0,0316418260722919
0,0322557055132997
0,0304023409118801
0,0262150480969443
0,0405723236372435
0,0232771470134019
0,0310237773981391
0,028903429990081
0,0308111883676737
0,0324714130255487
0,0327966815428587
0,0384499713094294
0,0295299002444019
0,0304928753210101
0,0371122479749291
0,0272323495814505
0,0393965716581811
0,029708453994953
0,0335610964757761
0,0333794723195672
0,0389009392352374
0,0333771920700779
0,0433021659040095
0,0368664507030416
0,0373525150927971
0,0452161871306576
0,0335156636124127
0,0432823031327572
0,0358680822242749
0,0448319074720043
0,0359570738665479
0,042516264238799
0,0359079797550272
0,0409006805014883
0,0401225840026881
0,0455846719161039
0,0358641734652909
0,0446288571433222
0,0370754998519516
0,0475065021175893
0,0477392328826905
0,0539759446669451
0,0395541497620598
0,043953076157789
0,0420901954954259
0,0509818694623641
0,0396761208693543
0,0445886900478232
0,044778102507664
0,0435908533557351
0,0453552348717949
0,0477388769453148
0,0498633373175726
0,0444754794180548
0,0463377876740477
0,0512329556194532
0,0459393668784388
0,061322257504687
0,0481310899701996
0,0582229472812884
0,0498099398280655
0,0609344560649436
0,0480693608515946
0,0552501633195997
0,0577840795871706
0,0563419408761604
0,0559638498072521
0,054295326427302
0,0568563072827955
0,0562041575520295
0,0664905144036449
0,0619986923812174
0,0570261029737954
0,0713724045373715
0,0573172650302007
0,0762586797390588
0,0555460760429202
0,107858394083476
0,0716221860073286
0,0790843467962208
0,082529335871644
0,0826716849094669
0,0865560656247106
0,0821698422055325
0,0896466363001503
0,0930918983568662
0,0930658473081598
0,0980030338954929
0,10245237657233
0,102651372851916
0,106600565676496
0,11116259565715
0,115080832030691
0,123796181688227
0,125922950219404
0,127456586288064
0,133256864845861
0,133667122550228
0,142243122057741
0,14658440860051
0,142888154392365
0,146265546851349
0,153473786081236
0,152184612702996
0,178739101882654
0,161051655938219
0,174970734454083
0,17028787504388
0,187614363976789
0,18035937695935
0,191911872410257
0,19232383215983
0,188455871836824
0,19771554937601
0,194553182097237
0,20662849104183
0,206029077252438
0,220437838893491
0,209560328383899
0,214341958802366
0,222750569470084
0,225163238948302
0,227118048372804
0,227602670720261
0,232101275781636
0,236406997199577
0,259637591778879
0,24667576006882
0,231483721315554
0,237768217300771
0,231199970352844
0,244436644605791
0,236214946330725
0,258452092457832
0,246812931653033
0,24820466184889
0,247354666549845
0,235881263040768
0,238520208732147
0,240280314397797
0,243296321588988
0,238013136466893
0,240723044679795
0,237959192850443
0,242919423150876
0,244519252572637
0,230601434308492
0,255668067667134
0,229343587033594
0,23403944289955
0,227538385213372
0,236203015254385
0,22855421189569
0,227502163289818
0,215466405073709
0,226710988488272
0,210658691289802
0,2168492155895
0,215955830896685
0,223179401360698
0,212120747008379
0,20322948775505
0,205605732987306
0,203061224562627
0,194545627803541
0,199424996718988
0,192619319386758
0,196645295381256
0,184192714387084
0,188189789296944
0,183879632942311
0,18358895760968
0,174872095094873
0,174407517124679
0,174560431998327
0,17638003453278
0,166868367644615
0,17377248869083
0,164283284071557
0,167044545541532
0,166647542054175
0,166643458420265
0,165289023066854
0,162941763118903
0,161424459917218
0,160737911197335
0,160558943353442
0,159726998529232
0,159333338475583
0,158752143230842
0,155978968923223
0,156698106065618
0,155103881300823
0,156586039874992
0,156868963911503
0,151853990865572
0,15578614032289
0,160077266295776
0,156814540358092
0,15485917963239
0,155482275925914
0,154485568865329
0,155048266266585
0,152864144595458
0,152291582110337
0,151142406354902
0,153989452620416
0,150363387407133
0,156614315103883
0,16033893224675
0,152436621257347
0,158033765991472
0,145795492740196
0,153317619866037
0,148894076245409
0,156147005062563
0,153684700270918
0,157291039475507
0,153995459878469
0,148497904990158
0,150857808871837
0,146030720752675
0,145661171086195
0,1544170984316
0,145363361597212
0,152755456525341
0,153146787283447
0,155903880494673
0,175487141163854
0,144942329882002
0,163065956894724
0,145334937948177
0,156350270940932
0,149222887334417
0,153735198631314
0,143567591592688
0,149713239243676
0,154261714764589
0,147783196634633
0,151265319861294
0,145822531480798
0,15157932638826
0,14834278230575
0,151093523339146
0,153083161227728
0,154466497676835
0,153976032820736
0,155468881557554
0,150972898596467
0,151162688036036
0,152609747978678
0,142967383786007
0,141098889567182
0,141609338896079
0,14767149440203
0,145834763719343
0,146482165983316
0,139009381369348
0,136645639901579
0,140193506712753
0,131767940831459
0,139826886639029
0,135972445229928
0,14089667014232
0,127691543964089
0,137739886483732
0,130908259615813
0,132362655555975
0,137836911312622
0,12651226163697
0,141570910995182
0,126908125437319
0,128549596981021
0,127049545925166
0,137358299817445
0,128618559166578
0,127318072517676
0,126120754324635
0,124130217994836
0,124639139594037
0,120085401298703
0,11775304495697
0,130430839309108
0,123201973855862
0,138745936882269
0,129623421247035
0,122497844346235
0,117895587666851
0,116196329773686
0,120407673128969
0,116926412663664
0,113283800442208
0,123725452701144
0,109323368428107
0,124512611552551
0,112651199126944
0,128299635068979
0,119448411025711
0,122478690901606
0,117025623302609
0,121136827573779
0,123637024295994
0,135078859997154
0,129278496211974
0,133992745463203
0,122886096848048
0,139682968906537
0,131216374717265
0,13503467581773
0,135648877499047
0,142475023609885
0,140642239877269
0,146074709937736
0,150572863627234
0,155523575852577
0,154299034478173
0,168217477465848
0,15746520353179
0,171635987633024
0,170674736348452
0,181392788792035
0,195115856484835
0,183489653719582
0,195752845547719
0,191185156810226
0,201189503792683
0,207189622404521
0,20550969632318
0,214207752356248
0,213803080096178
0,22451442596166
0,224192692291621
0,223654935642528
0,229603885759373
0,235130280612949
0,237862929814008
0,239276021500939
0,256290308237672
0,238005401458925
0,260067836218204
0,247179841242265
0,251193959507946
0,252872454749904
0,248448571359981
0,256329567626596
0,256326832362422
0,260343607803927
0,255943594382158
0,255598402072083
0,256786393282043
0,258039404574701
0,26072483406449
0,257786470503723
0,261788034687665
0,264560842033159
0,266854073357109
0,265093930588797
0,263945066138196
0,273505117929811
0,284689299991486
0,280122179456738
0,27508517797019
0,271495138778757
0,283421361679539
0,281574392187518
0,28697450023611
0,288084391098081
0,29002564934873
0,295029092143888
0,289458701192335
0,291560143528212
0,289243853426504
0,297108817168142
0,298968434566407
0,292213153968642
0,307212665032507
0,298625015941106
0,315687819222918
0,307410315153539
0,319572615410092
0,309094021897373
0,312697917040885
0,313344109193054
0,309926203390128
0,314849396427298
0,31339069354972
0,314991246297174
0,314992443174391
0,316496360527563
0,317753910978504
0,317172636553999
0,315731998989269
0,31606274559394
0,313713677630311
0,314477634661735
0,316467749757653
0,314951770201815
0,311723366439744
0,308170410755885
0,31806271128444
0,313507094668781
0,31403671860221
0,308896769032274
0,305414065287559
0,307484981304691
0,31128922888255
0,30381038299927
0,307841221754363
0,302992570595772
0,308228837640783
0,303464469495023
0,31284094344702
0,309372874403363
0,314761572797004
0,311351676315382
0,313189466632106
0,312574373338433
0,314640145581193
0,314494729490243
0,315234140816035
0,323360588383186
0,325262548561001
0,321446727182124
0,32544114011435
0,330641276574593
0,327466776370563
0,333718740044829
0,328666712893549
0,335409372764779
0,335877095243176
0,333038347531582
0,334426627775716
0,341677645551101
0,336764415551873
0,3315064957651
0,336003755016926
0,334843484953596
0,329901812786606
0,338867018297442
0,332049575165486
0,330486714246991
0,324129676932626
0,328749695971031
0,316650965787659
0,321580055981528
0,317223817095153
0,318980094794043
0,316755230996545
0,314468380675125
0,315042918338537
0,314126666683236
0,311491112989607
0,311761573241451
0,314583771025144
0,312572608058838
0,30753513633475
0,306838750730663
0,304327965705141
0,304832329797977
0,302723446233279
0,30697004328925
0,304044789931555
0,308943605431235
0,309084720598798
0,313894801276291
0,303495697881359
0,309281780548203
0,304899301319063
0,303248209549654
0,30175601318245
0,302654238441526
0,304955276213576
0,301893850075987
0,302294601283907
0,299942209046405
0,29899157242202
0,297511587969352
0,296639636936017
0,293537731520741
0,293928389006203
0,290411051412174
0,292365877924094
0,289061926640492
0,290575509427327
0,282223866387767
0,284498020978563
0,285627449209129
0,282811687899515
0,284158404392416
0,282895283645648
0,280439062058339
0,275731937074321
0,278565004653221
0,276566037926896
0,276414692207876
0,273969045803316
0,27454606931272
0,274962804695751
0,274046155753241
0,272781982641075
0,273584690597215
0,274838411460608
0,272462698816231
0,271659681353575
0,267606846356191
0,268865528472229
0,266954157358037
0,265377961194019
0,263412656702405
0,260275634858613
0,259015521663892
0,254884010052465
0,253418937800544
0,252130853693964
0,250156354656729
0,24800121983489
0,247711912708883
0,242352465260221
0,239474212827779
0,240517653710053
0,239173501798267
0,236542327851596
0,23682307395319
0,23606770146497
0,23396505345212
0,232788320167346
0,2328128527601
0,234915532198025
0,23284155139971
0,235374157736094
0,231604101242798
0,232730200058232
0,230327135044635
0,233610857527932
0,233430293314954
0,232608727950929
0,237713795234066
0,236223985251798
0,235110549491873
0,237433102865107
0,237584551796736
0,238792441432636
0,239445745271902
0,237563888593339
0,241612698281048
0,242316489134165
0,240865834181073
0,241037755847706
0,244267470171028
0,24209534657992
0,243205114469748
0,242971313824725
0,246352170960457
0,243666165136296
0,245703537646123
0,245202138608573
0,245542331973815
0,243399560134604
0,243823670386751
0,243852368062038
0,242208016764188
0,243194643269409
0,243793983275206
0,241916304026913
0,239752667427484
0,243171617351672
0,244650339751572
0,241692815806153
0,240047105771496
0,241616980031869
0,238123440107027
0,239516287288732
0,237753888050888
0,237574619955688
0,23835069004963
0,237333261515703
0,236682246516534
0,234547747994395
0,232788153462381
0,23209397383753
0,232026452332649
0,229920024297983
0,229046991908216
0,227656461726762
0,225686708846662
0,223330752742482
0,221530758397115
0,218809413549595
0,216811342518567
0,217155710159718
0,214573908715511
0,21209963913253
0,210394416392105
0,207818203003772
0,208065225069961
0,207478819807426
0,204166603618939
0,204113300802492
0,2028524532112
0,204822242001232
0,202954922458634
0,199547654848148
0,199439194317861
0,199500136151271
0,199222656380995
0,199261975109017
0,200076216975074
0,198157708641572
0,19912191405602
0,199502196947435
0,199346039599201
0,196830557886649
0,196182031406771
0,197623721296948
0,196328332784806
0,196552898239064
0,194486881385539
0,190791628030779
0,189226401722202
0,186866967910043
0,184997858533928
0,183504381124167
0,179069192850296
0,176293227692882
0,174705671507367
0,172132735689644
0,168922158727358
0,166468408826399
0,165032798008037
0,16396408400314
0,165225500845853
0,164015180905456
0,165049053383051
0,165916779831807
0,171722736840982
0,172047811894226
0,177752995978074
0,183753550317752
0,186974927859225
0,193204590205565
0,200817228864947
0,205944280339959
0,217302374370117
0,225962885817828
0,238061083180367
0,247948132520606
0,258917101419071
0,268642335772351
0,284492382622916
0,298130678949084
0,312716448189485
0,327153256148741
0,341406218051542
0,359243033157972
0,37825553225241
0,391823350241165
0,409485821579471
0,430734542846521
0,446436069429575
0,458432246494882
0,475142986448677
0,489635572336076
0,504809963465893
0,512052102342518
0,528007771149664
0,536168075591836
0,540015504620675
0,550751617314456
0,55128757504754
0,556207661767442
0,552944424276232
0,551822779344055
0,546401291991045
0,545452437815114
0,542215870334359
0,535189867662613
0,533548532155586
0,523545771398838
0,519484556178833
0,510534863293915
0,509657659748976
0,502366425901603
0,499070127534208
0,492872204809713
0,489041421087622
0,489381914925837
0,488354032697859
0,486488262294572
0,491460523984142
0,491414609915349
0,494184937665132
0,497272818919566
0,503010153798219
0,506999092182109
0,510187209138797
0,51533394524056
0,522659594713302
0,529845713254289
0,531260045526012
0,538120371249157
0,542088038082688
0,548564975550329
0,552637545947823
0,556289845070892
0,56092582363588
0,566631189725077
0,568461616462601
0,573423308521649
0,572858065378767
0,575021105507184
0,57894153502497
0,58414405303537
0,583441655149733
0,583329394356161
0,587803359293919
0,586851665901655
0,593263215118148
0,595557218013155
0,595437311186489
0,606412809723192
0,610578831810859
0,607992243642981
0,611966215173595
0,615396358504094
0,620629674799435
0,624631727857697
0,629856292059493
0,632462192840324
0,638437303360204
0,644179703800104
0,652167862489378
0,662636893376725
0,667755769857508
0,683403229507686
0,702621591016564
0,708231139904536
0,7318289088831
0,751252466671385
0,76044738084193
0,78704222503101
0,811942124458361
0,829688361889318
0,850628690666686
0,858099773561789
0,881076019028641
0,891096381399668
0,899073423356066
0,911947705038708
0,907935330035838
0,906131516579105
0,916421846370829
0,91679768133799
0,903252967202494
0,896499059450887
0,889958738553665
0,877413203171707
0,88004416107333
0,875858051658604
0,864584015879335
0,868706764945425
0,875405507423203
0,869029685278668
0,877427118642335
0,88464686606695
0,878359452405442
0,898329185886881
0,907958989838409
0,915828341863855
0,926857453257311
0,948357387121717
0,95601833570904
0,960786414082527
0,974664776800947
0,986174588919948
0,996673939168159
1,01875589492936
1,01950433453904
1,02556621923485
1,05579204968231
1,05003394026909
1,06505247126194
1,08983573254248
1,11635541378078
1,12348507071333
1,15003520330515
1,14804701955039
1,15009283014397
1,16871691900789
1,19448738162551
1,20737936613447
1,24108947068352
1,24149787635566
1,26072654535669
1,25218524575572
1,2810317948642
1,26771062050127
1,28579633677194
1,33008446584614
1,34653023438092
1,32133687065137
1,40353571687161
1,38488608194113
1,379797346118
1,40254430709214
1,38920378503463
1,40604085216285
1,39791353774176
1,43098083667357
1,40602757169318
1,39468134163492
1,36482562365798
1,34567284183414
1,37368357856065
1,37271450809137
1,33181569647029
1,28171006102245
1,28818684646821
1,22868823471176
1,22051705174859
1,21095438219081
1,18781653684513
1,16271776198706
1,1654365666728
1,15309893867197
1,10953185159507
1,11311863832554
1,09645082798837
1,08175500515129
1,08747139729026
1,05935964277839
1,05424348552533
1,03389995727844
1,02879274710968
1,02249140495728
1,01024388809785
0,976966818769614
0,957090284555157
0,950166658700569
0,905925510841817
0,892698710620852
0,865689679262622
0,85008429399108
0,802234235538204
0,784749130062583
0,747700141095037
0,723285500352507
0,676157718772775
0,650451751785644
0,610618108295312
0,581359066321794
0,545766896076347
0,522758193875849
0,487888174016084
0,457462820107101
0,430091443422235
0,410301433729785
0,39180321799141
0,368534002587955
0,350469550332119
0,330880226260893
0,313438617589434
0,303361382426426
0,291201651709783
0,278599871609645
0,265575489498753
0,253604544174264
0,246434675391224
0,239782691133886
0,233324577006954
0,226343247146368
0,221122398249122
0,216037229536726
0,213901306125852
0,215404782177047
0,209166705763269
0,205527895351584
0,205223952791255
0,208239027956173
0,198655531548695
0,199444467807936
0,204254057269226
0,206427083994446
0,20863753892378
0,206587428602151
0,216025037478635
0,212557314770258
0,216984713606535
0,223097371722389
0,224005771463995
0,232879494222436
0,234772895606476
0,238317550601115
0,243361494629313
0,242722369944211
0,250930599129628
0,252160460048362
0,25361270748715
0,255207525410888
0,260668862365418
0,258973866315139
0,2570472986154
0,25616956607913
0,258520253529522
0,260979633998829
0,265336033055152
0,260002335139044
0,259179845685102
0,264380647247044
0,262275840534058
0,262669431973937
0,264058224413989
0,264519148969642
0,258452136362191
0,259700323013297
0,251411068561011
0,25109374929551
0,253476152598188
0,249591157402049
0,252156835693888
0,249937990152311
0,243438520186724
0,238473564587502
0,237026319283363
0,238223715996372
0,235363320737338
0,237037976130959
0,231627322417178
0,234848619884816
0,229909025397857
0,239422539286728
0,235825514594109
0,231417599940676
0,239702798125163
0,238958108059606
0,237447534259134
0,243938491292844
0,242694571099695
0,250730068529849
0,252595644564634
0,257927215411236
0,258496299595953
0,261960802493313
0,261801472299194
0,264775095250883
0,258179706390415
0,262818877865925
0,257448156814383
0,253675655650797
0,24373528661961
0,234712843446192
0,236795145910121
0,235527193976016
0,226456976911811
0,225323285746064
0,226748243419827
0,225823076970489
0,217731186676949
0,224961356330041
0,223701121759018
0,224247572510229
0,222007523901386
0,225352713392819
0,224504910393116
0,227470348167198
0,233471241948332
0,234189887383539
0,230455296846133
0,240422958354074
0,233089374342549
0,235410758118378
0,232066324906741
0,2388851290815
0,241021564762772
0,237902810982997
0,240797214557079
0,239399510529317
0,244463909125856
0,241945559386072
0,233248530168787
0,236926091866147
0,242839322633102
0,242846054406996
0,248240530825817
0,242764586414196
0,250234502578031
0,242761554140023
0,246860599142235
0,249358076541223
0,247384460666433
0,243375437081804
0,238990232423132
0,252739649322197
0,246085791366614
0,243203338453138
0,24893773254875
0,236653400863606
0,24403119672524
0,243437868588009
0,238160405300254
0,234641700882778
0,236644691094251
0,228756012781474
0,234075998519536
0,23027473543211
0,221878264421136
0,218208913278769
0,208181724165661
0,215491452043512
0,201737928537788
0,207461428457396
0,202484544593796
0,209322854887667
0,203533727783689
0,210317661787949
0,202783093446713
0,217630273906951
0,199896331271049
0,205172076820835
0,203958707023609
0,200128924992248
0,195467948269136
0,204757793304275
0,197691708983559
0,202922997598483
0,20313959209169
0,201392945314526
0,20892236806296
0,205492518366111
0,204519115614313
0,209749719266069
0,211769019548757
0,223995134167412
0,219171220227329
0,212199559291855
0,206627415102948
0,211998331885403
0,217752063517105
0,228889452693099
0,222920885335713
0,228668703536231
0,235004897716864
0,23605418306469
0,249467501276531
0,242241307497293
0,248032913345974
0,257671776174997
0,249732084252823
0,262242544981249
0,265095252439269
0,298692152188259
0,288733081325822
0,284963579856274
0,297275397588235
0,296699850225386
0,297805005083587
0,316645576095508
0,307358534867024
0,330816709281121
0,320922177877927
0,323723548709842
0,352607817320235
0,355564967385744
0,339402482091631
0,3275826654326
0,350979248302575
0,340263187404216
0,329962090358072
0,340513697510538
0,345891863096985
0,336977398046212
0,338150325720573
0,34716265323391
0,339797890375394
0,350446630146697
0,357716930750181
0,356378308458098
0,365619758075024
0,357185834424432
0,34044923266946
0,354931749439797
0,351410711694766
0,363600374689273
0,345578698158212
0,377072884089817
0,366631563248214
0,35511455215728
0,356688017476395
0,361595975145357
0,340940312272922
0,35141114620704
0,381486657031044
0,344787448863998
0,317218990810883
0,350834432212147
0,340746331619443
0,344943003559164
0,33517037616475
0,329056869065131
0,317906727149065
0,32911575445535
0,312086801198303
0,315632802647809
0,323296137178609
0,331554028194735
0,305270019544221
0,334328912331285
0,335093423515254
0,342931782112171
0,322840241931282
0,325083790959252
0,324816482076963
0,325008384086509
0,32510801723508
0,3417225708514
0,329928631293258
0,33019056166616
0,334992456382701
0,303780997996369
0,309968706443297
0,330788162117045
0,336255819700904
0,362172264253013
0,342825507049082
0,328283294435189
0,332285117354239
0,349501139297653
0,333091592527983
0,3551033679579
0,39723458738442
0,414580006678907
0,390479760086446
0,402703669624407
0,388615187177087
0,398324445094201
0,411018346324876
0,426617880140328
0,403207126140958
0,43431759693527
0,420586230949758
0,424490805831122
0,430909129405299
0,456003877923295
0,421229495165663
0,375596062639845
0,430604230940087
0,489017081524434
0,445605326309676
0,453893536969693
0,440347931133593
0,479138667209112
0,447803593787558
0,395433219189153
0,412822914406757
0,416580809092191
0,416440098490316
0,431344448964753
0,394773051801926
0,47461192695816
0,434484194007309
0,410389467944187
0,413544258725887
0,464549812174683
0,475779386222844
0,416954474559749
0,385978894929635
0,443477968635907
0,453353651120632
0,523904462069019
0,405002555298886
0,492666023769531
0,505382435206702
0,485120960203609
0,426279177222501
0,3622826739804
0,378345540562895
0,474313278125082
0,448525665443985
0,383009543441703
0,404028081676831
0,45919401622985
0,384994701618228
0,466177443346852
0,386324637728315
0,431688721266713
0,4360973111682
0,67626616043596
0,472518539277521
0,380255738936822
0,43906849083002
0,351362520644363
0,40178538942905
0,687003668838681
0,36842940721405
0,353108622404955
0,307849745336751
0,357102791314007
0,355514009933183
0,688302399217834
0,50634713757689
0,527028563984347
0,614733288846538
0,797183384728985
0,41140027604948
0,822000276155014
1,0557103272504
