3596
4000,36533379555
650,420452594757
1
2
2
0,0700882336407955
0,05651460245005
0,0720204814291956
0,0623467908943919
0,0722064915261371
0,0612478738396176
0,0613702527579636
0,0560422711426735
0,0703708616028731
0,0568465856555739
0,062224841699787
0,0580602298064282
0,0573738040745845
0,0554763937626132
0,0552711733023514
0,0566735561837734
0,0661811929042794
0,0596081150667743
0,0672964543216874
0,0545719082614507
0,0691036285645273
0,0550120898968831
0,063428495123962
0,0618427175354994
0,0643865490238612
0,0661082144990882
0,0665694942904102
0,0523011730247613
0,0579515154961473
0,0582566567365744
0,0599995481544004
0,070157542539399
0,067951840368816
0,0487861321745012
0,0629048240888542
0,0561468229977773
0,0594397141897247
0,0604636737473225
0,0715018527676862
0,0628318690208147
0,0713750064200098
0,0554128937334245
0,0682340532309258
0,0558543930313212
0,0706749099265696
0,0553471961439931
0,0656148745204174
0,0540363929019677
0,066174602803597
0,0602835751934502
0,0663033833851733
0,0543597998117709
0,072399282271494
0,0524014360354192
0,0602743474095895
0,0572536760705957
0,0644519116714429
0,0564705420482664
0,0672192924203756
0,0518772795625683
0,0724320243163551
0,0535916045320223
0,0563024999929979
0,0540115936138062
0,0566666121226975
0,0580912207161257
0,0535500580811577
0,066140055121102
0,0623104985418551
0,058383242762639
0,0568036898076117
0,0620104233177726
0,055633669333758
0,050387942990617
0,0593590904294066
0,0445841135070773
0,0557440090272556
0,0580765816108608
0,0699622369209963
0,0630831886570103
0,0573039425829332
0,0657556693801107
0,0608083052877431
0,0521777895138335
0,0562830255492527
0,0552960309445581
0,0622003373221076
0,0630610761844318
0,0628741135934246
0,048469542720065
0,0582819411510262
0,0591460997729679
0,0571057196176931
0,0606799273197601
0,060509948753311
0,0558880467963996
0,0552673439307829
0,0590159245737703
0,0553728163925788
0,062783859929778
0,0711436712376722
0,0350332594711004
0,0723489878986299
0,0337750334695031
0,0947246886364609
0,0387233998270457
0,0683136332137247
0,0586412149312082
0,0321881618591797
0,0555094780883248
0,0498777549855206
0,0551179494634908
0,0595309149124576
0,0554246533196442
0,0540132448877997
0,0606229276503476
0,0495937356327453
0,0518592130807255
0,0559840415256912
0,0503616027910735
0,059109785061395
0,07613571535102
0,05584595190084
0,0415651109666456
0,0551206599969527
0,0386803412833847
0,0615058936757909
0,0600099218287827
0,050883997747922
0,0393268760839397
0,0618976474563137
0,0414034208584746
0,0649310646501074
0,0517907431284041
0,0717120655591335
0,0341692916752409
0,0604648826554982
0,048856341066731
0,0733135842973477
0,0369380198452855
0,040065035994761
0,0457751269122021
0,0532776305509898
0,0515191495135652
0,0635550430744482
0,0455273422633025
0,0559462983890324
0,062513346162135
0,0534384130418237
0,0476051525928024
0,0626450330919983
0,048171353861952
0,0661203003291917
0,0483047341554378
0,0806230038058628
0,0618129626806592
0,059048290489964
0,0191787076328364
0,0700826920910094
0,0236864614916284
0,0675283717134628
0,0391692521545653
0,0633522838621826
0,0476765400432729
0,0629673103029414
0,0482597153501073
0,0685000140216319
0,0575301418719586
0,0539498489451188
0,0683865195151172
0,0583633956666837
0,0460025900750152
0,0629562242100641
0,0533200419938089
0,0478949194360369
0,0484657634287324
0,0539000779840674
0,0344236820099961
0,0562984933059322
0,0476802069875206
0,0660297075619958
0,0444949517489136
0,0584357282911804
0,0469226987330722
0,065858079902155
0,0411939850427179
0,0563964897132947
0,0444152219152551
0,0591482510248402
0,0432656514963477
0,0740958474520353
0,0338537359833756
0,0626667333408104
0,0445139743716951
0,0614958357563332
0,0499975941926555
0,0906669357112065
0,0322651052860992
0,0499413074287183
0,0443884408532408
0,0549472023791455
0,0499162712150878
0,0491698179828634
0,0344655916839748
0,0597802560133348
0,0540842834667008
0,0775445824907944
0,0397317067651114
0,0563134733993815
0,0461618325318177
0,0726715577194036
0,0541279544525926
0,0652860394825479
0,03376596439429
0,0495127676451381
0,0539599674173317
0,0511330634019675
0,0529344381084205
0,0551069416668729
0,0419875896630756
0,0506540071632352
0,0521626950438522
0,0617184433001543
0,0519675558360673
0,0581256723046668
0,0519836661975088
0,0628555304046531
0,0494904086238796
0,0584773016913714
0,0561891412550005
0,0616330249033481
0,0477532705498438
0,0575911721271417
0,0569251630437542
0,0560586890485445
0,0451480311628542
0,0649007748598622
0,0411985459645329
0,0612946887481097
0,0463611118457255
0,0613072154986713
0,0466824006018582
0,0621290455011211
0,0470671066179013
0,0671191607882129
0,0460473664056279
0,0715173130744996
0,0381722576394043
0,0608478877175261
0,0596355203759364
0,0618027420424381
0,0433735873246466
0,0567964597242522
0,054034399225209
0,0551566293195772
0,056704542238255
0,0681601673960285
0,0528464539419801
0,0589081051707817
0,0653398548300138
0,0526796644046774
0,0474897162677095
0,05179806217697
0,0670271105983678
0,0673330272024393
0,0627664470678018
0,0667007800257719
0,05825587623628
0,0655524936960755
0,0429838171287786
0,0586154252027609
0,0629203056817429
0,0797372436134461
0,0667059560299254
0,0579036063727651
0,060214287458043
0,0558118459078924
0,0566378837987629
0,0618071883347121
0,0555442185467858
0,0728209392127022
0,0531932982177314
0,110271850558617
0,0710948468194159
0,0710174644331032
0,0425410295978265
0,0727250337941197
0,0539434511627322
0,0523804638681218
0,0530690245385168
0,0584290241419572
0,065399814830838
0,07475195198322
0,0684108716276772
0,0543020634176476
0,0678847866752157
0,06070866847086
0,0744071903821194
0,0511060795500958
0,066282194813063
0,0641484062080999
0,0576111455101747
0,0542885856791439
0,0650643882102879
0,0643739856763922
0,0596205192946115
0,0794876836209882
0,0712385770085751
0,0757658966515024
0,0740487779580289
0,0722755392407344
0,0661538775953115
0,0539171349166525
0,0640839972819007
0,0687867646250204
0,0663100381033908
0,064766409317037
0,0645140855314191
0,079100668141879
0,074169546080054
0,0790137065510003
0,0674000122078816
0,0741910565878166
0,0715415618608129
0,0754371310577201
0,0685246018652443
0,074792127470832
0,0698752644669913
0,0729623407994381
0,0808400057315798
0,0776315276074714
0,0728897415058667
0,0845192722098597
0,0826355806340746
0,087671131382836
0,0641333382940117
0,0844207059959057
0,0825024144291132
0,0894485194258905
0,0846242935771204
0,0918282364342142
0,0885942199665749
0,0922460812860125
0,0852417298668947
0,0872922175687723
0,0790201502746632
0,112855816213739
0,0867777642191592
0,0958661818435527
0,0762899029137439
0,0942587397641719
0,112729676765823
0,097133207856944
0,11562193479301
0,0962822093309135
0,11104425925452
0,106836628834643
0,110297150755848
0,109146859658321
0,118245030033913
0,117196089047056
0,115518893433332
0,123897982770808
0,125422290826958
0,128106609211828
0,118292785067614
0,141255487010961
0,130056862799506
0,154421237008433
0,137696312291257
0,137756325740087
0,137970247593406
0,155523475215932
0,152527809815986
0,188809818030661
0,125067881021228
0,17679826513158
0,144346080023347
0,172329397983023
0,147126818506876
0,167013610841099
0,162449052391048
0,178502000909416
0,181446609004725
0,183312381078898
0,178401596666775
0,189776212731453
0,188073480341638
0,193448418702325
0,191267855740961
0,204214154375177
0,198394602297301
0,218610598298517
0,206854042687003
0,206528698097872
0,229503607948935
0,229785363302399
0,230745197240314
0,215528599065459
0,226753267853678
0,233558503999499
0,246199079641546
0,235998566599583
0,238781756348223
0,242038868065311
0,255480507633984
0,266144277380265
0,26721980653647
0,290341439307506
0,264734168280761
0,270820471123507
0,269317564208259
0,283131887994737
0,298573605656918
0,296272950244189
0,311965269349575
0,296491857833293
0,299165364130874
0,273061395307904
0,299723172964323
0,312582983994525
0,316266336878135
0,316607146641447
0,324093870655347
0,324045671756393
0,332730999761521
0,356901733429298
0,326835109705821
0,327374184289378
0,36185833963471
0,354845156499376
0,340219041330367
0,374227706888181
0,358226775784469
0,387411590177887
0,363542929082044
0,363327872681865
0,38095717100863
0,383426329698099
0,392357349040286
0,404706310426196
0,457782779590063
0,421731298070835
0,408942998414676
0,399752008523517
0,417973597235235
0,424344270580491
0,409552928470672
0,419227604601306
0,437130652684553
0,44247740836045
0,457283038973559
0,467693471509174
0,456537045111727
0,470907958035155
0,46513477780588
0,448669941153779
0,464507011670951
0,489435396024084
0,500697092183987
0,50014611473897
0,516496740113256
0,511877992220616
0,548666022783761
0,499229465118581
0,524809578808849
0,52047576781433
0,500879409416623
0,525208610411568
0,535974155631582
0,555539530087172
0,552642976852107
0,55645551190436
0,552229446190056
0,563857253636016
0,587533135292105
0,571871765911999
0,586256070988826
0,576890770757793
0,593086627321054
0,595174577206521
0,59810456523397
0,584468394502581
0,611497500897148
0,639943852507212
0,621545372767697
0,610243340058289
0,613471113392727
0,623710223518373
0,62127237038127
0,639280102646859
0,638619218554113
0,658750389197514
0,678721253654437
0,663352199639154
0,683368880013361
0,662112229063864
0,727455676866806
0,713523269841839
0,694418259708058
0,696699904529753
0,715208571398348
0,686874434569695
0,717789369021243
0,705160293988254
0,778861564225711
0,772139837878499
0,756792840912627
0,750966902425553
0,761690244154565
0,724705274780043
0,763841401211712
0,74615725482275
0,770404723667872
0,800824877199325
0,796157812064109
0,754546397598096
0,809285768322136
0,813285747123466
0,846072017307663
0,803502354232641
0,798392431918449
0,811642755436173
0,840550068262737
0,827423165881109
0,894652046481651
0,865191547569549
0,836039641450614
0,807929414475385
0,838498720067814
0,836116526904389
0,868628291054701
0,817843344707089
0,904532588184944
0,926482281897914
0,965723490843152
0,898737903759583
0,918223528884443
0,922762361517447
0,931984659093605
0,922201827358426
0,964247639187033
0,908237382026127
0,972593237585293
0,954095933104239
0,955835513625379
0,908797982508563
0,968505259450803
0,892079736781957
0,959889028998873
0,938555793974277
1,04542056988992
1,01070542471636
0,973501255679191
0,956154944367195
0,957522011683371
0,986014575566009
0,985966965761887
1,00577558983597
1,08676148803636
0,987242685709931
1,05790346021255
1,03912699295569
1,07621840439319
1,07403883474033
1,02741814042267
0,998967654263686
1,04984279258664
1,05792915402418
1,11767095325282
1,09671571685345
1,17953763501982
1,04961387528771
1,13296773874935
1,06194371865832
1,17841006257945
1,12019226641812
1,19540517613863
1,16470523231347
1,11674007580847
1,06696464208361
1,14447734500551
1,09390054242439
1,29016808304591
1,2048868301434
1,20797110529927
1,11677462979859
1,15220016975142
1,12957771674808
1,20021698514285
1,18674981402249
1,1695321506681
1,174744101412
1,37529722541825
1,1497831004035
1,30583013168328
1,17047967971909
1,32559491840516
1,09679257818628
1,21169978425856
1,13163134996022
1,18860526045652
1,17082864055404
1,24492912275607
1,2795851598042
1,28924798771981
1,17926833830152
1,41541421797966
1,28222070180388
1,27526024776968
1,24678079035752
1,37254685862972
1,30092688933586
1,29463349701022
1,3204967623984
1,42838974730848
1,26024333546683
1,38180546680457
1,23885174383289
1,35057461056199
1,17403945956875
1,62657081081777
1,38344626306563
1,34307762131604
1,21552779955602
1,27343004534131
1,26564501825648
1,34555751912748
1,43223315031026
1,48389315862128
1,320326355036
1,57999585356388
1,39426623624988
1,35295736543149
1,29933562826752
1,52968890384763
1,36501285984098
1,46716913902677
1,57963137561117
1,45309560959315
1,26753612069152
1,55889754149503
1,31220697727553
1,46954182737281
1,34944559835085
1,5077753780588
1,49582456608485
1,91615026847469
1,54872567710203
1,54980618110345
1,37819795810001
1,9420070889403
1,44874532190159
1,6134628730997
1,44343010745362
1,53377887567761
1,41601970221308
1,53512080894407
1,45446077021153
1,77895216772324
1,41657017618261
1,76127468126321
1,47438856153868
1,51953799344969
1,40393118989209
2,00413883538769
1,42689629636442
1,46047315748423
1,60142724815276
1,89017127640335
1,49598903936633
1,4994390980654
1,44371510660788
1,83526202397137
1,41925943172231
1,78837800419314
1,3930664826717
1,542563247306
1,41789410845936
1,68651224590089
1,44620912721914
1,7406879042663
1,43821499555541
1,63787214041212
1,53055329962355
1,58224031060752
1,59183613870294
2,41782649549141
1,44053313094562
1,69943406746373
1,61439728792289
1,5940432789652
1,52299497870681
1,76898148039768
1,4875565922993
1,73281602055783
1,49620936059505
1,55605967667617
1,73354066812045
1,8862237631829
1,50501636741474
1,89773535813718
1,56931748351353
1,75270727931779
1,42700765917969
1,83453881267124
1,44570469047014
1,66569975180511
1,68698021384433
1,69631209831313
1,58921842343464
1,67300122264198
1,45670661701029
2,0050632934801
1,51798651253022
1,84579631811403
1,55681079704696
1,60433471357472
1,71427048671447
1,72101794309091
1,52989863921321
1,87494138914864
1,65565978598741
1,69244771085059
1,74154018766792
1,65772464590122
1,67155249792826
1,93801869252309
1,56080035661483
1,74589672998196
1,49461771964851
1,98727415932692
1,65067163626168
1,84809419793201
1,57537422094188
1,98113511714828
1,53466941327247
1,77424672685601
1,56071192007179
1,68722752266914
1,48267757227416
1,68951984230987
1,51859296352882
1,69371187224607
1,65764845531928
1,69113302022813
1,60949509246691
1,72063079851401
1,35123120083681
1,6215382062921
1,60180392280502
1,85468035077684
1,55288448908442
2,27480130559989
1,64124195713283
1,96772506317587
1,63688277445676
1,84404727529324
1,58335055320731
1,51597634340003
1,58173521326271
1,60553342154104
1,45530753435803
1,67181696955328
1,93091267780767
1,69147398645281
1,52220898544617
1,69553820239745
1,73606825943447
1,81123823682493
1,56651785309975
1,93399658461487
1,6752081590248
1,66916698030905
1,49723963216719
1,75860087765467
1,54368961085995
1,59274661482325
1,62039617213593
1,61670379528581
1,7205439372443
1,74163577750057
1,44568027547115
1,73890227782501
1,66333742463617
1,94265570219018
1,7383876238684
1,69895440148049
1,5715203091349
1,65161509463512
1,51847135849077
1,80401633596777
1,43284815986491
1,95733607202613
1,74662224617659
1,87622422157583
1,59929556156042
1,49944019998989
1,53572177475789
1,75866194767612
1,63030794992376
1,65634433350741
1,47191898834024
1,6523162826407
1,66090486855429
1,84289217099204
1,50647246569785
1,55091994254774
1,56314700450026
1,69491064047953
1,49263129193431
1,5100019336576
1,72194457027126
1,73424474960084
1,52693997811302
1,68360186040676
1,7260690285881
1,87270794788662
1,51941306025052
1,64056832864335
1,61345247929693
1,59578271685528
1,52799633588818
1,64297225461635
1,46180108665397
1,66666253382116
1,58262250426948
1,6055685953898
1,55398651570806
1,70793664434331
1,6770271055715
1,52403521811489
1,4669076863346
1,61210371868402
1,45993330027531
1,6873404601755
1,52410510082674
1,75874324993288
1,38931648960576
1,53770303680913
1,66540029426298
1,69461679133481
1,52120875859369
1,5483110205094
1,42870887693807
1,57172388146109
1,44749828052442
1,6180122228735
1,48472059893557
1,51717067084164
1,43834779040652
1,63867178879914
1,44872449125575
1,5702762054345
1,40341465752191
1,54431152407878
1,4673392501189
1,52593306164613
1,32825929777818
1,5085229965963
1,5115659480996
1,49987421101631
1,43720287428582
1,60666495582676
1,4287087556485
1,41965496530716
1,34875130352778
1,41810261756818
1,42204314094619
1,38082244218497
1,39175636926723
1,44364475447616
1,26544142647861
1,30082694603813
1,30327156763054
1,43351374637532
1,34005463852977
1,33656300841486
1,29642035747287
1,37579837630418
1,35599103650017
1,43120704150396
1,30556786976533
1,47261751073739
1,32057596646253
1,30671708171081
1,18192553366684
1,32595411047057
1,28739514154993
1,36052872430318
1,33496272234973
1,27902570078201
1,22621063720813
1,23648585151584
1,26843763382975
1,25416290996486
1,25788678719452
1,27001446439227
1,18807771490783
1,34632268204985
1,18669136054952
1,23953307726664
1,25948196543081
1,24003734778982
1,15241226911236
1,26284888859882
1,12279102407986
1,15573754389542
1,20189129708119
1,20480775163755
1,1562277280299
1,17965348054858
1,1255634154073
1,14138686828166
1,19565636845043
1,18937071711564
1,07586968756616
1,12553738978906
1,09255361501715
1,12816004145583
1,09858542572962
1,11995555027223
1,11048822515623
1,13545661525122
1,08145770128424
1,09391460754579
1,08330039105207
1,07404030274831
1,05807601585413
1,09084735763009
1,02688809236407
1,08734995445897
0,99123037122376
1,03739683154754
1,01688228630839
1,05700992593537
0,98668186944233
1,0712327472477
0,97478956767296
1,03861219515759
0,986712645063426
1,02152486703634
0,973434625968199
0,983707151252786
0,93829353558344
0,998715522023672
0,925797249070472
0,990660353703918
0,945171121177568
0,962127040175373
0,937490531469742
0,973299201460265
0,907570153432123
0,95492235838058
0,905524122332362
0,943601936758551
0,910848469408156
0,939173406911059
0,868759932995092
0,942225431792371
0,87813263544691
0,902621929692792
0,861913305585878
0,898495168589667
0,870217480802244
0,86601750307116
0,861609496927586
0,845442060871441
0,817642616262266
0,875446021951772
0,816964046130766
0,845729694872738
0,83352110936142
0,858390831649815
0,805143396264127
0,852709714525517
0,815170302460304
0,830069144311756
0,809322687183259
0,802693899070438
0,773899631761821
0,80034205791762
0,763666779760734
0,809636419658488
0,744364577155524
0,764078269741323
0,776175130115326
0,772019460898379
0,739542380194993
0,767797704330135
0,748860728216713
0,747170635526316
0,723754078066995
0,756286245887564
0,727077387777067
0,733080942691376
0,709778304603303
0,71623188146487
0,705987973505084
0,740733437760632
0,716032069644661
0,726962745420029
0,695407940930536
0,720275898512112
0,688133044246054
0,688309142115841
0,674489901569091
0,68358269805874
0,678808518647824
0,69740786376474
0,648314601244417
0,670194602788254
0,661640843903397
0,661020184800312
0,645611867704038
0,657281963574654
0,634015947792451
0,64448620543492
0,633306470070123
0,635208423157558
0,628901167356375
0,643777038431065
0,608478265603407
0,63300353748576
0,621934301730226
0,6368380768629
0,598365869529087
0,617641077441531
0,599905570399738
0,597681780481891
0,598600668967945
0,610409762270038
0,591432514490048
0,587445210033785
0,569883454483186
0,586210257234192
0,573905047901971
0,585270629041873
0,571297381523429
0,582915754875458
0,564262101784898
0,574136414318398
0,56057301017857
0,575394311133788
0,553136277139147
0,560260407603792
0,547558026335689
0,555319292482738
0,546429880811865
0,543164941459849
0,533868114307396
0,543118382375381
0,528759239832383
0,529888187373776
0,512033198766572
0,524661130154274
0,505121143924864
0,521537214448444
0,516258281130664
0,523831408914487
0,522920632507475
0,519851041020322
0,511944273023052
0,520187796066655
0,515349927114272
0,51813190614593
0,502271077303217
0,515712066117075
0,508380836088276
0,507297584210471
0,496063757081028
0,500683858166624
0,493554256183906
0,50555161724627
0,484442965614362
0,502351852442709
0,495658067483331
0,504488901186623
0,498628706263232
0,506218260851423
0,480822464092158
0,505651417793294
0,494817386471346
0,499444372574767
0,503464863273034
0,496526173580514
0,495121680402846
0,508656298884178
0,501120177278577
0,512832530153108
0,484318122576147
0,503111543358616
0,495690927750625
0,521921049642598
0,506939064504412
0,521048678250754
0,509463523097041
0,521087156725129
0,522857844173222
0,525615300246512
0,513142912747467
0,528700948170758
0,513026562153915
0,522089969393947
0,518401197551063
0,535304538266987
0,528426499551541
0,543612747846185
0,531931430262791
0,53857012340806
0,539854551400438
0,542436667621504
0,540033599514128
0,557455394402482
0,543497182651549
0,568123363344049
0,554243350751609
0,577951212552094
0,560415896967505
0,581161930676785
0,572576747377153
0,589929593579986
0,585428246952531
0,591585720326575
0,597899787265465
0,600725959136309
0,601283122116723
0,618596174132269
0,609144521939735
0,620245029590433
0,628834191080428
0,64481353020301
0,637758032623326
0,642413958354046
0,644602790461509
0,659502849128963
0,647779818864849
0,66581662586494
0,653054845803119
0,676235371328912
0,672568433671434
0,688053706166245
0,680381858405269
0,6976972402517
0,666152777861715
0,712940122682864
0,696508156798945
0,716329268476168
0,701653926991642
0,706156524993527
0,698101407965936
0,706028160129224
0,712499707082307
0,707801818276277
0,71543102788902
0,708703392987067
0,688343630475511
0,708136758223532
0,699080089745163
0,697801129119697
0,696620764647958
0,691294441023042
0,675437657596093
0,697239617973842
0,686406645700281
0,687925309514208
0,674121951073631
0,687875451296871
0,673230644807209
0,687821003098106
0,670646289339831
0,675536272251338
0,652762181047678
0,662638356210499
0,660226934085
0,677954522625262
0,658579563085756
0,669831764782764
0,659301277014611
0,673218037058835
0,644688840275846
0,674659168774228
0,651763590356232
0,656469387633778
0,654441870459413
0,660446062776024
0,649926504459425
0,667631619163495
0,642191018536527
0,670011819311419
0,648778080941927
0,657780868406663
0,639347777443092
0,661462433317892
0,633693816255003
0,65352231535007
0,625654180009218
0,636831311297345
0,644375769363588
0,638524608214869
0,630552325957176
0,634947714855944
0,624401109500095
0,622641096511439
0,60286867330928
0,631960587751696
0,610757965630671
0,599796519361078
0,593134104987988
0,610122922909751
0,600043816539374
0,598720591436829
0,57751805743027
0,580998202345084
0,567712109706961
0,573819399841722
0,568131032156552
0,5747528028798
0,554712675057401
0,562271543751131
0,550755804182457
0,558131393227153
0,547055609938992
0,549375385429715
0,538298627351211
0,542649252040572
0,532409862398816
0,534548123156009
0,523360218564084
0,520584409402788
0,516158393000998
0,522576593385578
0,517817538168037
0,523517062434157
0,505417221151975
0,505810895007066
0,489340824686762
0,499958518540849
0,488490515671212
0,498071180234126
0,484347508258157
0,483495171779014
0,477029133782699
0,482956023839957
0,472610425916999
0,480764950098318
0,46849724286006
0,468209529653758
0,47257805765624
0,46918414009999
0,457731186919095
0,462476032225002
0,456270115467385
0,458879298050506
0,447318582167416
0,448481445938507
0,446704206162852
0,447273334670845
0,442121367681683
0,439999547461571
0,431429622867025
0,44088789767528
0,429039957001501
0,432762316603235
0,429068443360521
0,432326863985644
0,429629522504147
0,432347780190797
0,42140306216904
0,428890238959962
0,417966101661091
0,418982476885836
0,415413679956243
0,42051167956783
0,410283350400028
0,414473442302439
0,409784934288486
0,414681462668686
0,404723810598514
0,405348402387935
0,398440322765849
0,403076843555511
0,396489491636514
0,398708980300506
0,391023774839411
0,401720986793788
0,395955629567834
0,397420498416639
0,39114195028615
0,395505258109115
0,394573337064397
0,396212538398178
0,387019110524762
0,391052783098008
0,386441010582418
0,385937114284151
0,38509552713421
0,387037070060365
0,385783727734193
0,386972900787818
0,37710603686744
0,379942214833826
0,373612257301162
0,37912922690371
0,373005925027986
0,37636861889506
0,373734556953824
0,375949619347563
0,368464926431165
0,376505392061901
0,366174392567289
0,361732141815253
0,363355919174114
0,372238726119146
0,367823947200596
0,367674470264881
0,370595386345202
0,364919394525912
0,353626961468755
0,363379077954559
0,365877388533727
0,363508034796699
0,358112728038853
0,359690046095528
0,358537082523249
0,359811770598734
0,35649808069285
0,359954634652137
0,349648434098928
0,35501407661836
0,350516259202431
0,355275300864206
0,355967758279094
0,358993533594833
0,348217420336547
0,354988173818564
0,347064287880714
0,350182205535398
0,349147744890349
0,346803822661761
0,345115402503419
0,346117904406275
0,34303813328322
0,347810804711946
0,343288829156343
0,342338782294184
0,342969373559461
0,347604337919397
0,343698665494179
0,344733583943673
0,339442184347244
0,346912443687818
0,342923927578467
0,343951930371601
0,335891307017291
0,333878611032416
0,333286549293254
0,341313859733449
0,345048951493892
0,337431242436803
0,33277131220048
0,339109052156131
0,335327679495484
0,340816683336397
0,336234424809816
0,338035134843265
0,333170160790002
0,336540243478551
0,330758024145503
0,330990457190892
0,332129820533174
0,337485975711203
0,324230718461555
0,327964896010011
0,329718202181145
0,330589310721177
0,326101914817877
0,32509838315929
0,326466188068639
0,325947962372299
0,321689255534171
0,326599297978126
0,318248285717159
0,319811447663969
0,318779283136342
0,320945735320836
0,31940915383812
0,324534436377446
0,326438706240483
0,324043847345505
0,307293115219632
0,317088064614924
0,320721197394027
0,316982317400153
0,311049446886885
0,312651825800055
0,312135230779807
0,312506986943749
0,31066008006712
0,310432929339529
0,308186009951308
0,309754604499542
0,307378936439158
0,311417580097759
0,305345128175697
0,310487206855637
0,311377198790959
0,307163590013846
0,304455435123283
0,310842606629326
0,303826289252236
0,307788426102867
0,308040349497388
0,30572732085235
0,303524549136333
0,306074049150165
0,305406089262278
0,302672301173614
0,298242571720835
0,301197839295871
0,294696923603981
0,302646039578487
0,299862949695917
0,300064598306187
0,297752352574181
0,297547987266813
0,298226954100674
0,29648831128134
0,289238935334158
0,295163216226298
0,292779435033288
0,289466289827475
0,291768913341819
0,289308452307335
0,285952779549219
0,290204336875778
0,290837614075763
0,289599284846115
0,28353245706972
0,287671385823977
0,284971885202323
0,28501224459083
0,281253537445275
0,281139704277511
0,281340269037344
0,28551099764873
0,277315368154861
0,275930582768234
0,274360675618367
0,275473350357265
0,271894531682883
0,275190790947705
0,274662472482125
0,271674722692946
0,268731715323544
0,270178356403536
0,26869750029223
0,26867632091752
0,264743224563637
0,270136942373824
0,266611117907388
0,2671541957365
0,266185750466517
0,267016167907198
0,265652734935495
0,264790942011551
0,259022454381484
0,258832379572939
0,257616825719019
0,257334510775964
0,259028346204641
0,258800046262426
0,253804099821392
0,258510652820867
0,253595466411441
0,254779472568393
0,255537587775868
0,256709211471561
0,252451173321973
0,249173845502183
0,252198333630691
0,255066484431792
0,252561568849364
0,249695413436147
0,248778958974947
0,24641004989621
0,248498675519818
0,249456023846627
0,242862284824059
0,2438948935641
0,24580153607194
0,249008423971963
0,244331716082348
0,245671271034646
0,242917970757085
0,243970144954776
0,240372188344008
0,243011858205593
0,240566210873683
0,240117589284994
0,241867553921543
0,239774934060134
0,237293535930613
0,237822893618155
0,236004969569093
0,23734787175004
0,234779129102258
0,238023041188634
0,236715958604616
0,237687238103197
0,232019368705928
0,231492647321519
0,231482956505576
0,231529892938627
0,235142995713777
0,238040883893333
0,236021614399801
0,233851799769265
0,23522833001877
0,236426665590159
0,230432954339735
0,233483876664024
0,232233763172378
0,233001739487659
0,230126557515487
0,227301055729971
0,230885593187876
0,230750096361403
0,226377425746786
0,23106777390765
0,228666984056444
0,22723712943148
0,230154223761291
0,225334998314168
0,224075094471766
0,227839893647971
0,228183250033379
0,228721501230512
0,22629085999201
0,230223210580027
0,224819267923897
0,227837465026762
0,226287842962649
0,224390704098508
0,226922653173192
0,227476257768327
0,22539698623114
0,224044340807084
0,223994547097276
0,223110375384388
0,222319442603621
0,224438031160261
0,222898203000785
0,222915303917311
0,220177164574897
0,220369798401059
0,222845367125562
0,219945342844896
0,219199249175988
0,220137791185688
0,218272491688766
0,218829008325152
0,218533129257448
0,217082040833188
0,215617429188416
0,218389460938123
0,216740794522163
0,214418656511948
0,215782762608271
0,214094051575392
0,216658472259193
0,216389431443562
0,213641248843772
0,216518075311335
0,212759245638756
0,212062846576766
0,217045147896421
0,218062183872257
0,214532783116583
0,209798848345514
0,213649880577932
0,211941017703713
0,211160788964657
0,209458126170052
0,209495027716184
0,211128035660578
0,210950677892836
0,212577154076113
0,209946052941135
0,204151534247731
0,209540260384228
0,210161134006807
0,205961462125749
0,208925891010975
0,210138904621168
0,206606599038602
0,21060779416256
0,209596312930914
0,205792142824257
0,207424315081543
0,20793239859498
0,202695938903146
0,203160977190874
0,208033367150767
0,208147688306744
0,203911010454493
0,207078972204159
0,205035275085856
0,205926386631117
0,204052232260531
0,202320655562163
0,203646907347117
0,205130751850954
0,207653648738036
0,204530700116315
0,199950853649068
0,205668023686346
0,204920021232709
0,202618677935615
0,203806192202254
0,201693024888167
0,200604855584837
0,201013802646999
0,202414003273614
0,198988150626998
0,200481971359925
0,200233518665406
0,197969212891167
0,197422368138923
0,200572143308087
0,199253429536204
0,195858864100256
0,196551595737522
0,19845060478831
0,197853239774522
0,195604608153584
0,19563049994573
0,196500803826099
0,193436292807949
0,189641431603929
0,193593107877028
0,19196712844572
0,190138288348056
0,191355447448262
0,191899675789081
0,188786953446499
0,193455148537548
0,188930779104226
0,191817039405413
0,192585193863688
0,19079769172655
0,192046863449876
0,186521173893398
0,186888591382754
0,188819076223246
0,187698664448651
0,186326485370603
0,188053023337295
0,185631196393504
0,188361924396154
0,187479380672805
0,184449051790274
0,184820876975957
0,185696940332815
0,185074162276155
0,184427899199091
0,184159395074273
0,180694781599696
0,1842997765818
0,18518742483503
0,182654504604576
0,177690487124452
0,182555718294226
0,180688598660058
0,18198248698563
0,182931477367601
0,179294039031891
0,176574957308016
0,180449990628852
0,175487138848544
0,174689554949903
0,173738939626438
0,179214430358164
0,175857087631646
0,174878897419693
0,172369308115515
0,174759493728069
0,172765861275468
0,17464844693779
0,174629006958861
0,174436877093671
0,173921343444564
0,173101261593331
0,173603440464692
0,170719391104181
0,16779387164653
0,169464419294432
0,169811943300618
0,171210940673985
0,16645763609935
0,170547649109567
0,167530216062601
0,17084979332708
0,167351803526977
0,169462902167975
0,167660654519569
0,165798513818229
0,163178174492208
0,165270208638284
0,167550683260161
0,166363829765902
0,167304891602064
0,165847376008701
0,161146981671695
0,165216657701637
0,161775870151818
0,163176433590272
0,162022967198548
0,163985615279445
0,163136781858707
0,163150126898061
0,161021516294514
0,159748152254023
0,1640248829736
0,162899799580372
0,161645647354497
0,163236978368351
0,161902539127228
0,163537508896356
0,161634249584699
0,161815732986754
0,159596789900317
0,162749060688876
0,159767580509658
0,163456386222596
0,159298333921749
0,161235457393912
0,1556824569114
0,158022254329721
0,159250235520894
0,161480844243347
0,158399757754323
0,161196260444022
0,157791721041608
0,156216988697461
0,158597184946108
0,161331287140732
0,158550940104857
0,159900941974709
0,154930216527971
0,158968876358373
0,150594523242296
0,158224258350283
0,153299040068911
0,155289197410387
0,155895397409946
0,15943295626542
0,154597170650004
0,159143543712305
0,149724110870166
0,156797351124608
0,146377601011016
0,155233819951622
0,149658347131138
0,157250040767004
0,156735365200129
0,156141483667247
0,146625285081009
0,154188499333721
0,147896826719147
0,155085746402511
0,148936806765339
0,159908026625889
0,145088972600687
0,158334755438496
0,142767637654367
0,157532739166907
0,143500761821701
0,158452647769058
0,143102661555349
0,158294895271772
0,139245928577575
0,157838888316914
0,138468656163505
0,160552688918609
0,141697154531142
0,155934754330376
0,143218452457961
0,160735223631451
0,137184406803493
0,156559657296969
0,13454309836598
0,16135328555092
0,139292987655309
0,160167890358761
0,136545920504677
0,15691935368418
0,133271607786605
0,160785938363452
0,142361635202856
0,153718917753039
0,14337111666223
0,154781867998747
0,152051855811472
0,142275305176013
0,151875268500912
0,139553526671521
0,157973849594374
0,136178803493192
0,158423868692703
0,135098296762379
0,160272780367182
0,136291167158656
0,156072882147385
0,140748306576143
0,151374576352406
0,146414157902847
0,149127859369918
0,146487335140274
0,148033745391609
0,146708634200729
0,147075692334723
0,148459786781207
0,148739599929555
0,144014493933224
0,149965064252971
0,145267581624466
0,148547587795213
0,144323622045815
0,146810310742958
0,143346454804231
0,150481239760533
0,145901299707304
0,147145978772758
0,145288870948116
0,147813564207265
0,14410452149728
0,145100304627435
0,142713156882449
0,148767159157729
0,144329865278442
0,148335383439772
0,145107149976765
0,146137050265366
0,145533310353583
0,148072355107057
0,146291516567571
0,146792425694389
0,143857647200253
0,148010104266445
0,147580799863748
0,149428192828596
0,146437819100527
0,14783011851882
0,14523719614712
0,149016957854932
0,149608604112916
0,148929284478018
0,150530892258107
0,147179481137936
0,145032011735289
0,14905561740907
0,146730434527696
0,150250556152131
0,14475508202534
0,147085067440485
0,143456232125666
0,14837239795167
0,146962360540961
0,150069832743437
0,148623320103061
0,150166545224995
0,146727367159661
0,149135866421818
0,148068767349933
0,148601377596318
0,143812822491879
0,150795923210556
0,147607592033873
0,150834027511914
0,147327404007872
0,149085534102253
0,146479646948581
0,149494356519196
0,14840351937741
0,147167504137865
0,148531928359406
0,150655035557977
0,147711997751011
0,149039892658947
0,146621334151038
0,149892213039552
0,150525714668758
0,148779841556669
0,148665419317679
0,149355705966462
0,147548602769089
0,150615847682126
0,14807590410259
0,149992840804
0,151342257455339
0,148730057434922
0,148837985295338
0,152227207618058
0,15215126362429
0,151871821284226
0,149224990817976
0,149922938818843
0,152827646223849
0,148782525050093
0,151489557790502
0,152422124260602
0,152651113136719
0,153186501856091
0,151472665670249
0,153758059926876
0,15204464739513
0,149855963898191
0,150829575580617
0,153564356363649
0,154918129708023
0,154943425068787
0,153628123715482
0,153048054409727
0,155388162511791
0,152278756796473
0,154416247009714
0,155201544408565
0,157762760418437
0,157701447135334
0,152663840526817
0,153470205524094
0,158027843061661
0,154427408199209
0,152836933134612
0,15751278405442
0,153665750897024
0,154564187250103
0,155687529875251
0,157885494096111
0,158212448420654
0,157209805845756
0,156519554822738
0,156408147306012
0,158984253693616
0,155957030306132
0,157827807484354
0,158716258998133
0,159093187828721
0,159111988906778
0,159722986515636
0,161379527591929
0,158046966737664
0,161094310312198
0,163055998043785
0,159024796711262
0,15905359434158
0,161771881691458
0,160654660807376
0,162062271321106
0,161303599197489
0,159869379571709
0,160811078165151
0,164698148085288
0,162653388411888
0,16045453812361
0,161937183366024
0,164719861974056
0,164984353225513
0,163157556580939
0,164981972629616
0,162356362605217
0,16681301933276
0,164108494005267
0,165003234912968
0,164752714384431
0,165506457853284
0,164980383874934
0,162429234085875
0,166099909554366
0,166258734969254
0,165263054089412
0,161618872727353
0,16968177575912
0,163721560519802
0,165872822620584
0,166478460265181
0,168032199750859
0,166309041393637
0,163138311995008
0,165405052973391
0,165307735394753
0,161093742000096
0,168053376429758
0,166510618559816
0,163621565099039
0,163317722147001
0,165469682127081
0,161212889964588
0,164297876292606
0,167678040015072
0,166078941851873
0,164894592176191
0,164492054455323
0,163217834256724
0,162568031518888
0,164244985298465
0,162098629156959
0,163536298480863
0,166116476990413
0,163464932007129
0,163005268805178
0,161272387426604
0,16056425114511
0,165350044639814
0,161119920102476
0,164871349365083
0,162807178339074
0,161516892962237
0,164269576384913
0,162576778904109
0,161563574966189
0,163269041384175
0,162367294803265
0,161501143206092
0,16388591929355
0,161297260414631
0,162158762756983
0,160326863495865
0,160407767695325
0,162549831461029
0,162494558854154
0,161986676390631
0,160246104749536
0,160774741648301
0,156241260823222
0,162045817154123
0,159792078714678
0,159863274937605
0,159659699585388
0,160765907532683
0,159549542894778
0,160210327332536
0,160960909604511
0,160163184901486
0,161180788551958
0,160556573301429
0,159731210181788
0,157677088394799
0,1625768627815
0,157683683129027
0,159634715987892
0,158708210636837
0,158787696966966
0,162278575923005
0,158806374727501
0,158101456355007
0,157457292761895
0,158321320002416
0,157544414240463
0,158413884935277
0,156388496971478
0,158300173094029
0,156778052162152
0,157694779003638
0,159792545098587
0,158655437706435
0,159057771582001
0,157634073778167
0,157678128084024
0,15648928506965
0,159664893932068
0,15901317645093
0,158811067370639
0,157026200405777
0,155190323544879
0,158434964543586
0,155672358191013
0,15698897222827
0,157549419060672
0,153500287542626
0,15465919833315
0,155170101038791
0,156690770644055
0,154034457674524
0,153311638929746
0,155903896239303
0,155292252987244
0,15616913134736
0,154878522181073
0,155084054991173
0,153289251925651
0,155241712597678
0,154749470647114
0,152780987936188
0,154043306042312
0,154164920480516
0,152355435437342
0,15463696991433
0,155596951878538
0,152479027897543
0,153597745299832
0,153198711709612
0,149292470458404
0,150488592238043
0,150387654875123
0,15203532806268
0,149797853766489
0,149753329799948
0,147873488571426
0,153217915300218
0,148908886787357
0,150390766578432
0,148329997600558
0,147660759455637
0,147167816350982
0,146733941586316
0,143830679526321
0,143855185177535
0,143861036064969
0,144438861800015
0,143115547596518
0,14377584826074
0,14297490024143
0,142158186521745
0,143141226558619
0,142855342527832
0,143041773560065
0,142915780454776
0,136137604161506
0,139003710097282
0,136903360390949
0,138019293750004
0,137463176481227
0,137644438528832
0,135053758640147
0,138576332678456
0,13606945941707
0,135765180718755
0,134298336603263
0,137581382280631
0,134190558601286
0,137180581483888
0,135928233205041
0,135254279367787
0,132034266050702
0,133758797594417
0,132312544823732
0,13472134086301
0,132844061192922
0,133408736292341
0,130373436057055
0,132840532810845
0,129597521507799
0,136380858555951
0,13316550164587
0,131612014773285
0,130852066351382
0,128740329540707
0,128716667989383
0,128149436509917
0,127801986038726
0,128334767205328
0,128671396077272
0,128157582181275
0,129133379065394
0,128247519184058
0,12916904839814
0,125982613154726
0,127967243243041
0,130548938826103
0,128101193838792
0,129003573940739
0,126739608477088
0,130336870495684
0,127079541284445
0,127128414881781
0,126110551329731
0,126622558324285
0,126515450648512
0,128154590430214
0,125177103311094
0,123391231272379
0,12746743405576
0,122622548514742
0,126918330218053
0,12680290345918
0,126910422379663
0,125848416407921
0,12359163915895
0,122182555511542
0,124755145902925
0,123150675528101
0,126121001690628
0,124096948285086
0,124216982041585
0,12243248462016
0,125212853630635
0,123378375898677
0,123737840432468
0,124044472985339
0,123086472292319
0,122410212515515
0,123432568760789
0,120618956063873
0,124840899342472
0,121881659192534
0,129411094583365
0,126195653448996
0,120475825317645
0,124367565249219
0,12086660516289
0,122259204588017
0,119133719185678
0,122785952218412
0,119998999302413
0,124261038882809
0,121396347032981
0,123812743130349
0,121104956598496
0,120922010922041
0,11668337275995
0,122369665291049
0,118243826335805
0,121941849996565
0,118099481105637
0,122520769125928
0,119699384559776
0,123129320872627
0,121855212438356
0,119831780695153
0,117634457398879
0,119361227431779
0,11655095736473
0,130036514969721
0,114818610502611
0,121149432268896
0,115317589011466
0,119537509574267
0,118355601808459
0,119997757405225
0,11154825299751
0,120997246860553
0,117183150157655
0,117449135150861
0,118765784009029
0,115924469005682
0,116646736223239
0,118700273697736
0,116280350023374
0,116654505856167
0,1169664832539
0,115583989642072
0,114411837508007
0,116299549691011
0,114305992156419
0,118082540712015
0,113828760775787
0,119013632507318
0,116440674536884
0,116216417684094
0,11645218219374
0,117968817146938
0,115657321383308
0,120412873106297
0,120054866564202
0,109771891855575
0,117009423223636
0,110240822939465
0,113563901381397
0,113664538288224
0,115310126557218
0,113907783160975
0,114588448231745
0,114107798738974
0,116406747637313
0,114353174346898
0,114902460915637
0,11251129722021
0,115069283580949
0,112704459275271
0,111460324619256
0,113586728878776
0,111767504687866
0,114274115504935
0,111586009580788
0,117883195925394
0,115334821910006
0,114621945975758
0,117663546331247
0,113600892384981
0,113470842605696
0,111083725768105
0,111582187185051
0,113553773923859
0,114461030938071
0,110953253250446
0,113873691505701
0,112123848946029
0,110767153713128
0,111684404718545
0,113354232511409
0,113513733985886
0,116393678748643
0,110024643810997
0,111804915060642
0,110454639397752
0,115994988049008
0,108853195556829
0,117138071993018
0,108108516214127
0,113585837761837
0,107533668115717
0,127222317348768
0,107274841381276
0,110143199172234
0,117961972955324
0,111312741282128
0,113524223874416
0,107366510548261
0,112051515742538
0,111779117400548
0,110913755919942
0,113740812258115
0,113920375666432
0,112371750876356
0,111295023984672
0,109452795433335
0,114855748214016
0,115465320497037
0,105979211375563
0,11311900263344
0,111490869967239
0,113090513859277
0,115753491997521
0,104963068015073
0,116325163629462
0,111543190399864
0,112923914404258
0,111057881631636
0,11463640379369
0,110148572195997
0,113927385778437
0,112040207304593
0,111997145952493
0,113852302905693
0,111290789663557
0,116949708686449
0,112693676847573
0,1154301978298
0,11639959438122
0,110111653121506
0,11577229133024
0,112840862379202
0,113427427788097
0,114041074033654
0,115197063258826
0,11169883848989
0,116878405615227
0,117671984807947
0,11325701754193
0,120491540341049
0,115993067996009
0,113925735087601
0,120741174194284
0,114348792742036
0,116047370463395
0,115950423768808
0,123276117635294
0,12539719686443
0,113575930970656
0,12844601984448
0,112712209863901
0,12111260715377
0,112778312443222
0,123398203713556
0,112882676537859
0,127631578097022
0,114260208049145
0,123049151413678
0,118469340917169
0,129491142143925
0,121042485087931
0,120941676793643
0,121210129205373
0,12146007892948
0,119845454986724
0,128065832867306
0,124434922859776
0,119409977436558
0,136614969262033
0,1248772076486
0,128621808332489
0,122025802826116
0,121927656599763
0,138736060404133
0,117684772753073
0,126057174047923
0,122295233155433
0,125597960592561
0,12862220323443
0,129725868065191
0,139180365738411
0,124302056430473
0,129328876957209
0,134380959185082
0,124863714013976
0,138663788663267
0,129940912594447
0,135081418253068
0,130758741068764
0,138032580334521
0,132522223369557
0,150957502630142
0,13765372290411
0,140920710587557
0,15098631167942
0,13812928550809
0,145461223360619
0,137464293715744
0,145315630667517
0,143497472935244
0,150778460360986
0,13921158742427
0,147045103946272
0,149777522847057
0,158910802902226
0,144700461006828
0,154910737301012
0,144848833954104
0,155806061203923
0,161405261794659
0,17080113439984
0,151150366379505
0,155552226046593
0,155359140870808
0,168760525949055
0,152831341019686
0,160338993020299
0,15848384918517
0,162230845290855
0,163405223907639
0,166487916270247
0,171351455879248
0,167775697091887
0,170421255904183
0,176201880571991
0,17271773994708
0,184804672914511
0,174110188181744
0,192682866139042
0,178780317523488
0,195121095569986
0,182047917088041
0,186040349496416
0,193123517063221
0,193048220450671
0,195239914028526
0,198175436258516
0,198664461002208
0,201199298819477
0,21419964732242
0,213330554838799
0,20878685506454
0,22306274903278
0,20433625760102
0,226667148744751
0,212059167872852
0,310164723815101
0,23786567301489
0,245759604836569
0,245198569059616
0,250130912435803
0,27896134026808
0,258242523111079
0,262685072531551
0,274204188538193
0,276760378641216
0,283714002722222
0,29312687081175
0,294288134730985
0,301326860384559
0,310287900748906
0,310630585251907
0,326424664929573
0,352075338074641
0,345579550635717
0,347710006156164
0,343113169012229
0,355997521123474
0,369374841038787
0,366752237516074
0,378348417313236
0,389728190952788
0,392076565295398
0,440686697948884
0,40818803907884
0,426375539503527
0,421709844208016
0,43837262443937
0,429865493598848
0,453487177866893
0,474064133442363
0,459923254113955
0,476295781413822
0,473845215238092
0,487004156381359
0,481483616771331
0,520693542801954
0,513803114830801
0,512476468312377
0,517755474727702
0,5286136379649
0,537869912788432
0,538163777873143
0,551017707361033
0,550360120997925
0,589359166655965
0,596386436168592
0,614341716204457
0,597582128406117
0,567352309659708
0,59027095416483
0,56242700741439
0,580920569396572
0,58816303559729
0,613757422860488
0,592590460771027
0,576939026664986
0,587625758934678
0,587298458197149
0,598038271763566
0,591251842522041
0,593598081978084
0,589506272836127
0,60173672687049
0,594950729330691
0,569436180574683
0,660324273025304
0,57450459281516
0,586972611206187
0,579032139751638
0,57355054137505
0,567902895558234
0,581401268003447
0,559258275840885
0,584374250568103
0,550264495455566
0,554349710167519
0,550947123347362
0,55159302569166
0,551405972062809
0,522788025786843
0,526254334744185
0,51888480755539
0,508549355790773
0,509007306226399
0,501547710740542
0,519859596872726
0,478442666186343
0,476353971118899
0,472629935351477
0,47446593907973
0,461979056092175
0,452612146560359
0,448874247653689
0,458421698717113
0,437631847989431
0,441987469678736
0,437444087847081
0,426859628572751
0,418841105071966
0,428014640315218
0,423674792270249
0,413824312712522
0,407430541969275
0,400647221821186
0,402341065834899
0,402120460246966
0,395450840641839
0,393977978756422
0,392188005354448
0,391138248381908
0,387788506344277
0,388286480978123
0,384986685720549
0,381433047207709
0,382878198697722
0,378384338849192
0,373486393649846
0,375270027180423
0,374870691956309
0,373902736797245
0,371318635831274
0,368080671759762
0,368935498521002
0,361498477599348
0,36627676729825
0,367771148655523
0,361644477547355
0,361857646208797
0,387623690602313
0,377538151422124
0,355584446877619
0,363003482300828
0,357197801166964
0,357623593447799
0,344699609182625
0,368903261732741
0,362147496360914
0,343641253459725
0,352077339511857
0,345508146855393
0,337816922419939
0,349148129457542
0,340387896546385
0,343706758746271
0,340852851925145
0,348717044033831
0,378846158102951
0,367679413494039
0,369460304150925
0,3339849726666
0,335389709566314
0,337331277510277
0,358075152173181
0,331276180066738
0,328844484050646
0,329809681340583
0,32582596718162
0,33508758972824
0,32412990586355
0,325644557923733
0,31973080945868
0,32095255530367
0,328202602215046
0,326058224204802
0,322906683496124
0,333438551103654
0,322696293282573
0,327039140434288
0,343242910973652
0,323185958193136
0,313253368774782
0,306289853777101
0,311099749063311
0,311177761644586
0,320744370841976
0,309780589463807
0,305305135124084
0,303035548484713
0,290968529385598
0,304231825049551
0,301115227657978
0,309608773945079
0,294721144055746
0,309995029173486
0,292924164316421
0,292561127137864
0,311065773272753
0,300086710937978
0,317395463433517
0,299871342583949
0,295507429384732
0,294585888273838
0,310970490402965
0,295537110828685
0,294802595925516
0,293094179091498
0,290253675692703
0,294838449285891
0,290769542553165
0,291034659407903
0,299774030544096
0,284702556912802
0,316152456366003
0,293693646286225
0,287039484981707
0,294061038066842
0,291397724144886
0,294001153366557
0,292318498519628
0,289238973364498
0,298405316556988
0,287034930162509
0,309771495850993
0,292096066268536
0,313513709054469
0,306318738856134
0,306605756474762
0,304716181770305
0,308882564724654
0,309385369833053
0,332651012538293
0,328938626619396
0,329603055002372
0,324333987530562
0,342906432693974
0,332106201024219
0,341183288918923
0,342551434606971
0,34947561504265
0,355425708710026
0,366677735975691
0,370769691421926
0,37896414283282
0,375850873002823
0,389876610455802
0,383264319655142
0,419464559413538
0,408611227692598
0,423179340064407
0,440998730033152
0,441382614768837
0,459394651646678
0,45794850965422
0,476933582434111
0,481951256540318
0,488521629197737
0,503830475049557
0,498037838009147
0,525799271101828
0,525889688616291
0,530355634711173
0,541565532221786
0,543359477812031
0,550240168725094
0,56224918553596
0,561592647787649
0,572216098231589
0,608962599719723
0,579263954542816
0,583918058653381
0,578542849472475
0,581152807717991
0,592999195294029
0,594857663095816
0,604022790041452
0,59305404419803
0,610556241704199
0,600651874219384
0,599767406359746
0,594505212754485
0,592481349496187
0,603657678181055
0,604801116930514
0,612729691326528
0,614077997868647
0,61168622440526
0,61694479179956
0,606225655213217
0,654016307290414
0,638682834206464
0,62613283471011
0,631087998753185
0,63776958200861
0,640788158648625
0,645023685442538
0,660159599967764
0,656398483740323
0,654749900204901
0,669880667757238
0,659067084712094
0,674023821756343
0,678148646484777
0,679137068019962
0,681521351859842
0,679898091135829
0,677374511412375
0,665712369844931
0,731128188654264
0,705427315221813
0,707731085056311
0,68988641526929
0,696696539372638
0,707751192633506
0,701200393866535
0,703299915193696
0,712214637943897
0,707534392440826
0,70884088887246
0,709867641390128
0,701782625643454
0,707053722264988
0,704624202132633
0,707289554838985
0,703443877692084
0,68714956772379
0,693521578292674
0,689249161155824
0,68158937773588
0,689625396620826
0,698777756027284
0,681681633072416
0,675734253710476
0,669769142749824
0,689747299298678
0,677671505397435
0,674894145515135
0,667207954165157
0,67895979565455
0,678132844869543
0,677202316958845
0,671806839025578
0,701583723523256
0,695775885657729
0,697817769855469
0,703766598724891
0,705748335501463
0,697858731140585
0,712970745904326
0,715151584299555
0,725229742904578
0,72689560122928
0,736915689669296
0,742722772495151
0,737661785928092
0,748901653801906
0,741706468857379
0,757372394838937
0,755545912082644
0,754294019761141
0,75974269101321
0,761993865695484
0,767894325646469
0,764612549901976
0,768139075503876
0,76477325771969
0,761650553893059
0,752622875034406
0,779059534009676
0,773541381478323
0,757686507301379
0,768588337686646
0,762700230079517
0,762524355289805
0,764240417906154
0,762925500018222
0,754647831073023
0,756823432418135
0,749601152759764
0,755786764936884
0,744801127932385
0,747773686092648
0,744771713839225
0,741146226324242
0,727816667604218
0,735231741911048
0,734383177970736
0,7326053678887
0,731299869381764
0,732056630330167
0,723463298746442
0,731489845992442
0,733154392347041
0,740015357590456
0,729432883093984
0,733628072921116
0,729411131155092
0,731834825460925
0,730279593672933
0,730137933112567
0,731053168723593
0,725741043400769
0,722694885649427
0,71202407648488
0,710627824897751
0,71747446052373
0,716515604844103
0,717085496697475
0,702884895935753
0,703412861728003
0,694019412783032
0,683225919595905
0,686331162729066
0,680283151349621
0,682513829373843
0,674340352327713
0,672738661177769
0,676019969449826
0,662724609153673
0,660903507323589
0,665873495316894
0,664278954164178
0,658079483708073
0,653517986339138
0,644502660873334
0,645499974201552
0,653050102900545
0,646775180380015
0,647025831595916
0,651694341945673
0,650936404859866
0,644348160177453
0,648256639004915
0,640545193561042
0,637219666306668
0,642563547023903
0,635720554973272
0,624901951186287
0,624742061851203
0,619894056548364
0,616507026083008
0,610084861592847
0,609020696457145
0,607832343687106
0,598158715973087
0,58907798228151
0,581805621924692
0,587723527707509
0,583481824909934
0,584814303379879
0,57774503192003
0,572460653437595
0,578825091924829
0,571181938289584
0,572289006739265
0,568752677997466
0,568005688232498
0,565900972780811
0,571062004889144
0,567202218863506
0,564127984854773
0,568801508320368
0,565318433954573
0,567885055367329
0,560678180975047
0,567784554751026
0,566665683554937
0,570746681935558
0,569907134271284
0,566926944648853
0,573071113706157
0,575001971829556
0,573611353912695
0,580199663681583
0,575013053681137
0,582870722272101
0,580302834703934
0,581468797150052
0,581225879552103
0,584922152453381
0,58279118233919
0,586112395745862
0,581509707408242
0,585460361996354
0,5833063316283
0,583920676504848
0,583184772098268
0,580877967255852
0,580294180752351
0,579257668532906
0,581248257373109
0,579815560911376
0,580995584240231
0,575642323846333
0,579503156706939
0,579105296195827
0,576660006992819
0,575385774846605
0,577249804668055
0,571871471826084
0,571401918926214
0,568620741091277
0,568593330590038
0,567958003684676
0,566218541601603
0,568208777469085
0,560724913194925
0,561337539473498
0,553218418676234
0,55177484448748
0,552940272288781
0,547466481141955
0,544552834638188
0,537740396842834
0,535324451694568
0,531546858688722
0,525267645633053
0,521006508596778
0,518452129842224
0,513423997473891
0,505239358312464
0,502453760404868
0,497385839303287
0,495906395394393
0,49281882439022
0,487117123098662
0,483966617545778
0,484962250443442
0,486447209609216
0,483108328537534
0,478446275181151
0,480527429485827
0,479906679024181
0,48076948114573
0,481542894121477
0,482448617163272
0,481506040098694
0,483447177193189
0,485089730037307
0,48780638367428
0,481451643018369
0,481519465275204
0,478934810115371
0,47215235874464
0,470685266432016
0,462919664546897
0,463132948576784
0,454824144748923
0,446823381209786
0,444190115550279
0,434275241850663
0,427184922282114
0,420710470410916
0,415092270413028
0,407309211547018
0,405704412224159
0,395473463526786
0,392814581733797
0,390938516208735
0,389989995667194
0,388800617604244
0,38627107045737
0,388601296838339
0,393130160472774
0,396099424410283
0,402181717089447
0,410414346042063
0,415916957939862
0,423524549645606
0,437403908352699
0,448518016047275
0,464727643500756
0,479601510828634
0,498131245744996
0,518511135449959
0,537491837602452
0,556085994946804
0,591045630136569
0,614848367054492
0,647146006992419
0,676426109438205
0,713663379834485
0,749942067721991
0,789473050394969
0,826526350813572
0,878710744306875
0,894234874039528
0,945735742146198
0,98863627695752
1,02160840014142
1,04636277446476
1,10012873816583
1,11918090401059
1,15085199557331
1,17230454231163
1,20733158046465
1,19298738015062
1,21512299890943
1,22496001620603
1,2230858975058
1,21416795097879
1,2189552124757
1,21070675399446
1,196591573098
1,18380058029292
1,18313389806232
1,15191286865377
1,15098898278445
1,13456274170831
1,12036144529365
1,09262371448141
1,07632055006051
1,07985582408688
1,06143516863358
1,05706554974245
1,05546904136836
1,05513345101529
1,05503735443496
1,04393704220121
1,04635638060307
1,04736191043759
1,06424154777763
1,06913293571248
1,07578988092467
1,07914340660207
1,09673328949961
1,11166202259165
1,1153665152522
1,12449562171395
1,12215198746284
1,1344913304667
1,13598574358137
1,14494458284409
1,16001189192538
1,17776603835897
1,16450020915291
1,18457126702418
1,20055229153307
1,1908497857668
1,20427700110291
1,20209017014774
1,2141289158485
1,22959032513237
1,2365962627115
1,23420940445629
1,24846357182807
1,2486701301835
1,25772808572251
1,25256501518354
1,25919524263689
1,25098155472851
1,2448803331534
1,25169254767069
1,25658963565626
1,25435163537468
1,24795057273038
1,26661700964478
1,25560475471645
1,26966335346781
1,27278790864152
1,31945704053057
1,31418480282383
1,33051793032622
1,35885289872619
1,3792226267527
1,39328674906217
1,44345376676152
1,48493242496
1,53691536642091
1,55619748879862
1,61464917116587
1,63143010457524
1,74745184105519
1,75839643072571
1,74058701156026
1,6896684325538
1,84185878457399
1,78158390000055
1,86625293707914
1,77420199762681
1,78463817882095
1,7284143435481
1,79783348153502
1,76361809688844
1,66076260175072
1,62604015925491
1,66561241807896
1,64356641893092
1,64890146307792
1,68401806352648
1,67468614257984
1,61305972166181
1,71662194619187
1,70942835009655
1,66699091546844
1,72906762196225
1,74299540400027
1,79370274185282
1,77354089088826
1,78718782256606
1,8133719445603
1,94334960317522
1,97944028799299
1,88202864621451
2,00519705900951
2,06512002494972
1,98438706721865
2,07199924286778
2,15274455761283
1,98573484746008
2,27786057253239
2,07655066296085
2,31730075108988
2,12909875785555
2,24406245445826
2,11247911722111
2,3200679369325
2,14466373701039
2,11040338086868
2,46339993088737
2,54078302829156
2,11931218190522
2,31216263304111
5
2,62411427769761
2,33096492806614
2,49290873405886
3,0070314624349
3,13640347637912
2,52567393968707
2,6127134050849
3,54736562183682
3,35582379305923
2,80129432420126
2,39154934656277
2,94295020138033
2,82752838113372
2,54720773892749
5
2,30848588177726
2,90347969917272
2,49317087200427
3,71082732656541
2,24086993563665
2,70675350145292
5
3,08943020962321
5
2,59977647305952
2,21152436688521
4,87596057590996
3,01029666347188
2,96408278239441
2,69035959260257
5
2,35579476027619
2,86242141483434
2,24348811603505
2,25606493932334
2,34795641266882
2,49169314368105
2,51094774849778
3,81197072845889
2,63372710190901
2,32524494374848
2,13097844808032
2,38591332081084
2,21274004359307
5
2,15450659065357
2,5436404751976
1,8914350877849
2,43294515658324
2,01941035377232
2,0673399172629
1,8833037706943
1,90678358389897
1,80483879387692
1,88973383825353
1,67800405027567
1,79835592547962
1,65939705119111
1,62128594780927
1,53255790974708
1,58913666342317
1,50167555016079
1,48525967225131
1,38109828401517
1,45952596368191
1,3784563591505
1,45038470371573
1,34192706494946
1,36083368520647
1,26574459006454
1,23991749792515
1,17834139785222
1,17346311994192
1,12548238236253
1,09586924407755
1,08149414463046
1,06487094635564
1,01701266732438
1,01008685593133
0,977742776363678
0,970323896190277
0,942567635011455
0,928880551239621
0,906889109630106
0,905347136450338
0,883827493044237
0,880249494497404
0,874964135850792
0,892862678057404
0,860153045667963
0,873982506552506
0,870750273646246
0,886873599796434
0,890432609747553
0,927200497904961
0,915573582608716
0,946690055254362
0,941809146228242
0,964177605878433
0,954667649021632
0,995020388367331
0,972306991689918
0,98739175617799
0,994397204068719
0,989403452584027
0,999418169865483
1,00120099394762
0,985645205732918
1,019827529454
1,00910571027973
1,04037483430422
1,03174326532976
1,0241833698881
1,01405468492933
1,03181952261277
0,992876488148436
1,00265158913955
0,992624059865268
0,998123539610894
0,984623045035554
0,980476663857489
0,953599534139669
0,993829961211285
0,957243244159103
0,965557317915393
0,917725624392691
0,933763504459852
0,911192123699256
0,913023406757642
0,891691053255748
0,908860765786584
0,90695573173009
0,903739750496021
0,875533317198267
0,892530345595796
0,880705280235615
0,880017499275219
0,880055444033952
0,885436221335469
0,881438958743798
0,879883620598809
0,884599948217307
0,899435292090382
0,876374853730751
0,91101838898091
0,895083287671572
0,919540546674583
0,912528347457691
0,930096171480501
0,880517025209879
0,912913332854707
0,891053729238825
0,895651616057168
0,861014055737808
0,855155065943217
0,841359299958434
0,846233361550609
0,822010086437631
0,840589083742995
0,820980480914612
0,83362578820289
0,805019874996945
0,816471375155435
0,801698962516118
0,82947934976262
0,809652695921899
0,831519802862213
0,818056980797543
0,824841725456791
0,817541829721257
0,840228784522007
0,847325316688215
0,855304921118136
0,856679632288354
0,893866112733577
0,865805146679386
0,869549362412065
0,859236891833747
0,910797689192438
0,899071875492861
0,924738322910138
0,90027665972188
0,946308024960153
0,89634524427752
0,940078305301016
0,927608605048055
0,918837270075174
0,936662606015018
0,974841285027935
0,921154032349574
0,979110202022562
0,89635217535952
0,931540282808277
0,914769858998227
0,961231544840878
0,998167346929256
0,960691916970364
0,952448552988112
0,981892360057204
0,981864539861612
0,970389456233253
0,928329483070875
0,959211929199437
0,936554120476663
0,9761197366091
0,968153064250751
0,964126711343807
0,924442632794337
0,987988440207495
0,934051774252347
0,940273178562462
0,896514681101909
0,894859082871166
0,881559808888033
0,911803164529575
0,911806716531573
0,899174282029092
0,879979978295477
0,860930402977815
0,86959914757673
0,884780348251014
0,835664842866174
0,869674989023459
0,903926670094537
0,877056976229286
0,844454461295738
0,901445842460898
0,860314713621005
0,876238714049935
0,883145070087842
0,887516037450674
0,849029942281846
0,889215850582949
0,844095508960076
0,906968181723286
0,885825003273205
0,910009611215849
0,878907704267087
0,872375194703204
0,858438364451216
0,930380779082683
0,917820144147205
0,958939940389882
0,867336452125054
0,980824585636866
0,931920908108967
0,93075643791305
0,90823578358595
0,988294749938865
0,961487253695249
1,04054083832924
0,991173449914505
0,954339056587832
0,943652055949236
0,997855137395169
1,05959458814889
1,08499522348596
1,0612657049222
1,13592900199191
0,96889622984952
1,17711613146589
1,02668711323435
1,09839827596484
1,14563940921002
1,24030323178128
1,08731705776422
1,17010675320987
1,08068380999686
1,15526081021987
1,109539142052
1,17448208249444
1,09723346766035
1,22993051889837
1,18885610124538
1,11930524891102
1,17337530845675
1,24113166866232
1,34459170320633
1,24543749289194
1,19499451824115
1,23848682658212
1,15621494978906
1,31455406252344
1,31725392213795
1,47403778641129
1,13757259250816
1,38143453566628
1,25095844693975
1,36656877456592
1,22516586112842
1,28109784004502
1,47169022219327
1,36694163073299
1,25535231948032
1,29121869051895
1,15709847404224
1,61061991596439
1,29394982648616
1,26500242433352
1,22563446714302
1,61115343154858
1,10783483843394
1,25897545964728
1,46747093319501
1,35309179347472
1,39066846510733
1,49608051136171
1,11156507180675
1,4735095521632
1,19923326046057
1,31029722850266
1,24215665620754
1,35753304340102
1,27094566077492
1,25197611755256
1,14732909838576
1,28582988410943
1,15484649505569
1,2817778680083
1,16476370595198
1,27202551287334
1,06929980147959
1,29954722603743
1,14243921286621
1,36247183089453
1,26011429182879
1,7763583982273
1,3805232758443
1,95951018577534
1,13343462102388
1,50140884274263
1,34063754891114
1,39242032604949
1,33632863013454
1,27895588387555
1,19427344910018
1,31135108467922
2,02904968224514
1,60292638590416
1,40881636153197
1,61921281505369
1,46032864809127
2,12216057615116
1,20547551688977
1,60636577529262
1,19075591113843
1,19059378013551
1,47067829572163
1,47156692239238
1,19018441066517
1,2745072293263
1,61964374595364
1,91210489617608
1,04266113422492
5
1,36417833346684
2,07521441763804
1,4286121417514
1,42018525427544
1,41715967271281
1,60913990353357
1,28241007829168
5
1,61211388053873
3,38943515452686
1,32002851052183
1,39400284310859
1,35989698220299
1,96108272309331
1,22087402254844
5
1,5876678545777
2,04345393638725
1,46500514874736
2,28790683146563
1,24247119361965
5
1,17596386417029
1,42445795114676
2,16284717622443
5
5
5
1,00742597899641
1,60990248430068
0,904649333160999
5
5
5
1,18042245580776
5
1,05695070545691
5
5
5
5
5
0,969760485440165
5
1,4857072318014
5
0,953637058305326
5
0,78741538370778
1,0322438779055
0,71889290626425
5
5
1,04196026753809
5
