3596
4000,36533379555
650,420452594757
1
2
2
0,0322462971233659
0,0212106442727955
0,0286840649477411
0,0197249249533387
0,0344277272510843
0,0150750567579826
0,0242833241244515
0,0166495134219656
0,0232550556898254
0,0235132004999341
0,0294547334890542
0,0179769157511569
0,0264742348559505
0,0223996710655256
0,0189329196726199
0,0128756936120408
0,0214401712654289
0,0145653553362383
0,0280595387395094
0,0172102363056321
0,0287153908212713
0,0161702532273418
0,0256369149706606
0,0195733698788053
0,0259017591598409
0,0202819381012091
0,0261178647150267
0,0146418726459774
0,0252980359578871
0,016838437254988
0,0288263144217385
0,0144153002591715
0,0261904696368199
0,0168553221789036
0,0258076595171628
0,0115410493818205
0,0185048525977287
0,0200582328238702
0,0288425701382122
0,0123789351585168
0,0279115917506234
0,0214793849270786
0,0255284489417522
0,0147801665595764
0,0345598835076171
0,0163509504015125
0,0266493858204043
0,0208679892885094
0,0230949856713602
0,0193346705331439
0,029899179212725
0,00717770860541171
0,0273483191237775
0,0239878308797104
0,0260483089375693
0,0238671050011038
0,0236676204851265
0,0184571001637586
0,0310762566036619
0,0160982744148346
0,0274136209394312
0,00881353627046665
0,0205201641155824
0,0149550556452681
0,0215212064028249
0,0115472556675617
0,0175238900534415
0,0286659285375881
0,0236407479995223
0,0209224936032764
0,0138512651888782
0,0214562133569441
0,0242139975940367
0,0199095707370479
0,0215790176246578
0,0104243402350525
0,0289658420367855
0,0245995793982395
0,0266822693187399
0,0247619465392008
0,0184461918076752
0,0229310561920397
0,0242354126952967
0,0125455380632359
0,0228715281229173
0,0178206830295523
0,0170084152068838
0,0108407718403904
0,0274514687435301
0,0196668307966349
0,0236821642352545
0,0173389286697047
0,0198031270306114
0,0229167574076457
0,0196201051772698
0,00980217118429182
0,010855002036526
0,0223080911808085
0,0203711159149995
0,0223242075967264
0,0252714808311071
0,0023794215563324
0,0402813857899291
-0,00492527156389459
0,0644611936146846
-0,00715601447098578
0,0386348111190751
0,0169586888404178
0,00350669727009742
0,0190388166660426
0,015688413258778
0,0246405037182268
0,0216634470305323
0,0145956377095684
0,00820517750939649
0,0292149948812322
0,0179327411692908
0,0170989433978886
0,0181829230182854
0,0200758438146801
0,0220375238335528
0,0368983236065724
0,0255108945774784
0,0114995622584504
0,0209698946025951
0,0105031790551157
0,0266691342928094
0,0298373021939371
0,0237935836675416
0,0110755968017201
0,0284482713188516
0,00719509158333935
0,0245955382247052
0,00298559272496901
0,041771776913279
0,00346290227492598
0,0384834608028128
0,00848741812803115
0,0229897293077026
0,0170689811753523
0,0154207895824231
0,0122882058327934
0,0123079990258887
0,0184525033678511
0,0389023162408371
0,0120996205662057
0,021001760721778
0,0157346822498801
0,0259088966795727
0,00804728701927581
0,021161202436307
0,0099554173803045
0,0317369859294299
0,0193576842886699
0,0291392835632575
0,0297892756261716
0,0282030922402156
-0,0270088859578238
0,0557575683493666
-0,0060019511399787
0,0360369933186147
0,00783802717625069
0,0268189297210411
0,00848740203999628
0,0300232657301107
0,00293010815502826
0,0333036683168533
0,0173318646386412
0,0206368127029114
0,0227512445555062
0,0308931118996692
0,0243638791734426
0,00961467789215092
0,0352709330932038
0,0164197231157166
0,00947868465803359
0,0355482602358825
0,00911681372521671
0,0239947058268081
0,0114494045939429
0,0360835084699508
0,00423625534578507
0,0271211736022548
0,012773748400813
0,0200499752340776
0,014722506702677
0,0243999044884026
0,00669963646490707
0,0268830155282762
0,0062886580658898
0,0374571762931476
0,00792856081263742
0,0392980773847324
0,0121088476887369
0,0331645457764494
0,0033586351221422
0,0629549176177059
-0,000223901087385032
0,0198191466478761
0,0179652775677245
0,0184095844673207
0,0183314897905316
0,0259661655079337
0,00467315615958472
0,0301171591888468
0,0068288015341233
0,0463199145789755
0,00451787289181693
0,0240509431237077
0,00720197839210856
0,0358527164061502
0,00277121443801012
0,0530873816737311
0,0120265464442102
0,023531727653736
0,0169800458161442
0,00998627326978927
0,017736465521946
0,0292891327021871
0,00844648651835999
0,0236607803549415
0,0126215942253787
0,0238417237166554
0,0187248332264791
0,0179571219019108
0,0103519995441983
0,0290570741788167
0,0170651834194353
0,0288615324170824
0,00936487566793351
0,0259781264305248
0,0105647537528143
0,0181780207223954
0,02290841150424
0,0195613961909468
0,0045843125258489
0,0317647852968895
0,0063505189855785
0,0288476384566191
0,0101589608415474
0,0260631402765165
0,00911148511443353
0,0301222957159452
0,0113154483440313
0,0329863425611396
-0,00562813817049539
0,04818315021761
-0,00025046223104531
0,0247157295315767
0,0135278588073329
0,0365552471148705
0,0114362054138631
0,0258049507196759
0,0100579462367964
0,0234989958445771
0,0198767270743443
0,0312900170329287
0,0186483238223926
0,022486786050231
0,0197813539712181
0,028753821895995
0,00811051279101883
0,0199904932630357
0,0295885575841594
0,0171750817658862
0,021605606205544
0,031012353232135
0,00624051841747417
0,0442452408133252
0,00830548207605481
0,0277583794292903
0,0227229913285459
0,0222920846753545
0,0343345737432046
0,0333182650179705
0,0201841604716976
0,0174139963824964
0,0182970732742054
0,0230050934692582
0,013223762476468
0,0289821371968168
0,015829560409774
0,0650885089257146
0,000848910005052162
0,055529924127827
0,000188671414769642
0,0324364507564465
0,0207439271757977
0,0227211205505539
0,0158631158570861
0,0240512936668211
0,0183472262104149
0,0305346256608553
0,0242852870033812
0,0148881287281965
0,0281399362055244
0,0105956665410177
0,0318755765181367
0,0171547594694819
0,0227594313013885
0,0153705986418193
0,0182573095107219
0,014084791597394
0,0227300102820237
0,0242565014338138
0,0238499121918989
0,0254412502789632
0,0158061933073737
0,043324610990951
0,0268797720304854
0,0189336164561377
0,027765735856663
0,0220608114439682
0,0171581289757692
0,0197555826349821
0,0186292929946774
0,0222107619002598
0,0230078220377915
0,0274307469731425
0,0333098316906658
0,0317822229414899
0,0185691522569558
0,0259516773630504
0,0200857305167471
0,0285841786777547
0,0207188213147477
0,0266835363883613
0,0206958718548671
0,0281278816893122
0,0224295960315713
0,0282517869717218
0,0281911128022794
0,0239492199939121
0,025015944227863
0,0466984185203138
0,0184642643485779
0,0382206145728147
0,0242966955098383
0,03509514507722
0,0271600486298134
0,0331220298847751
0,0248056454525848
0,0326920529170398
0,0307503338233918
0,0398058680629601
0,0238656927766383
0,056517929029372
0,020121723612643
0,0587524440192379
0,0245387418824067
0,0367587439837434
0,0414092250134086
0,0380227715877971
0,0451783360623182
0,0256116492213638
0,0456835384746067
0,0362686727179305
0,0444638408323753
0,0398752871817036
0,0459238540719992
0,040841260767801
0,0437520982151703
0,0510354246528981
0,0429362346575329
0,0499769704738331
0,0414632287476608
0,0599330396727813
0,0377786142152573
0,0669483522452976
0,0463761460095128
0,0494429655801572
0,0527678977827804
0,0586389148275702
0,0500510438205028
0,085926678374789
0,0229780977882968
0,0806566791994654
0,0284869738925876
0,0877063630020353
0,0492731603519498
0,0752341600417665
0,0558504895740063
0,0755009247962972
0,0733516822424941
0,0739659327524515
0,0647288028138589
0,0805382480962403
0,0722122637477601
0,0801480590710961
0,0682466248581563
0,0912392783205669
0,071645271123977
0,092343088168439
0,074407129469041
0,0845719060512972
0,0817616968880013
0,0874206665630484
0,0954670697942188
0,100351928003366
0,0982048882253062
0,0916345196446801
0,101647750926253
0,0893306159310489
0,0899345367123728
0,100229199641971
0,115996724527062
0,115575731772385
0,0904506400025554
0,122269308361614
0,111473699791052
0,118561583194998
0,1008993692908
0,126998072950997
0,122476256230188
0,121155291764699
0,129259648105185
0,120562314721016
0,128782542308209
0,120160340892074
0,134492566044115
0,134372472931233
0,137384550450051
0,125336409842782
0,133751639717356
0,13697615841592
0,13383605068283
0,155619535284531
0,141161393632129
0,148871127389716
0,145003402360885
0,155535165124135
0,150960517643615
0,170323377758718
0,138155448612299
0,166040387477996
0,14470131268973
0,175727902296661
0,158291056869871
0,164456398544437
0,179623302403681
0,179303826528756
0,180362101271442
0,184426224545133
0,186268449199391
0,179337246079232
0,181559411641399
0,183398799686898
0,181023609476248
0,195967396858969
0,195215969698171
0,202618190547096
0,191010594828949
0,214009361642377
0,197610176826815
0,209860473637015
0,21351513205406
0,218596670842372
0,209646391884608
0,22083452115659
0,218169140244624
0,231072558544686
0,238616499484398
0,223177679514959
0,260911292711902
0,23466855882122
0,231121831913575
0,237375491149301
0,220553352581643
0,255574675016013
0,248637545734022
0,25806704891106
0,251037350031346
0,252388342670527
0,252509103772799
0,283194745964456
0,264270085814322
0,259987215296986
0,259999272514623
0,279332943688785
0,258351182285208
0,286830206564239
0,281763855215241
0,283840414017402
0,295060558678023
0,303230702192765
0,282355383256669
0,311246623685747
0,279897615456908
0,313426101276371
0,295162013891607
0,311807103511371
0,307006074153843
0,320055065656895
0,334166325692173
0,30848498467739
0,320237841767694
0,329576223724881
0,334102854803735
0,359353919654108
0,337899229376322
0,325740577125938
0,348548225172156
0,349457436811251
0,355403529325922
0,356752136463489
0,353066636638777
0,351492994824335
0,360183915366688
0,366632083802811
0,354799363766027
0,397428708895095
0,377849908880876
0,379054402673343
0,375871982547842
0,383239150924502
0,385090078937751
0,394211602906298
0,381926531561651
0,409309958481035
0,411564849936143
0,39710556113397
0,408563463257424
0,417974133855305
0,427070504795058
0,440692691461196
0,417652029691232
0,430388186291013
0,421770949937507
0,433030332590352
0,428595509124371
0,431446441776546
0,438916257436278
0,450855778647708
0,427449172873296
0,456864930264047
0,466088967659089
0,437836255113744
0,45678336115654
0,467278530495262
0,453294811461761
0,474626840280251
0,48695877579635
0,493253901656286
0,480210335395398
0,497141869239206
0,506457269546765
0,493208087116795
0,492501286611446
0,509104752804237
0,503193785652237
0,517477345989713
0,516662482660916
0,515616162421261
0,544531336695806
0,514603335009029
0,514796293952644
0,524857430504466
0,506528307910193
0,535151252540599
0,527374472200816
0,535179550693649
0,553946851093195
0,518869194905369
0,541685751707542
0,581437768585796
0,578756010107048
0,563183710341002
0,583933364935034
0,575987880897641
0,561270234361324
0,576632207896423
0,582835644905307
0,593768312394354
0,580537475390568
0,596541045927435
0,599020237219348
0,556476808220651
0,583521162011132
0,611386212508061
0,62122156087418
0,604531301172253
0,585425821123603
0,615282318403392
0,61337803860481
0,601910977812606
0,618055248992405
0,614905239423664
0,637241701142893
0,672291864410076
0,654153219699756
0,636132779879052
0,650557051035372
0,643665699506856
0,648293424578718
0,63026455226757
0,65060708290666
0,652149964447014
0,652725658914145
0,670327263624286
0,678267526494296
0,662776300583246
0,668554271406024
0,645096038443041
0,701304329609646
0,68559549233468
0,681349230935484
0,710779761330672
0,722736300790488
0,709538654063446
0,705481637868505
0,686094300911225
0,725537037203199
0,700817054673691
0,734704483562899
0,740724779738674
0,718657109817556
0,693585450888179
0,711302120467497
0,703558045970607
0,746484607465539
0,730890694882738
0,727591004357877
0,745207517540374
0,775015354356736
0,77007013325637
0,739716060487169
0,718594707002374
0,777425380057285
0,765031428498798
0,76181815113106
0,774033845720291
0,784992079762355
0,750911566357581
0,768359284488591
0,792851720915666
0,781937536004456
0,742407477769867
0,775930119822282
0,762949902511264
0,77406433056271
0,767912092263362
0,781396289054477
0,743055116435119
0,771261898217618
0,78133681893481
0,84704638539579
0,802582337372703
0,807585997075762
0,786036367131926
0,856274421271251
0,787130118193382
0,79652276144879
0,789151247399881
0,805361211570785
0,803374561383433
0,847219671282792
0,859743350970186
0,853088841089362
0,810092591379039
0,825130578522473
0,808688306437153
0,852456948486907
0,856239457014
0,847972002561467
0,780740357663507
0,839578875875355
0,84339189510909
0,844095642387824
0,790863865117168
0,820126555468266
0,818492221546537
0,850876169040374
0,841352764849674
0,895759504973815
0,811665417540835
0,832437309955365
0,859116365378181
0,881114180347843
0,876996030474996
0,881033930896638
0,827104502015286
0,880455372242479
0,834880318675739
0,869444325036727
0,88868215337759
0,87706572667564
0,850019646824541
0,87454043846869
0,842612988706628
0,887686869280109
0,862334745051297
0,893087669422875
0,876847675800794
0,896488542028099
0,856753998542155
0,896455099584192
0,869415673461843
0,887278647104307
0,872330317505285
0,876990949984273
0,863068529856713
0,915551464546257
0,901289466057301
0,870299099265251
0,88220609545812
0,934373463416628
0,86049389180351
0,895395485177875
0,895207052018883
0,927585600441172
0,891976426656896
0,955800512998525
0,877935527126713
0,897427871653681
0,867314120796615
0,938678115302942
0,910531070702232
0,900459704163701
0,867304030119106
0,875095139811948
0,865026030353308
0,867747508360459
0,912050745120564
0,983414799949042
0,894085613394279
0,958477892221483
0,900905926668042
0,909827240814117
0,90751360058415
0,963967702927028
0,904361844624375
0,934850901336781
0,875065259171016
0,934306412830925
0,901870948375004
0,907035707370186
0,865453154230004
0,916083268471854
0,888800913007458
0,928399388716534
0,867149337234002
0,899371059035106
0,911298521236739
0,909074425141555
0,89000876174109
0,9041635701273
0,889001741055336
0,949469528129644
0,901110542366775
0,915916539862979
0,906236895646975
0,941553503825743
0,878906992019439
0,940423327208344
0,879412541608922
0,939076374542248
0,904957107517093
0,926585169974198
0,913196889553613
0,94380392212144
0,907719723636925
0,941510345671038
0,918016117924559
0,940709073511897
0,888864637551427
0,87860587745482
0,897376838444164
0,921349905933628
0,911282382205222
0,921650764115716
0,893672856060742
0,913566355276185
0,897134089189508
0,928066050803094
0,883772331843186
0,910494981011894
0,861917377132668
0,89362295569355
0,860449897051434
0,934610807489692
0,882193871656911
0,882924607795412
0,871412305263671
0,90774321553647
0,876657781193551
0,903289061034026
0,894308986249348
0,892930382038996
0,886904874946018
0,90029315046032
0,868008509966941
0,919072059155923
0,863144251498713
0,894400977103943
0,861443925731702
0,883638308259826
0,896709151542845
0,863921851006235
0,869951035052174
0,908704500368776
0,875764119096062
0,879248437468631
0,849925454692743
0,900003989567694
0,843160283273817
0,883512941790818
0,862096172451521
0,88039191011486
0,86735235407472
0,88539453747938
0,822214824409852
0,892167154541591
0,832636983251929
0,87611689115612
0,842033808176146
0,875673803230632
0,842132327717805
0,857498110217295
0,861773854691979
0,844804897549649
0,813807413763283
0,856391020223437
0,812776242355306
0,860467325194524
0,833448657826299
0,834990117165034
0,801050648361872
0,847615816947175
0,836174078598624
0,847435211400751
0,821728940274885
0,854162881956416
0,826992090079112
0,842277463781569
0,805575098224734
0,846048039798043
0,813544922602283
0,824767184686848
0,793722214326688
0,801126098632581
0,788040878793673
0,826684516315718
0,776368974694333
0,80003458885779
0,786432114765665
0,817715647005027
0,756178800055117
0,808237447566189
0,760980964388123
0,793974938110747
0,741700327931296
0,797394924432902
0,770885196467164
0,813076347742832
0,749472636631551
0,778370387019908
0,742446654601065
0,778277137022143
0,767839312128823
0,792566811413131
0,739178040040706
0,757319507435823
0,743064282379246
0,771590334149409
0,743439148020855
0,76468431125098
0,738927596481771
0,751719053088278
0,708169753085329
0,767353095069675
0,71251289361612
0,750660452322917
0,724553579758462
0,744934643800926
0,70106461360933
0,72220466700424
0,709005266281572
0,713808628473987
0,71625335424657
0,709235923643411
0,699598693408978
0,709465026632097
0,692013435267328
0,71303741297178
0,664609245375439
0,709643005366115
0,695843967582763
0,680547360085601
0,673349836017514
0,697674888772149
0,670947278761881
0,681608982467631
0,661818914410084
0,677156187682358
0,668587457776804
0,67515365122909
0,655527576729403
0,65645601348769
0,634462498295078
0,643321882354639
0,627571787201839
0,65941139079711
0,657103084644332
0,639088042101974
0,617707960966468
0,646018504745651
0,622192067154208
0,634924315489011
0,615609545716314
0,626344212945507
0,605116196186533
0,623834210095092
0,612822431638884
0,610098908209747
0,602579210967653
0,617444607831166
0,601555408766307
0,593581303363082
0,584580300945411
0,615279905104787
0,571840152429921
0,592427053625707
0,572407007283783
0,562913701528136
0,581653171311371
0,581796369441705
0,558219848364937
0,580365771120832
0,547380347471996
0,570482963173795
0,57129217608034
0,589487503589088
0,547062875538814
0,571722232743001
0,542037986101587
0,556864114658499
0,540559072921688
0,556159486759182
0,535771423630136
0,536805434136251
0,532921627760173
0,537254615899578
0,519796754795374
0,519762998349016
0,518901690242277
0,515732199609209
0,516746698437397
0,514648673968091
0,500218086780602
0,528175871695447
0,499848846468259
0,515055475950732
0,503738898334321
0,511929884323605
0,496223385997986
0,498905974665055
0,497992865495452
0,500341354149556
0,487753987871093
0,491116844164977
0,482126602251564
0,491182965000594
0,476630405415363
0,488843374050772
0,473092171415933
0,47008505499875
0,468177563172816
0,455114174084851
0,462142459675049
0,471644135459181
0,462293333251675
0,46022287969449
0,453870812005603
0,461656677527238
0,442985671539186
0,453717848374868
0,44707516316599
0,452447809146178
0,441566784990187
0,45491335434058
0,433622890792439
0,442856061057335
0,435170444476921
0,432296556036627
0,424547419918062
0,437001219477493
0,425656119175704
0,432917439888024
0,413599392093797
0,434538832908767
0,420498608739801
0,417742261987425
0,412636749853272
0,421425760838239
0,41629679178252
0,405635462251658
0,404960166506244
0,418033615774437
0,398666527565264
0,409006567625003
0,402876896385763
0,40275980018185
0,388624987221722
0,392074819068032
0,387291519184832
0,400411443551972
0,378593249790473
0,394488974554159
0,377218538067199
0,386421098772845
0,382330817371011
0,379623924179762
0,369757611768945
0,37107151930151
0,373499061842807
0,375876008139867
0,370257828076422
0,375882042358691
0,362893534626975
0,36993914485739
0,356612822941375
0,365202880346615
0,357208319723156
0,364811125852576
0,36256070050018
0,364276916428347
0,361520078398345
0,353320313042395
0,350551223347744
0,357816980333792
0,345483882728668
0,354544722086569
0,340533070689603
0,34281957335861
0,336441940963504
0,345927419573343
0,334900948499549
0,345055042786323
0,333769605812479
0,340910351101671
0,328740242154729
0,331489744188037
0,328999189702755
0,335652763999051
0,324912407603143
0,324350472658922
0,319936759542324
0,325016533235033
0,319812467792085
0,324025666859648
0,324314476158574
0,321070466892421
0,311964482591061
0,320876434850429
0,313028230870817
0,317139830580962
0,305792224547796
0,312561474569426
0,306017789270762
0,311021683269246
0,309011707146743
0,318214922444853
0,309408460550224
0,307959962198005
0,302090914962457
0,306718292481147
0,303448015043873
0,304299108853327
0,299684473655568
0,304201792156414
0,297308353359861
0,30600996540501
0,290713603501231
0,297755870665629
0,284385833334021
0,300453143094959
0,29716718408804
0,296449412825323
0,293473341094082
0,299179698937983
0,287080531899943
0,304655023785039
0,299934804277873
0,301515727481069
0,294934911385347
0,300867462892628
0,292667222727811
0,309549336490182
0,294628695848381
0,304833115643979
0,291808217573687
0,30214914862765
0,302062039045068
0,315546929216882
0,297275662843428
0,308960383092231
0,300171971874964
0,308927120673623
0,303345586718375
0,311768874003148
0,307194215203728
0,320596861366299
0,311583132206514
0,321413094619479
0,307718903612411
0,314799641599549
0,31331124128416
0,329378782873517
0,323586089178943
0,320841971287423
0,321370752631519
0,328351866070336
0,325719760529529
0,336190415620088
0,325835185217086
0,336018132091817
0,331298158662965
0,349627725096339
0,342760827170464
0,348181291809648
0,335132595289108
0,345502223881092
0,339308301936486
0,355429196930565
0,35316769626933
0,364601013045799
0,34725827000052
0,362275555686553
0,365596625848678
0,367295325899657
0,35751408294268
0,376910219806937
0,363787403900577
0,378789866677378
0,37484709963263
0,384426759976389
0,378430646655347
0,397214570659983
0,383505983237448
0,394112437074613
0,38764038447163
0,405606567001168
0,39365489284495
0,40376810420714
0,398996867016723
0,406178722747185
0,405162982184331
0,412594596507093
0,416525234523246
0,417875931442309
0,409307607219286
0,420468985995971
0,407342107112456
0,422853453071606
0,409969480875656
0,414196061518644
0,405962155151139
0,421721668279976
0,41253195558605
0,419176317038484
0,397213537338397
0,420134648750646
0,404704423588231
0,414640240537847
0,408358013662283
0,421741841697996
0,407828084599938
0,406433142517417
0,40204918254202
0,410095417963477
0,398186096177274
0,412681847494564
0,401439725043416
0,405013609326662
0,39844461107068
0,410988080915113
0,401739068306228
0,40681991273853
0,398611643013994
0,411665518549019
0,394813780182187
0,403918898397439
0,393825589107919
0,410348057406872
0,395170950064156
0,408913059460458
0,404590397120952
0,408263129394492
0,402235252997159
0,415590895524937
0,397156506483169
0,3993237904996
0,396361805524153
0,401044748627254
0,396585028167826
0,411271253971413
0,403586001892067
0,409322594316403
0,405440669542862
0,402255593949883
0,394016735283188
0,399594597704907
0,400036216697903
0,400688997845571
0,386043428967482
0,389976869526528
0,388078218253903
0,398932126475177
0,383280237904965
0,391059979398594
0,37699581881311
0,381887972482103
0,37574625338517
0,38606414434869
0,37702736206255
0,375082584946578
0,365686467884904
0,37667156889608
0,367454748271495
0,368037454442462
0,355365773270246
0,366788022423818
0,351545063931945
0,366489066905461
0,350095674578043
0,35311102104584
0,346663504396898
0,348547057094452
0,341211359509443
0,348989722409484
0,335998353783441
0,342496842154483
0,337242153327661
0,336625636930044
0,329860737827943
0,33442933036437
0,321775530909468
0,324882697499157
0,322624586492759
0,327932682549377
0,317301860815565
0,32589046973021
0,312017747062463
0,316192989709574
0,309506063108075
0,309916097295397
0,303783913255344
0,311111238353146
0,299346737525387
0,30051744946785
0,297696545103452
0,303353873694308
0,29674854552742
0,301219863964031
0,292259271115601
0,297900603456851
0,291126090904187
0,29515729097441
0,289153492853797
0,291666139532091
0,288622704510046
0,293119541343418
0,283888540734224
0,286853459334369
0,280123253283322
0,283950798982894
0,277698086810448
0,286824738118138
0,277899977626956
0,279918430446981
0,27102165871536
0,271334499025805
0,27051730682892
0,274950318581658
0,269801463615484
0,275466356940171
0,266279570507367
0,270849346135992
0,260904459625638
0,265338647250321
0,266542032532596
0,270577613751785
0,259124082428427
0,26267795855537
0,263073852227352
0,259531847293252
0,255760246621897
0,259833930818993
0,261251250816906
0,261518653953407
0,253843825973008
0,257799914925221
0,250699434682327
0,258593760561453
0,251156012702379
0,25282065911716
0,249424960268672
0,255169983681552
0,249565118477821
0,248851207600781
0,244729517687656
0,248876501249217
0,247604505949082
0,250573227150514
0,244140269319514
0,247536258568477
0,246868380124546
0,241957539830652
0,237691534657384
0,249099971686817
0,237540269330248
0,244335457136841
0,241392398734279
0,240804454107585
0,234154562086337
0,237867515882687
0,241259439143039
0,2411088555875
0,234377429009355
0,237358597886314
0,237847443680321
0,238495530154948
0,225049359801844
0,236604226734462
0,233270628951885
0,232560665485007
0,228973091496141
0,237432535919202
0,231592584242085
0,235180733103655
0,224047412918747
0,233092238563909
0,231913021027542
0,229651304300232
0,223728231236266
0,227311066298096
0,22591954871424
0,228665944514102
0,226507071581473
0,225698712436164
0,223675194822688
0,225061129654651
0,220793416923654
0,224619345940276
0,220755563595485
0,221249247267773
0,217384767184377
0,221466999018908
0,218125428398019
0,224350931822101
0,219971792352383
0,227096104114928
0,218221008589628
0,21908030500049
0,220874936684701
0,220351610818575
0,213875107343176
0,222034131379245
0,217668731886095
0,222005603447269
0,21360963208951
0,216497458374436
0,215905957489385
0,22227122361404
0,216870009402567
0,220471081834847
0,215001695120536
0,217123363903216
0,210483877306106
0,214679621849738
0,212131764851218
0,211700088400314
0,208117974625671
0,211940652094899
0,207613790130336
0,212069667018942
0,212988361862547
0,209961728663896
0,204616499222747
0,211715541896682
0,204415671129413
0,207011918623828
0,206968098844282
0,209755089027706
0,20069610378273
0,20461912965955
0,20330721598185
0,210413575732976
0,20390046428282
0,205657729287436
0,200289451587743
0,205683698226469
0,201607060905447
0,205245668786128
0,197896755488861
0,199444077514653
0,198755029989221
0,201059675847267
0,195185765772177
0,200106625521552
0,195975683125043
0,196862817375959
0,196464895058708
0,197682894374989
0,194519811460703
0,20008753111895
0,194021935826724
0,196538814663467
0,193049487866464
0,194504022234822
0,19365847069701
0,195700471780352
0,190174164135912
0,195787679654482
0,19282827685988
0,191303347273856
0,192751381673926
0,195904412477452
0,187442047353371
0,186572260518682
0,185981424450462
0,186890674024711
0,183768949012947
0,188418418878214
0,183606483010375
0,185022370619414
0,18109356689876
0,183491231004316
0,1792677842248
0,189197335274768
0,185173232178301
0,183627969529621
0,182180255680263
0,18376383117727
0,179329821714082
0,180324200118268
0,180304481476646
0,179951053819657
0,171753482896699
0,178693601733515
0,177230144989737
0,177074110682664
0,17215701651308
0,172487468448436
0,172857964231008
0,174509296795733
0,169807914768958
0,168912285242961
0,165356824516087
0,170913442164394
0,168440166216175
0,172212326041099
0,166295025070571
0,167455101179523
0,163081873645488
0,167420266094007
0,164153696011345
0,163184684518945
0,162790985150586
0,165259043265044
0,159390119875149
0,161585517587734
0,156399773819704
0,16097900481565
0,157261654202406
0,157360454653646
0,154178874473091
0,156558387613049
0,154273745168208
0,154099364538534
0,15314801151824
0,156018589535403
0,151391577512761
0,155157108857875
0,151054886757764
0,151372314441929
0,150113230341012
0,151852689826856
0,148089621880748
0,1465985228666
0,146907747482838
0,150258537053911
0,144856487612373
0,146910732887014
0,145650176245437
0,140754852553603
0,142409683774223
0,14775434721606
0,140061780105733
0,140719654726716
0,141226577744117
0,14278124361892
0,136892031858885
0,142986673644146
0,136784900203761
0,137658550761454
0,13809151182885
0,139784673990429
0,135261404466571
0,138051431163492
0,137507991610305
0,136954910985126
0,132447253589917
0,136097007245609
0,13483201859803
0,133875517773403
0,132250578130856
0,134681578687584
0,128686034842039
0,129320273182101
0,128831338577955
0,131014403086268
0,128057759424798
0,131751034684864
0,128498184509445
0,132151410920623
0,129984282165024
0,129005454996146
0,130106579802364
0,130191412518433
0,125509206968899
0,126855330927463
0,126330040776018
0,128705370915983
0,124277495868532
0,124313334511119
0,125039410384153
0,12642010429846
0,124571731237578
0,127274397193843
0,1245863231493
0,123446022384191
0,121713839394056
0,122123364737116
0,121217111522891
0,123109832263282
0,123329415903491
0,123093006200866
0,117362885292671
0,120281451118452
0,116225424410859
0,119776728658004
0,118914165614893
0,119045661989921
0,11667179066949
0,119836910531373
0,117219729780923
0,117005464869533
0,117678776337759
0,118246265075143
0,115964757232931
0,118037054349795
0,115736667897203
0,11688610011437
0,114519705872841
0,116291084536146
0,115769309464165
0,111805265936543
0,114258914446621
0,117728207627753
0,113831362665395
0,114033530384737
0,114071038756932
0,111190676095705
0,109145878364841
0,111620083524407
0,112811649191723
0,1125031985936
0,110761180883379
0,11346989673182
0,111417634437678
0,109725672637566
0,107018531227787
0,111854123463909
0,105427850527605
0,105377947651426
0,109689581367971
0,110034107551812
0,110225970066242
0,109664929848426
0,109631100536427
0,108152808840755
0,10618526319718
0,106150991691818
0,106071412177381
0,104816641992791
0,10416617254114
0,104861666435689
0,104221582717616
0,101652224544833
0,102175034198591
0,104864517848372
0,103094108554907
0,104089814801442
0,105596634007333
0,100546204498137
0,103298833078551
0,105529973816391
0,104063785263709
0,10291295214801
0,101663621632038
0,100030814633199
0,0997199080211803
0,101441564454039
0,10474495351204
0,102807258931237
0,0994236255265578
0,101165051928403
0,0992078766581995
0,0962054865900958
0,0961065153398879
0,0988111634030145
0,101814115788445
0,098821892641919
0,0967381100246293
0,094721400129842
0,0957808577932
0,0977370795380333
0,095394497012018
0,0971623710442266
0,0975653231495897
0,0945253441414228
0,0926952413458668
0,0951655441816544
0,0916910408328925
0,0938212340687085
0,0921407857444953
0,092890704516821
0,0947137736268007
0,0938371326539189
0,0917562787133052
0,0898324234544031
0,0889103522335654
0,0927678809649094
0,0890565052442406
0,0889170969120564
0,0859849499759533
0,0898640832143646
0,0885534355094554
0,0888311940716254
0,0877047647542889
0,0842615065493639
0,0875632055421093
0,088459795183869
0,0863451689011772
0,0852276509530317
0,0837561791794728
0,0834535038807638
0,0859846170378442
0,0858415760318927
0,0814656028218006
0,0848756188271364
0,0834963992011998
0,0823313207030369
0,0801379088919903
0,0825270869038937
0,0803611320252299
0,0817877914112605
0,0802944462740771
0,0812261506066262
0,0778522185423871
0,077524508905784
0,0793607266232562
0,0805355386855767
0,0769272438204792
0,0796138998530323
0,0793962965675641
0,0744396124097944
0,074892425001852
0,076082779855613
0,0751060814313266
0,0734584363228141
0,0745022686931295
0,0727155634153944
0,074785755600775
0,0764445151503972
0,0737928227870871
0,0727207969890694
0,0743585742285277
0,070460312062892
0,070640392555495
0,0732029992434799
0,0724275207712596
0,0698640501977594
0,0704181858508984
0,0699318218899866
0,0678081538454366
0,0703048194035582
0,0671861980175341
0,0690038328517501
0,0715760963317009
0,0690215268522388
0,0668968030197722
0,0693890085064578
0,0668593532760608
0,0660611369087149
0,0667372471956721
0,0666790522401977
0,0691596438838871
0,0635208251190375
0,0664728460505337
0,0654326610534274
0,0656266223042894
0,0648790054752088
0,0676668770260942
0,062961275087233
0,0633971236820068
0,064078747270666
0,0617112399827684
0,0610480012673999
0,0606904337056346
0,0616276261627636
0,0626462914997051
0,0606624910827156
0,0617821315012148
0,0616085943940383
0,0604011508878931
0,0604088277616927
0,0607097989361554
0,0611110336953942
0,0595392568137769
0,0581386682688715
0,060336499836738
0,0580348697683064
0,0594253538563918
0,0604488170151206
0,0580577544558442
0,057753555749202
0,0599183832988617
0,0587846048061942
0,0578383466640548
0,0568199820177795
0,0584409732564929
0,0579413388820412
0,060187249555628
0,0570861260843766
0,0578108995555455
0,0539147327677022
0,0548258048809141
0,0574630446769738
0,0594263362241955
0,056280065767885
0,0582151667359307
0,0537974255994228
0,0562647825248931
0,0542020213053999
0,0569666006091977
0,0606542732846346
0,0585771468099582
0,0543460330536111
0,0595691796058008
0,0521767938076902
0,0541758846554145
0,0518033805969046
0,0541992580320301
0,0552391944920207
0,0568874068614668
0,0535146088533551
0,0599698489511793
0,0496556252423969
0,0545321701735625
0,0500263128852021
0,0539663059862234
0,0526416777906249
0,0574218650626438
0,0532249162304999
0,0525721477119982
0,0475586923355605
0,0555784301445436
0,0501027237731629
0,0553659305308834
0,0488590393733419
0,0594524016253398
0,0451398920838568
0,0564807714159357
0,0461536688949235
0,0589951610964716
0,0450592363111802
0,0637747119433027
0,0462652552042771
0,0577670110609061
0,0408036710284006
0,065872330210937
0,0459123806047112
0,0668064867424306
0,0443891970216345
0,0670454230306223
0,0425293406645279
0,0649212155514864
0,0411469826955975
0,0646696779877583
0,0309461203496389
0,0607353093952416
0,0334999524362833
0,0660864243387487
0,0330453439554908
0,0618952215218205
0,0339011713446162
0,0657687850942132
0,0397058911187234
0,0572356572828505
0,0392375254408052
0,0574955339562559
0,0465017040049553
0,0450357313254947
0,0522466743495314
0,0438331784288371
0,0573350107622428
0,0363186450586842
0,0601229907430096
0,0320023177305649
0,0608345952803016
0,035221371601306
0,0568487546724325
0,0385117653854119
0,054010040224223
0,0461305878577748
0,0495541139182311
0,0474338912754043
0,047591786825797
0,0459163711051575
0,0469131433247474
0,0457171764446352
0,048710403152739
0,0442175077890931
0,0511484828657117
0,0423113234979034
0,0507527975724782
0,0449768367839867
0,046076502066918
0,0420517026370546
0,0494266782224641
0,0453894058511272
0,0494710408286168
0,0449298297626837
0,0484344347944477
0,0447049728325989
0,0447282843904681
0,0445658939146849
0,0488486960199437
0,0432727261858807
0,0463512503895794
0,0449558265824378
0,0475821067332214
0,0450788413454704
0,0470253356008328
0,0466694834403373
0,0470907336304119
0,0443081055970546
0,0482452046304667
0,0448129941488637
0,0475953226302067
0,0456287713593157
0,0465932773640475
0,0442254130228725
0,0482222031213249
0,0468371335408915
0,0485643913545003
0,0485228769221738
0,0488956702026344
0,0445112664441347
0,0453490765454907
0,0441373267193437
0,0467686747152635
0,0438009463568666
0,0472310107276473
0,0424659069663367
0,0478715025170975
0,0474979555906985
0,0491397102325342
0,0449117888743451
0,046727851236393
0,0415390455386168
0,0457005581572027
0,0451082064999512
0,0468926441231934
0,0422709004155071
0,0484264727344306
0,0442790170498395
0,0486936523049702
0,0451292783193065
0,0478903022644801
0,0430923581755927
0,0477950724037828
0,045034177306175
0,0476829859956364
0,0442690397723524
0,0466322294863158
0,0464317608019244
0,0467709290150241
0,0431640396420305
0,0439240122693079
0,0455076919645122
0,0475874561873526
0,0460887182157911
0,0451996732229227
0,0452486134884213
0,0484938459687593
0,0460998450715251
0,0462825231366617
0,048659015065293
0,0464679990438767
0,0464196265058434
0,0464346752409721
0,0461720652759779
0,0474396929436155
0,0467213458040143
0,0463703485895377
0,045720752870368
0,0479346943403113
0,0460771619541751
0,0492488839386327
0,0474233001330665
0,0479696837998728
0,0469764258343272
0,0485083472007403
0,0497022460384625
0,0451323077139285
0,0452498396007464
0,049356243327573
0,0491058084326699
0,0487458328627817
0,0468188104475202
0,049342609273811
0,048505904604419
0,0465334420471137
0,0479997039760994
0,0487720646728209
0,0508557067748903
0,0482530468338301
0,0477258677861785
0,0483511550714191
0,0497292425867836
0,0497849154148779
0,0491726457158422
0,049885247744254
0,0477747940301416
0,0474629503931139
0,0460969780689811
0,0492848300806592
0,0480764503278933
0,0515596427445595
0,0513016134983601
0,0470137290600108
0,0503909567277677
0,0496867506856794
0,048040774458158
0,0503049721160207
0,0485426724769045
0,05021035749649
0,0505415784902039
0,0504049329348449
0,0482621019026987
0,0519286299667469
0,0526391325613395
0,0515396517565738
0,0518954417893109
0,0525550296367675
0,0490284586693034
0,0540524287472421
0,0506432521327706
0,0517915187980404
0,052378147678068
0,0527464490301875
0,0502319164766257
0,0503333803542728
0,050525930608178
0,0524406000359074
0,0508155740080489
0,0542165400835879
0,0513331416241645
0,0517634508620975
0,0540954216333537
0,0520102448352518
0,0545556922430843
0,0530289933984871
0,053283283575882
0,0533193231688014
0,0517029098247744
0,0549415683045274
0,0506266693971979
0,0526299421350671
0,0501129436134209
0,0550947387464109
0,0542765405243597
0,0522622148661496
0,05419031408491
0,0552253901527924
0,0536661644244668
0,0539018807339356
0,0525877744009614
0,0533058692064036
0,0506069226376524
0,0509278171353219
0,053579478847413
0,0524278892496187
0,049682933220313
0,0514112119634111
0,0497370033096746
0,0531587100530136
0,0521315484314397
0,0543023473938295
0,0522552050595275
0,0523265906046996
0,0501025872930337
0,0518041930717397
0,0511208316338078
0,0521633480047649
0,0511054140784159
0,0530482829275104
0,0536145252830874
0,0515276121560444
0,0504236185410354
0,0511796265069676
0,053095050060819
0,0517330511722401
0,0526258307073328
0,0499209894621804
0,0507432535041799
0,0528516135746146
0,0475856788783052
0,0502746455449063
0,0511513832622104
0,0511067128916725
0,0517588588546109
0,0511821553372847
0,0503980562448316
0,0477917774230993
0,0489522825459029
0,0507522713317191
0,0514080615038913
0,0496201748833431
0,0515168270973669
0,051250910098566
0,049295987144817
0,0497289575659061
0,050149202929613
0,0490935469917005
0,0485290226841399
0,0491500231736408
0,0515595745161383
0,0490981713746532
0,0495016766070092
0,0503794147347736
0,0508757663231004
0,0496658304543644
0,0493149507141541
0,0498995691619745
0,049416416501189
0,0502143307741314
0,0488508228610993
0,049999705307556
0,0475332540445995
0,0478934139329598
0,0507974714607898
0,04859741900706
0,0464285662238095
0,0464955692172843
0,0500796965508173
0,0493616301308726
0,0483199766640773
0,0479050915497618
0,0487141964728521
0,0474709328562656
0,0483361149958012
0,0486587730807879
0,0487050824511784
0,0464697621203908
0,0479425941335944
0,0498637891720676
0,0485864508101864
0,0479285093938348
0,0506053709045602
0,0503688924715803
0,0472752505524191
0,0505647661735613
0,0468461478361142
0,0478717061582004
0,0506249384601187
0,0492288396810442
0,0483769370624277
0,0489960550082097
0,0482503359985329
0,0500197477962631
0,0480003371600107
0,0466368898705869
0,048953297959911
0,0468209415855696
0,0470575288291926
0,0463669230333673
0,0473186001659941
0,0471218173501058
0,0474896654793098
0,0501182022557304
0,0449433660484904
0,046422315282726
0,0462711968791433
0,048471149462781
0,0468914739709182
0,0491351514308691
0,0474629785775964
0,0517949933578321
0,0497420805643938
0,0466634408473827
0,0457244043150166
0,0461873418619551
0,0462238547829876
0,0465620516660868
0,047283657300141
0,046133285226335
0,0492009193589371
0,0469378173983096
0,0441659858534175
0,0456305530719425
0,0453838090102456
0,0467854370097239
0,0424747558128955
0,0425334063151499
0,0436807206470389
0,0446391897032127
0,0421351946477353
0,0460956298558012
0,0438388705180447
0,0451219770579525
0,0430355139659247
0,0458831601210781
0,0440345835299305
0,044880155448662
0,04611961956659
0,0415552220668308
0,0422481277455509
0,0417769339690999
0,0425779183195394
0,0409997168918623
0,0413840080929972
0,0399464810176047
0,0428862164855192
0,0416666658767699
0,0430299392584993
0,040592133486329
0,0421807144758123
0,0407988270389347
0,0424145733000179
0,0398059835495706
0,0423843942172008
0,0391378794943369
0,0422273132217296
0,0408595915534275
0,0402033051073362
0,0396155380718852
0,0436861353463403
0,0347543224397344
0,0415549741155138
0,0365307337721323
0,0455474509579007
0,0398775689266081
0,0416032038137191
0,038825706521025
0,0392072482132056
0,0393303087262128
0,0375896617327569
0,0380161446763607
0,0387773425545408
0,0389294688390934
0,0405062213200211
0,0398741405065232
0,0381874904603592
0,0386183316648558
0,0379041150599963
0,0412805260562161
0,0380823034960876
0,0396512966517478
0,0392481039701986
0,0401555372996688
0,0380389460656372
0,0366485106224879
0,0393902697128171
0,0382768925866294
0,0399426063831824
0,0379536337799506
0,0406416501992724
0,0381988277967649
0,037980647845219
0,0390439411674341
0,0355838257977818
0,0403320001316569
0,036498271249466
0,0389935319139017
0,0369638496943184
0,0409151311893209
0,0382888135611025
0,0383877057354418
0,0379569415533541
0,0381785756733552
0,0379598836881463
0,0386263208985854
0,0373507755462021
0,0377228570224135
0,0354401454863842
0,0397640658755001
0,0358519349443135
0,0378700595372128
0,0362642866864266
0,0373090893131399
0,0359813445505252
0,0414121359486206
0,0351116326333948
0,0433623008881925
0,0439918164508496
0,0354275879110865
0,040608941734728
0,0340646130380829
0,039295972926398
0,0352763219448215
0,0374742933410054
0,0350684052939273
0,0410602190900563
0,037617109788005
0,0394053590716864
0,036647415617015
0,0390856491723527
0,0333914621712636
0,038397598951139
0,0344774875355499
0,038886978924169
0,0347934081023921
0,0368746998210231
0,0348378157209341
0,0417143321501755
0,0406406955362862
0,0411434451142624
0,037941305955
0,0378310399955014
0,0343732669651988
0,0465828281827115
0,0314348502020911
0,0436834997844674
0,0342665858329153
0,0373381496534227
0,0340552296807249
0,0404540238481718
0,0313826193490412
0,0402122745807736
0,0386173655394404
0,0354705436058757
0,0405012399755586
0,0349800831977345
0,0392975085740939
0,0390493198860151
0,0378760462396007
0,0360289039079449
0,0362736441034769
0,0382727985466558
0,0375577632854765
0,0383465013550859
0,0339581949229206
0,0398088016583799
0,0320242564341089
0,041215785839541
0,0400450517716029
0,0383541251461616
0,0340798918080016
0,0415894094733601
0,0356631178910617
0,0416755362412835
0,0453599008415006
0,0307694774409611
0,0411476489951726
0,0338700910610924
0,0397921152189177
0,0361410274386234
0,0374096114786407
0,0367969441883066
0,0395357857817103
0,0341228209856099
0,0387809052713611
0,0380589163964752
0,0376452961730761
0,0368943409337446
0,0371526949119686
0,038970656139313
0,0372794990839659
0,0363815117544402
0,0336719151112318
0,0408096340753399
0,0348665185749899
0,0400976778372404
0,0379797758377007
0,0442443001792034
0,0424333344568852
0,0396683979341177
0,0384412201008721
0,036777859838081
0,0356630489751363
0,0363273274236907
0,039100077500248
0,0359167526381155
0,0384635044799354
0,0372333915420114
0,0360510478942603
0,0362867980857233
0,0399362814066936
0,0374609242113852
0,0410571335058204
0,0360036312904173
0,041863008439168
0,0365914076071999
0,0424119165975743
0,0339779162791912
0,0440074854225527
0,0331072415878794
0,0441948751858481
0,0317707389092279
0,0560418169596309
0,035094424240386
0,0393213649590511
0,0439269489573218
0,0364621874188773
0,0403613530063187
0,0349578798181644
0,0402628829745582
0,0418040604629336
0,0398377233256066
0,0402453099812119
0,0390518392393449
0,0399657857220556
0,0398101944905269
0,0383352345227188
0,0396103956178901
0,0463599759264611
0,0349396611359419
0,0435404929861759
0,0388628748465472
0,0428785208706099
0,0456923035178215
0,0339493586806525
0,0466831734837856
0,0398778716739015
0,040788181242213
0,038065018293684
0,040795396643883
0,0393447205589972
0,0446279960217252
0,0395187506473417
0,0410998881676987
0,0423132524008586
0,0401174286263012
0,0464679314793446
0,0381942615317403
0,0458145337180305
0,0466719372078415
0,0393835374838574
0,0470622488893934
0,0417082502367128
0,04498749870173
0,0447836619491327
0,0444293356935251
0,0415733941299434
0,0449828529877697
0,0486689431648056
0,0393870920566927
0,0472123995606579
0,0454041253326642
0,0433934623969071
0,0472308572002103
0,0418391336454906
0,0479622781277446
0,0411262248065415
0,04997523060026
0,048767715698122
0,0369949148832454
0,0575506151604513
0,0382142380186225
0,0522321442686831
0,0387184690742674
0,0512974473652948
0,036534712192349
0,0560520644674476
0,0382421385989364
0,0527612482344401
0,0436554928551377
0,055575792386595
0,0465171101287646
0,0488224471660534
0,049446703988881
0,0509326419938126
0,0461128198482968
0,0524797322076629
0,0510951508909088
0,0467090215797618
0,0645204896634295
0,0504529498822568
0,0572945087522386
0,0514629196596302
0,045099190270965
0,0687585610901609
0,0436138101186854
0,0513581543867739
0,048830730511884
0,0558181823465554
0,0509304178917748
0,0532837028464587
0,0642855637251869
0,052170469701594
0,052508276938007
0,0595111699473875
0,0467254993463065
0,0674068262344179
0,0511590127597388
0,0577021465837794
0,0551753667868819
0,0642368630465802
0,0530883426061307
0,0763771415404539
0,058857336811226
0,0605418135839384
0,0718722493423649
0,0585790697742683
0,0700994930626255
0,0607370332184154
0,0694805070126951
0,0617029686223688
0,0684053001349316
0,0615582892031201
0,0680951331532248
0,0672873608807767
0,0782323295865548
0,0595362802364741
0,0771661031106973
0,0635571750608116
0,0757764343601514
0,071404925916328
0,0883887086143911
0,0663403413791347
0,0730288973099012
0,0689117411147711
0,0818293702768414
0,0669284102024244
0,0758996200832009
0,0728806220002189
0,0762387264610716
0,0768161474192527
0,0787582414978044
0,0843506277695576
0,0785331940474458
0,0801842898121856
0,0845334049763534
0,0811665393154157
0,0959974190460748
0,0827744022525062
0,0960232777537612
0,0814117393832975
0,104067706712819
0,0831288125251922
0,090673270110179
0,0882145106036356
0,0900215398123932
0,0945090171715032
0,0890028788143455
0,094359641291573
0,094645373091269
0,103953091114804
0,100729154782817
0,0937572074162439
0,108824110758055
0,0904845891334544
0,119713326723693
0,0917202267994341
0,216480785330872
0,110355099367232
0,123748008804434
0,121665877793447
0,129798808248229
0,145058040102134
0,124859309719933
0,135032189685656
0,138826366257273
0,13832421427803
0,147987832484941
0,153983852646937
0,154657817649734
0,15931246898985
0,1644007190484
0,167833703647123
0,184698882219286
0,185110991596142
0,190972873386098
0,186212238993275
0,187285654885301
0,203191863776508
0,207403420625153
0,205600457506284
0,211095097305104
0,217032893214661
0,219750999991153
0,255623252452902
0,224410677147163
0,244606134839823
0,235409187522033
0,260850789051957
0,24476027390871
0,276518344042473
0,271656556084254
0,265363176625836
0,277677122577693
0,274246148253774
0,290676995482732
0,281472462218804
0,318496040219158
0,300042288972466
0,302052847896293
0,307195971094292
0,313493248410748
0,319789156424553
0,314593939859132
0,324775065664477
0,323853756746008
0,346787849437083
0,35079402577721
0,355282748415135
0,343837095189401
0,327090253607727
0,340911842787899
0,319601335877036
0,362734896738378
0,346998823791907
0,356903919039032
0,339974485978037
0,325991869841921
0,340128595393476
0,34014579955765
0,343614425402421
0,34010237264793
0,348250858852001
0,333722948967408
0,345941215463675
0,343611731666978
0,333731830351788
0,361141980009789
0,325107252146438
0,337172283752661
0,330688134754106
0,343482849046022
0,331267134320698
0,341397141039814
0,318786565065668
0,337152887332462
0,313586544445557
0,324747822243392
0,321039540979237
0,334951738562955
0,314388695272213
0,307335345485385
0,306395857255625
0,306903437343506
0,296411024072678
0,300818757320801
0,300528352804717
0,31330901129333
0,28158798532379
0,289628275369802
0,283501140049063
0,285990476919846
0,278892771682559
0,279263639590822
0,269287667245386
0,278223076262916
0,264987603199215
0,272248341978854
0,261100620700103
0,265250556011686
0,260065119698338
0,268099347841566
0,262671444648736
0,25819987426393
0,261369610506172
0,255007818212207
0,256377925323145
0,254059180161745
0,249929341999651
0,256409948615956
0,253890517499743
0,253971469547012
0,245813993934398
0,251887881342241
0,251612227474287
0,25128904373073
0,251579337555087
0,251124951994044
0,250128697705388
0,246734013954097
0,251786120325942
0,250281320097464
0,246211268268345
0,245968135482761
0,247000760392144
0,243970082519451
0,247244471295254
0,244255130829809
0,246015947638098
0,241136570514072
0,249686366206759
0,255327268624009
0,231332934621832
0,244225754554439
0,238092757913216
0,243759773098981
0,23667657403352
0,250939086495847
0,243541327493161
0,236163074723348
0,237262956336371
0,234145575154861
0,227984510591915
0,239849356111806
0,226821802437717
0,234460129739091
0,225744476546545
0,232108100841404
0,266472718025122
0,215088575306298
0,246347397474681
0,22349550704952
0,235226040480595
0,225919490366181
0,244508184081058
0,222423902676655
0,22885810286298
0,229150734527742
0,226872895234678
0,234992953041308
0,220483648734823
0,232648697545428
0,225783877138087
0,229842889432665
0,233338322729606
0,230067693044228
0,234661311047366
0,238466517484726
0,224400644174838
0,253847725594943
0,2416032322464
0,219786644687459
0,212165748243742
0,212293928795364
0,224005459103002
0,214191154712602
0,214712841105998
0,209722786491658
0,20774753400771
0,210955898505131
0,196629654788202
0,209230259912167
0,197166666437749
0,211198446864119
0,192856904771284
0,210820772260308
0,195276590656246
0,198994173431334
0,211812733485207
0,20037065804198
0,209034613879151
0,191604543078993
0,197630914848946
0,198427696793136
0,205588228146088
0,188172236259481
0,186836769279554
0,189227806391738
0,187268281748474
0,188668500700362
0,182058408044456
0,18012336130881
0,187956236419499
0,184023646972983
0,216669673547422
0,186961358328627
0,182288994678505
0,180527874627737
0,174410393829539
0,174202935423386
0,174369505744883
0,172453382315945
0,179392351823037
0,166615142209502
0,186537365473875
0,165999379815697
0,192174482068154
0,173756897728735
0,177280985109413
0,177097233231992
0,182792633564035
0,183634472616928
0,19990159257885
0,186357108424115
0,191855985538272
0,180980064039364
0,199163677234518
0,185484947303851
0,196203859547947
0,193906101486473
0,202105774478155
0,201499066175568
0,206089153603137
0,209631102907215
0,217293593446545
0,219406696868979
0,229918563764104
0,217273952640405
0,242040103467855
0,229742415406007
0,252856589830133
0,265505133371233
0,249659630068605
0,264145266898425
0,256242785337378
0,26871364371343
0,273421577033559
0,277671922940304
0,283950910645899
0,279333535688349
0,298207874815338
0,291888564609521
0,295113385392449
0,298059093632897
0,304996623741024
0,309059548582622
0,31441715975377
0,335332086250911
0,298028015849479
0,339006505089695
0,312109421731532
0,322412063737848
0,323225339281832
0,327669822100634
0,333268466446434
0,324893478365036
0,332511396269962
0,337274023311105
0,343975009066626
0,338021584767531
0,335735360337817
0,338179840689683
0,335785869379357
0,340875540177701
0,344580184463806
0,346684335854953
0,347234004999502
0,346534152554009
0,351720239601833
0,356640565762843
0,366377028792743
0,362823156115906
0,35485303088804
0,36671379431581
0,365464886389224
0,371244333379278
0,370141777737756
0,380875475892593
0,37957684199745
0,374866556591368
0,38090868151814
0,380236188589366
0,387171398621648
0,386511814187334
0,383147984139478
0,396491649582312
0,390457605719444
0,40844336179644
0,37649464406761
0,428124670098905
0,400068017431442
0,407339161403228
0,405972416187696
0,40668455464216
0,415880818744861
0,411572162196576
0,409038718507868
0,415353229147344
0,411995009337492
0,407733175581171
0,419166260915475
0,411682101045912
0,41661438129791
0,414241137875306
0,411168053104089
0,417999009912766
0,410810535376487
0,411086458836725
0,411552373425931
0,419045087799577
0,403991099254837
0,415790907588252
0,405894869786776
0,406933882339814
0,408502661917905
0,411988254270451
0,41152042464319
0,412907035747302
0,404936930636649
0,412314230069828
0,405897573062761
0,413360667092399
0,404196926064447
0,422230201204012
0,417947469402676
0,416512324485558
0,417534472209126
0,41835871330715
0,421985311802974
0,426729068748769
0,428916547078907
0,425713323850579
0,433838782918091
0,434714942245781
0,437490506173813
0,435119388042459
0,437799580126101
0,43984190605757
0,442167281271262
0,44359105401882
0,434591957630367
0,438833071669319
0,436060583339869
0,437920141911565
0,4319136473981
0,439742018089731
0,434401784570112
0,428621988758949
0,439544639196924
0,43059290755727
0,424559767553958
0,41772228705324
0,423629010249549
0,414210674534096
0,42032055530334
0,40922524603412
0,408594475353364
0,406054002747251
0,40954069593574
0,406714989372634
0,402746110424274
0,398789556808153
0,402007400904956
0,395693369774826
0,401035266648013
0,40141962321596
0,397597170838901
0,394959929413679
0,39093132722899
0,391329186919505
0,394614977516267
0,388267153353074
0,399863047197164
0,398494484951266
0,40017304375855
0,391778013746328
0,401120511317031
0,394954357405113
0,39795368375446
0,394901888412118
0,393076537645483
0,390993159623682
0,385847090185637
0,390716837031165
0,387526074418604
0,387741651207949
0,386767731863918
0,385106713885243
0,385128024525394
0,387154308352522
0,382566243969364
0,383181991661137
0,383549049377156
0,382380960089403
0,377658330137342
0,385315827472252
0,380261744201028
0,378377348595111
0,379321723958836
0,378711400770102
0,380960883091365
0,377141627911344
0,380813975668938
0,377159557499384
0,373363306195519
0,374402280282849
0,373273014155398
0,373232411466709
0,372699299607802
0,373446495326775
0,371216396179987
0,370815786961706
0,371026002612631
0,371569752337707
0,366222476389936
0,364469637085237
0,365285394257313
0,35726415297975
0,359289828764641
0,357910923540584
0,354593812153212
0,348150050907046
0,346966313516991
0,342242215036181
0,343472196347147
0,339655499398495
0,333582997288543
0,333606803923942
0,332348633312761
0,330111322689198
0,331510337476652
0,327483573420335
0,326421975963111
0,3262614644871
0,321959571525832
0,321614786313008
0,322058562930317
0,322862212223751
0,318652560529599
0,319291882026472
0,31803022788345
0,321819386113134
0,31868823856852
0,319050201222387
0,319645730345119
0,323444416653955
0,326535101825612
0,325840168312824
0,325854828755189
0,326298944962993
0,326524258218588
0,327413146006866
0,330825509549452
0,32694628343684
0,33428159205825
0,33316170168964
0,333803602586792
0,335028118003368
0,335967302855457
0,335768700625353
0,337661136003425
0,337433133282569
0,339313657875895
0,33912917806222
0,339386136623829
0,339565331800967
0,339668312204987
0,337273346829988
0,336243044300041
0,337046823664878
0,33067753278511
0,332990765111919
0,336876275993101
0,333414762952977
0,331315273903714
0,331758933117029
0,333510401360962
0,332295550589943
0,328822416745404
0,331200773400992
0,326751672619682
0,328030670522642
0,32542261098098
0,322141230259265
0,325544107442018
0,324677599858144
0,323538190078313
0,320479902003144
0,317987881709572
0,319180531905048
0,317503440043468
0,317785753404069
0,313618207494273
0,312913744363718
0,311846428492754
0,30998710585311
0,311953531527707
0,309175149120924
0,304070862678063
0,30481180695057
0,301941200821354
0,299834290527846
0,299165714987089
0,295416551609916
0,29710063901065
0,29016371459431
0,290773939118506
0,287416960052299
0,286817170958782
0,285664580503527
0,282146203169177
0,279895335307841
0,278099295718881
0,275984927193033
0,276286858533591
0,275715946687369
0,273762780359592
0,274594978524155
0,274277060169356
0,270370356307025
0,274990931676385
0,27110511913169
0,270691806093078
0,268750236744717
0,266582793463296
0,265708168313973
0,264376586099876
0,262873933653542
0,260836840991682
0,258079368179072
0,254857455064784
0,252449141178551
0,247276075230982
0,244317025953379
0,243327491851402
0,237951990517793
0,235792046221852
0,232850102023583
0,229888671316152
0,22807544217067
0,229276820844443
0,229777378443945
0,230188660080204
0,234977182695142
0,236656073938507
0,242722499303165
0,247788481702105
0,253332437530514
0,260682145921205
0,269075376198883
0,277807039071381
0,288173084786513
0,300161913215743
0,308241088522643
0,323070573631064
0,337121124275959
0,347962928075546
0,36204847072184
0,372019985157315
0,385388135213855
0,39866284594949
0,413940929052507
0,425460492725474
0,441235934096562
0,459813266846011
0,471984019855909
0,483738262666435
0,502607664733554
0,516101192945518
0,524528050426001
0,545057780128675
0,559320912135713
0,568629694589211
0,579636977229193
0,59129894899338
0,597691558144191
0,605531752470763
0,60821882207102
0,614552868882117
0,617251860801677
0,617067860485169
0,614424104232778
0,621226320690878
0,617497213546173
0,616390956027828
0,613908579454613
0,609438146720934
0,60629362026491
0,605806606917733
0,597227889416394
0,599932034175085
0,592742408649026
0,594111594626938
0,595423356601359
0,596472618047031
0,59525283467574
0,597733082293558
0,598425955076396
0,605274502648466
0,600599047517147
0,611799049032195
0,618157384697133
0,625415406033345
0,619237948837714
0,629445718459793
0,637365108977791
0,64741983703393
0,657228951293455
0,665663550614861
0,672347381910954
0,679197898752155
0,679922292981738
0,684473877368742
0,69265709048593
0,698010024668318
0,695279446112298
0,706553205090109
0,702104369897371
0,710675627877462
0,708515661955135
0,710348527008428
0,704595589518737
0,704245427697266
0,714127435467758
0,709651640188263
0,710799757066278
0,714438677557602
0,717751854139308
0,725585462693817
0,732660585641804
0,737446097849748
0,743957546730542
0,751888813243244
0,76034151193662
0,776099862111423
0,767183132603033
0,78365423974292
0,792209052129438
0,797230427472752
0,795875044580067
0,821706421049288
0,819537950591363
0,83965745494214
0,836355283439565
0,85671543963379
0,869330525625085
0,891077436470013
0,904916215654131
0,926516583369417
0,951751722551902
0,962828383897925
0,997787519097641
1,00532778077524
1,03403664369462
1,04876211673048
1,04777830398302
1,08714676009715
1,08896899351204
1,10224593188271
1,13454604379394
1,12163808003712
1,12790620020216
1,14070832927472
1,14239976561592
1,15454640267141
1,14055435662549
1,14116059874672
1,14455566078208
1,13556329942026
1,13238248302311
1,13985777973298
1,13157964976824
1,13673671624173
1,15000471899267
1,14915780292919
1,14930735993407
1,14868804559057
1,16041409815956
1,15714224222962
1,17670496057951
1,17456098043419
1,21645269880345
1,19359704479585
1,21003514923291
1,22353280386868
1,23551374379207
1,25198655669075
1,25126956666702
1,26189314170167
1,31905889515364
1,34057780192364
1,33587022196029
1,33886498446946
1,41342090357649
1,39320326151707
1,37674382744708
1,39857774889154
1,44318039537638
1,44066984333506
1,43437960263813
1,50030085139139
1,48777474654306
1,51548361988423
1,49339600885579
1,50304377050876
1,56609761870539
1,56869542317149
1,57442760621634
1,62005734495454
1,61646488804721
1,67462951946719
1,64623705683792
1,69991631405933
1,66281702630945
1,71054285420632
1,68049410201127
1,65304813830546
1,73002497675102
1,6817611663052
1,69575864933307
1,72128788208822
1,60733851295178
1,67309747324124
1,83635793209482
1,69817806915452
1,65581917202563
1,6650583173953
1,59059151046099
1,65630132897747
1,62417831200223
1,56671086787751
1,5467618732104
1,50573629558557
1,52112795945694
1,41755486911142
1,43976859532568
1,39319500644478
1,4557237446683
1,37756839097072
1,40392111141496
1,39913353720863
1,38601036673772
1,34039911411367
1,34334804020518
1,29414908687124
1,30126137795005
1,27790152133296
1,28853425640186
1,24677379766042
1,25523711693332
1,21967222392948
1,18610823573427
1,17692219843
1,15441050255933
1,11463191775235
1,08348973034601
1,04167154766859
1,01238646498324
0,959878838098038
0,933337622576559
0,885236927496622
0,830285040990652
0,798277076484665
0,761365895721634
0,715760975796143
0,669121565275296
0,651965813491178
0,60720593781339
0,579063857641317
0,554636917442132
0,529393749800234
0,501169209580124
0,477944853913923
0,462400268571283
0,443057594326733
0,426900826635078
0,41230193288329
0,396668081577905
0,384186646024284
0,373425699787805
0,363691616006791
0,361655983842173
0,355358850832666
0,348035101772466
0,341435942188118
0,343914524032344
0,337333467034772
0,333148297081994
0,328240514619803
0,329311104712677
0,330714953007082
0,332213268846207
0,336459071529319
0,338256007947258
0,340375645826
0,340521300874944
0,341479533278991
0,344617348579674
0,349607344425524
0,349831476334972
0,354509001615488
0,349953293806275
0,351281636008976
0,352962707229288
0,357845373731895
0,355090619686816
0,356167200361276
0,358568537987602
0,350262349942516
0,354595388303565
0,357536701796708
0,358782531788975
0,355816044546581
0,354941824090702
0,360488064832491
0,362625330279699
0,360995771567785
0,364647770006415
0,355438471911694
0,36545202639845
0,363007651319135
0,363154095068562
0,361147828367986
0,3659502368543
0,358807316581424
0,365896328363985
0,35998804187304
0,364573143296257
0,353766885837921
0,360271286281818
0,35863716277878
0,354675338388942
0,351562376417471
0,356506699872418
0,345777955496388
0,351162654758571
0,350209784291529
0,357765592728524
0,358103673760571
0,360192893198189
0,358184278065318
0,364406011992277
0,367170025229011
0,365110658254266
0,376805425445016
0,376530755045884
0,393212035422656
0,400756285538701
0,399328296489304
0,413067492680904
0,415548554513687
0,423409623269206
0,418233973420527
0,424256634196047
0,429528285470176
0,422095693328253
0,431057313302421
0,417886822206922
0,410130212661917
0,402228272126372
0,392634688309347
0,392467443635909
0,382784713161935
0,382342589152484
0,371224155656184
0,370601071981223
0,365329591262802
0,375982425423018
0,370671685261853
0,373058184097792
0,373995381261875
0,368865041239675
0,372414775729857
0,38098334192944
0,372484666822269
0,371325144717748
0,368024748375323
0,377459301573296
0,36575144817708
0,370221301612706
0,368055058870423
0,370590985176994
0,368301842730353
0,368983655611109
0,368566595261404
0,366059025565582
0,360479464497612
0,362261350075479
0,358479056549789
0,355404554417052
0,358140792293244
0,36197300718877
0,359221223117513
0,369512912358232
0,354464856235506
0,353889181191073
0,347644272924872
0,355440040538566
0,353555862983888
0,352839761749163
0,357847906056621
0,339285695202663
0,340441448483243
0,34549377793033
0,350054210762094
0,336529181642593
0,341448784993806
0,347127388839184
0,342236083672751
0,336375166727657
0,336127539238758
0,337275076208267
0,319681750738015
0,321954742694522
0,319479442992503
0,32568134615519
0,320532000732049
0,313410172654365
0,298121516704776
0,311487537812855
0,309307010650132
0,308193451886141
0,311114263724658
0,305199135615989
0,295333097397666
0,304195928774787
0,298039220440067
0,302357530512948
0,300683387368187
0,301146577478109
0,305708752493253
0,309094940125226
0,302635235891994
0,300156657362477
0,302416445052963
0,312071783827802
0,303816126458731
0,313559981807171
0,308759392911886
0,322587614127335
0,320493032831553
0,324645028088627
0,323259833675978
0,329193464863082
0,312361532082782
0,321189486783821
0,329203507872999
0,335057608667352
0,324508929373043
0,343118124365961
0,346481841092654
0,348571378662377
0,363215711600605
0,355006181576337
0,361210001588954
0,377711693804613
0,380040941857253
0,392154771113696
0,385489803694291
0,417027640648427
0,437738841930505
0,442868356279182
0,461823281450538
0,437146444975801
0,441507309608842
0,47155652682807
0,477304430895297
0,510712465655659
0,506083190440795
0,510026944321644
0,516211220880304
0,520591551468374
0,503277090386936
0,539472597973307
0,494839446490967
0,516097186482631
0,507433428406158
0,507466957219934
0,508650782694335
0,527536964112984
0,504010530280141
0,51173113720746
0,503859521893029
0,535117919147892
0,507535422597106
0,495230222654194
0,509500469941395
0,52264383727016
0,521579009128624
0,521153232381323
0,524120000400742
0,520350433260567
0,483805864683601
0,530586321696898
0,512635125004655
0,514218974721832
0,500855767470119
0,501949045176277
0,506293036522009
0,502592707136043
0,500898461498311
0,480602581561696
0,465018718187859
0,475545225792783
0,470529211737106
0,491523403838484
0,467704824023557
0,487841226798962
0,48804100656634
0,482484497395458
0,481204534137491
0,456941481409817
0,465586045488614
0,507721059663814
0,450876144976674
0,461408372936321
0,495299067215598
0,476667245701746
0,437719305691087
0,466852347091889
0,465373260638627
0,448381187291426
0,484206282878531
0,505698937300815
0,468226714125007
0,488416390651404
0,484560980591856
0,519865963119551
0,450735840075929
0,469450977534247
0,462720925926037
0,510550862400737
0,480691109125151
0,508209715575439
0,477698983148289
0,537164758498615
0,510873432506872
0,526641565476909
0,539491640018881
0,526392492136121
0,548215461167458
0,62900333148504
0,575518214248932
0,607988045932943
0,563967776734345
0,608484589352968
0,580321667979127
0,632719468639107
0,582340304180609
0,676897482656849
0,566570675524681
0,591510026995735
0,669811301372319
0,722778049663383
0,708302969468008
0,698969718942222
0,603502506353165
0,611487578794874
0,607446053503729
0,642577845287298
0,630313694473257
0,696425278642644
0,64210401253778
0,621329881489113
0,623659850477311
0,625831954865888
0,630711964628652
0,609167109088325
0,619943239676862
0,658949425156584
0,519799131571351
0,587352568783285
0,589087199553104
0,646173906235425
0,613895695511577
0,729171974339723
0,585973301323527
0,59387849617792
0,578867281944197
0,565876087967446
0,579906210572987
0,664775126136685
0,572216878629392
0,626204307140356
0,567820305579222
0,75995843874983
0,525650758194574
0,571529148740807
0,494862448078861
0,562155124055511
0,735757537038203
0,658303777852774
0,771485132675952
0,812514811019357
0,516754625862443
0,750479586795862
0,630976148079008
0,824566080234861
0,703310166104303
0,818103175332275
0,480947702440482
0,588340086104723
0,562977100136139
0,583537857835587
0,587952741694439
0,832282426464992
0,609689741879201
0,94248171225021
0,893653007808805
0,777559198969263
0,572107235057678
0,517525605942821
0,416017759139676
0,554697179169186
0,53564269306978
