3596
4000,36533379555
650,420452594757
1
2
2
0,0551356385528592
0,0464327215925716
0,0483374228039772
0,0373961177949945
0,0537258686350003
0,038088116705967
0,0477285531652345
0,0384707147829946
0,0442991602885283
0,0454936707329861
0,0453605359015256
0,0369505074252471
0,0432614125589576
0,0351579425747326
0,0451513408727418
0,0307968408120217
0,0465414522257939
0,0458309595093184
0,0537379651232915
0,0434752307478608
0,0445753497527334
0,0389082494300339
0,0481759373400566
0,0359858898701529
0,0532351161245645
0,0445350826845998
0,0504483418706106
0,0401097722939953
0,0404296803949865
0,0404879188538008
0,0439663461313589
0,0408002204675686
0,0482050656291353
0,0314970197158349
0,0443782995479303
0,037038793225533
0,0433078276150564
0,0445104532261585
0,0477570684363355
0,0363689679121103
0,0505267798039536
0,0422410781541827
0,0471445826296038
0,0342174153542666
0,0550289451376889
0,0352701907400598
0,0524880367856793
0,0337923739489879
0,0445026413955893
0,0386813618886191
0,0446539716705974
0,0235469360547117
0,0530698590760605
0,0319930717386338
0,0523063666763401
0,0436673139125048
0,0475603084422117
0,0326574250840585
0,0489248258062987
0,0367796632311592
0,0508635650784697
0,0229681200440793
0,0429824650791534
0,0347135891626104
0,0362405539210561
0,0393847650752091
0,0430986770961824
0,0413247210206662
0,0417464398984922
0,0419473922909006
0,0367108298122841
0,0466026952253905
0,0439925872429809
0,0308152584655215
0,0358763568175261
0,0315993766930858
0,0488070840370974
0,0378199281674121
0,0449631604038418
0,0428205064961085
0,0386579965390444
0,0451148105847991
0,0412279859731861
0,0342103086341232
0,0505318418613545
0,0316057214323186
0,0335412743993131
0,0468698400550831
0,0403369751255363
0,0340895652535278
0,0370894040161328
0,0436078146594511
0,0351991365505184
0,0377528950822
0,0293010395889035
0,0345595745337738
0,0332277240998844
0,0331292445042279
0,033016335004668
0,0474166793267858
0,0367132834865537
0,0215634872138168
0,0533300492306921
0,0145518248392533
0,0844901084466829
0,00899651188144459
0,0592627231400214
0,0344772953574327
0,0309197763894246
0,0324471857054625
0,0320913222933886
0,0384412745865048
0,0346870454960837
0,0357855222115583
0,0308444934715537
0,0541190345803997
0,0260938409029802
0,0342286189471958
0,0353182293651946
0,0300703751385305
0,0329477816470367
0,0615216014344432
0,0316803536227806
0,0303148635348696
0,0425839669225703
0,0227387554485716
0,0421793190762745
0,0431126746644008
0,0221399960259376
0,0226016895634181
0,0440439198652898
0,0268713905377623
0,0380771030908694
0,0271218690887436
0,0527308968238369
0,0143383020048453
0,0522479510999882
0,0228794486392152
0,0423874545217925
0,0242602370107192
0,0207598900691158
0,0304819663467561
0,0358283731496295
0,0314878525892534
0,0479249742849615
0,0264423904630154
0,0285113474166473
0,034613656451023
0,0364701814877387
0,0286270952698247
0,0413554201410611
0,0252853132045366
0,0485404581937626
0,0235492883582393
0,0450381521091617
0,0571281140481781
0,0462106835216127
-0,00778739629267306
0,0551512330275662
0,00936109749783052
0,0550901637655947
0,0169574655269866
0,0366135067048618
0,0287183144268735
0,0463120530483353
0,0178059738748953
0,0492178917791962
0,0433092277698202
0,0327245068142994
0,0466836057441619
0,0390953079911343
0,0340719439778498
0,0419246257469618
0,0368077361125089
0,0277350114902193
0,0225691044192172
0,0383230001772729
0,0191148473982255
0,0373024200204472
0,0303782809641671
0,0465560702186056
0,0238875264748923
0,0478418997658568
0,0273512546920122
0,0473777696214522
0,0198876278968375
0,0351942699698874
0,0228558240903501
0,0374655678487907
0,0370375113668259
0,0706939497433954
0,0141334005464736
0,0510023664159797
0,0198611932265997
0,0412470892882212
0,0219642325911669
0,0721470786073358
0,0121104144289787
0,0359492509989794
0,0243947374088484
0,0291582877888689
0,0290728775775479
0,0394774112088112
0,0242057108781383
0,0450475197006068
0,0202556720159185
0,058930118876659
0,0165301306229055
0,0395047710660117
0,0286269337876319
0,0535036183046065
0,0185701511151172
0,0571369840299208
0,0237568277437144
0,0382968388533117
0,0383500266179681
0,0348321359840101
0,0331187287550915
0,0422590311560192
0,0217485405964281
0,0357563410376652
0,0274406441349531
0,039525382952483
0,0301981604420424
0,039535114441646
0,0333292669676075
0,0399574441062707
0,0365531772597305
0,0463595898149044
0,029930628519321
0,0410565115388795
0,0258337565134524
0,0373084681299085
0,0326863598799525
0,0369205661777168
0,0292916057054244
0,0507376012458721
0,028537532648929
0,0501987223774251
0,0259696345366584
0,0397169586230663
0,0262679145408613
0,0449931792107777
0,0293163730950749
0,0552484914416542
0,019056626109692
0,0555499149476586
0,0132692457770932
0,0423619410521526
0,0291540506842309
0,0590567412361641
0,0216381137040651
0,0413936497792974
0,0279596022403394
0,0399453385651944
0,0365849327933117
0,0501408057933603
0,0405110599949472
0,0410668933658354
0,0387298697740148
0,0428840034424871
0,0268868388127991
0,0364049622037312
0,048523025004763
0,0454021736006476
0,0433327989699481
0,0457471182240744
0,0399830885287707
0,0677822945206685
0,0197054756793522
0,0423140051828373
0,039525817449632
0,0659655739512575
0,0514806651233943
0,041039757163481
0,0397729491818558
0,0400123835126823
0,0348153885041415
0,0401843780766371
0,0378991846285169
0,0510275162427088
0,0278743652489533
0,0850547809289868
0,0327177740690966
0,0721657007348769
0,0182608428994488
0,0644616852594837
0,0347771616984138
0,0359711860390376
0,0345750503897943
0,0457740500524022
0,0441077918112778
0,0543514216067517
0,0474232743395856
0,0432694402945656
0,0472957261049915
0,0421458532828347
0,0541005263154469
0,0356197003139745
0,0446302215430081
0,0425109014666136
0,0434193162274692
0,0447829774066628
0,0564737357988769
0,0479033380442847
0,045758867959791
0,0661630710315392
0,0604592664163506
0,0604612047835156
0,0515277134349812
0,0514801170434949
0,0518085822409286
0,0465502466164552
0,0499176242508327
0,0494372042515272
0,0492280894695046
0,0490637940216703
0,047032724224902
0,0484148130646993
0,0593138899920355
0,0544464689234316
0,0533514460756258
0,0590607389287391
0,0524009799972635
0,0577036057097382
0,0509418465154024
0,0639476174266668
0,0523021871038716
0,0595533977641403
0,0673239552740389
0,0623403500476157
0,0611734683101179
0,0713403507484169
0,0639614662746992
0,0661834129296394
0,0528496741532239
0,0724821138070079
0,0640489673641738
0,0756953107132559
0,0604031260995044
0,0681372461825644
0,0645921479849961
0,0717252639484138
0,0642647059626501
0,0728586028191236
0,0637879807458814
0,0976913846418701
0,0445400169345171
0,0758542972153624
0,0547808348554875
0,0822821242878657
0,0832075709521992
0,0783939596716428
0,10152161823079
0,071707606498138
0,0864520603440895
0,0843079184360229
0,0874419003538311
0,083769003413055
0,088946807627915
0,0867803931730683
0,0878939536092934
0,0952177039521341
0,0883323877907282
0,101150197810901
0,0949627905007202
0,110980873848038
0,0967924250864642
0,116508103829566
0,103687399718251
0,0988078224715054
0,103596868498627
0,122689806032799
0,120897160187953
0,159790425722735
0,0968319146342371
0,144965955341762
0,0956823564005701
0,13964097816053
0,103962877252501
0,132738911192281
0,12221534926154
0,145240322222
0,133292434253609
0,144380578721402
0,13448817058278
0,148738331949783
0,139959053002292
0,149741465445045
0,14550761692947
0,165600553168809
0,147093478042843
0,173295671364789
0,15531441706723
0,16956221939411
0,17735572049763
0,194743832524214
0,167800479263145
0,164830785014874
0,166998962188903
0,172039343945744
0,187834092260177
0,176579072478723
0,184884295683548
0,191326473591653
0,199930034300507
0,199341986625101
0,180474632134828
0,23031914124351
0,200176430061155
0,208446853854432
0,196099922884727
0,21792982465488
0,231290004857894
0,229353454984467
0,228138958869066
0,222693483130397
0,229873233555402
0,234141136937226
0,243475108371834
0,246887900287275
0,246387317506583
0,23346144752433
0,236417712479186
0,253892156051283
0,26007482167668
0,272609247273022
0,258187009066293
0,270874625701137
0,272071247685463
0,273151198773657
0,273061421012673
0,293698052388093
0,256911066002728
0,299968611567304
0,273637004077163
0,297238256893095
0,294815120443303
0,309692861148782
0,311080665809214
0,309125488683026
0,320454459848927
0,316426964975539
0,317235908552883
0,324192607264726
0,323889956283894
0,33676797133912
0,334314672490856
0,335116546798788
0,337900741613634
0,342709305995793
0,35246594912898
0,379512433520514
0,349251517065867
0,355655256671256
0,357042533696917
0,366813064183448
0,366011776711655
0,386919058987112
0,387584940466553
0,404195054263666
0,406271628035077
0,414307862028239
0,426623748926367
0,408203317257469
0,423379894587136
0,398441310271088
0,396334994636513
0,429910129436523
0,412887052410514
0,436589494225642
0,439627304036388
0,449188126060372
0,44281163817962
0,463322133174976
0,459546548232062
0,454569523776139
0,447537372553331
0,486492811067547
0,466432950175155
0,471431128283981
0,500165826192354
0,49576944438241
0,497447565536113
0,537636007224024
0,499319648919166
0,502640971425395
0,481914709477601
0,523295502434982
0,502873677426725
0,505964663575221
0,516531380255347
0,527531828411671
0,530961445381412
0,535188272982222
0,552968108245868
0,547180473828039
0,5514084435253
0,583945944386436
0,55995097199186
0,577451623745164
0,579611562965526
0,570387120455916
0,593647719354919
0,563521261404828
0,598923782848009
0,620385328310852
0,596071631361563
0,597277885736404
0,616912691747371
0,64464381412662
0,616996327214588
0,629763692171998
0,620395709702213
0,618036350494695
0,668076147139613
0,649712632092417
0,626904006289615
0,646415838327318
0,617047545348485
0,647708418214831
0,704591659561326
0,673321703848719
0,669062310183136
0,682387673436785
0,67126951872172
0,72070113773724
0,695743950515922
0,69955503171429
0,684976651264802
0,691382827070343
0,725864063109127
0,707806221887479
0,730770146491872
0,714682114963686
0,731834513190385
0,746345990108248
0,73772947471189
0,745754163158826
0,786899427671668
0,786474405263735
0,745663806264401
0,773336083539803
0,807416324248058
0,812976234075597
0,799233719242762
0,79000824723262
0,752367706855797
0,787342333950993
0,786933580880408
0,802632399189846
0,846176926619532
0,807146054158258
0,840619040218281
0,833723777339419
0,804167583445744
0,829851315268361
0,857218324407093
0,832182919681364
0,843399853143238
0,87263635640052
0,883644584666404
0,854771651995543
0,869276565271329
0,900777145558245
0,867500597435084
0,818046953633056
0,848054402445372
0,837859506042483
0,866188997575141
0,928181519905344
0,953414431368416
0,902552759092422
0,91133903565911
0,916397925332098
0,991500070443731
0,936976236634984
0,903654652023868
0,939659944570902
0,995015756046322
0,912437850173537
0,969311377635808
0,970960622331801
0,984345288583356
0,99735845460185
1,01338489832136
0,960445004218246
1,02662755136753
1,04843842620114
1,09037975495088
1,00130412402106
1,0599360045818
1,02979630341066
1,02918584102792
1,0316373382898
1,02398359138023
1,02543512295065
1,06292072781967
0,93986688732385
1,07420873138165
1,12233029726964
1,04177169060011
1,00872999460465
1,02155466093942
1,0711804067054
1,10125512373246
1,04118188427745
1,04794615724826
1,07203158754796
1,10879548537819
1,04708089082087
1,12684202975749
1,06134572961253
1,18744421684016
1,27892823381988
1,1206735332308
1,08409901230118
1,24995718862047
1,09376962864177
1,17058055019439
1,11495739804917
1,156977359864
1,14126109034006
1,21963393164702
1,16411029965635
1,18119027769001
1,13193284707412
1,29371069136616
1,11926064857495
1,09030617958192
1,05190485701476
1,18797344899661
1,15552321393901
1,19365174877412
1,11764203915393
1,27303388441336
1,16920852913751
1,17942243345304
1,26664223755546
1,24752618705668
1,1237354561749
1,24865453016462
1,21812397354223
1,21906688383627
1,16894566140872
1,37480166148804
1,22704068239466
1,22645917498753
1,15141188406585
1,28160657284771
1,25980296653335
1,27109076365873
1,16819914060509
1,30109442610606
1,35568051712959
1,39650577432041
1,26515435693717
1,32913722589666
1,29528251113055
1,35810856660828
1,24613298639572
1,36842632600463
1,26602434212296
1,37678493402591
1,23702318260563
1,34136998568936
1,28348033923569
1,41934993487782
1,35952208392862
1,33691847737287
1,23693762163657
1,44776319313002
1,38494084293025
1,31214198025386
1,20750609864633
1,3105366471788
1,29255197273477
1,30513651822294
1,37679924585402
1,62021029765415
1,26826791430984
1,37106119585656
1,36042352095877
1,58834903598441
1,33587533910598
1,47080176064275
1,33720581256027
1,34649477656607
1,32954418223063
1,43848391739861
1,41642914236464
1,44541002411257
1,2650862456181
1,41326285431873
1,34233787672679
1,4138299531605
1,35864161321889
1,48263275531644
1,32095179773133
1,36647871642237
1,2978359223255
1,38411632004782
1,29537929727962
1,38036281366787
1,36716964445964
1,405670968132
1,44757888646369
1,37789898339957
1,32809502001281
1,39855532201303
1,35289177209894
1,36218591453395
1,32423329320849
1,44361474107785
1,3689654107039
1,60186986950347
1,46649098509322
1,45594453895457
1,35558937767738
1,37014907514529
1,40182004401457
1,46279521168772
1,34482895908561
1,29894605972546
1,29676008124181
1,46893674123118
1,39077277111631
1,39256930626395
1,36426432689752
1,46306915874597
1,32949134612373
1,40635886759235
1,40425949652852
1,36647997557352
1,36126103717006
1,46366849886029
1,39166044407595
1,35149357664539
1,36543940076484
1,53202787764905
1,30472046730766
1,40133882093791
1,39997775922771
1,45021119208035
1,36455256498431
1,54367871134114
1,43265428497577
1,46996051352625
1,37950272785285
1,38098025145888
1,26249782960389
1,43993080256396
1,40398128908356
1,4145386916386
1,46056559981779
1,4391856414108
1,43811652379827
1,49711306334757
1,38188389197727
1,36208696626551
1,37413980016935
1,44693846113146
1,30194671928922
1,43352254324742
1,40788015105711
1,47013665808964
1,29269291068279
1,5668512686004
1,52750346739469
1,5090635986244
1,39963295757739
1,3821297408854
1,31554943804087
1,47547421399945
1,25682100597844
1,35010582000286
1,41482933121322
1,45288785690882
1,46022221546574
1,48465294676817
1,30067915595744
1,57710974435631
1,37818329948807
1,40944097618345
1,31894072519001
1,35262155217808
1,4072651456213
1,52492386591619
1,47007151995689
1,4900292110316
1,40992176301677
1,36084617587948
1,31469102326071
1,39878290444272
1,29658746443011
1,41968846584472
1,40729068397031
1,45560939887909
1,36621962102637
1,42755565641693
1,44081519606388
1,38306381964913
1,35909000733361
1,44435275907593
1,39519438311691
1,40241576791467
1,34824487261409
1,4312510101284
1,36097014988729
1,48828950083239
1,31825995640527
1,408713874705
1,28860454418019
1,37658737241193
1,29034314873211
1,39427751089437
1,28725905873629
1,49981337895567
1,29602697074436
1,30141527116727
1,25222899865895
1,38265060725278
1,35315200996887
1,41471824329191
1,3529966836836
1,39364134136642
1,28182315237302
1,37022839799195
1,3520634712839
1,40877306175157
1,34036979192736
1,45020472762661
1,34311663573927
1,28240071378654
1,29542417177785
1,40950811237386
1,28501573071785
1,32981219040006
1,31893950082954
1,31514724871007
1,32596658012685
1,31183532999918
1,23780663818329
1,42411064323627
1,24860235501985
1,31834158100589
1,24889041235236
1,29562599902195
1,31400555360828
1,26663527186614
1,2260797042169
1,18495437883841
1,23165735941661
1,24955267974311
1,23164822413447
1,25339435521236
1,19405767725798
1,20810824015691
1,18244991014552
1,22360474509684
1,22656731398808
1,22364195126176
1,23264706899402
1,23340920672294
1,15099578432486
1,23749117248307
1,16809567664453
1,28346263211243
1,15715893133857
1,21751741471118
1,11525601056117
1,25325251616838
1,17118811516636
1,23272475272634
1,14200698535185
1,14302186894419
1,14406274017431
1,21170330936827
1,08897679266355
1,14445242043311
1,13948243316797
1,14627304860497
1,10083608718902
1,13687719951594
1,10008842280516
1,14814767244135
1,08588381161906
1,10743019865697
1,11081699124611
1,09037256230399
1,07296999826421
1,09403684907499
1,07698026090669
1,12323248024275
1,07282169705225
1,08838427058623
1,022512158178
1,05602807303108
1,02278635176805
1,0298772628956
1,03248875614991
1,1194062767613
1,02835137566306
1,02199880334211
0,981387297938959
1,05479339633539
0,985776357765914
0,995915922876438
0,959302301405065
1,01362455585241
1,01469326422638
1,02205475534967
0,980232369099036
0,99058894510962
0,951962428674355
1,00710425340591
0,968775834857641
0,998885617819868
0,948151017133122
0,94651534299543
0,916313912862671
0,954220682287924
0,929539467951233
0,962418549272086
0,943830212770648
0,932215045194839
0,901740582993447
0,919704078299731
0,922803727481053
0,935078341940563
0,8760939534563
0,891585578343447
0,892661905514408
0,886612657851143
0,876913424538546
0,872722971445326
0,871782903557471
0,90364495113103
0,840069560304077
0,892675004174934
0,8393886457515
0,860916243178489
0,815339784795645
0,863834849876086
0,816626112597067
0,845694724128948
0,807727327392977
0,833881078806127
0,806388252230945
0,835879085907101
0,812633432223007
0,79552704413467
0,792508167850661
0,827046342284674
0,770003820872396
0,804459595981408
0,801552421169935
0,795584532231982
0,749097911274219
0,7752350594045
0,768321575246613
0,784028988362312
0,741187106709471
0,778917190616372
0,745266470263082
0,756416439441187
0,738189813438108
0,754960044967691
0,714834948448562
0,757066895047175
0,711648807827952
0,737566008341073
0,709823364998698
0,7231243222501
0,710618966754397
0,720141600049915
0,674318987219035
0,716190668080465
0,69482543531175
0,686730687958995
0,694135455402823
0,694879613827151
0,669457113194222
0,688957739401486
0,668384431223499
0,68357074272709
0,688672643298136
0,679349414537126
0,642176055781452
0,680648676809366
0,666787663293281
0,65522910026737
0,655958315544264
0,654003753308484
0,644049455875913
0,645767966565152
0,613165158305774
0,635864234123215
0,607950860139387
0,642972734453437
0,612312011509207
0,621905231541979
0,601682236439196
0,607104364071875
0,606846890790554
0,613066983566973
0,598738883922832
0,622249451138684
0,595606465283021
0,608515318917319
0,574639462644897
0,59239163895025
0,578140160590634
0,589559804130401
0,570233553231744
0,569218297891568
0,56755604958453
0,575212894691698
0,565527368845956
0,568841747333573
0,55526273190526
0,557957972960605
0,544109396898789
0,547080974902793
0,538109572826532
0,548237445691673
0,531472325428891
0,545311649597503
0,523900759056852
0,535236001577182
0,533343702260204
0,523765699471893
0,526088001254193
0,525230758822267
0,508239460457181
0,527252815173027
0,51433105730251
0,515681278172177
0,509957142173462
0,51555668655774
0,494707507688036
0,496046052022956
0,496434027908504
0,50075878183517
0,478715224206224
0,502170421883552
0,48545241339747
0,49130088839374
0,482953609847939
0,481372265737947
0,472542732415754
0,485846553600518
0,460112855040193
0,480493400196494
0,45909821389357
0,47725180341754
0,468226867430218
0,469029953264103
0,448389945622332
0,462709106644376
0,463069618944452
0,46778065427915
0,453970552885069
0,462179211177472
0,450198326836342
0,467199081997945
0,438939831040954
0,451200408780559
0,444964825716978
0,449931197948082
0,441494892534332
0,441933231977305
0,434219634612003
0,453752799938409
0,442425054727233
0,447910880495192
0,435844507420535
0,458441809436694
0,437596513658814
0,439103958974308
0,435960762422876
0,438139677775496
0,440380788243975
0,464362979066485
0,43443729256088
0,451360828918708
0,442579132424873
0,447737397541676
0,433577921610703
0,457377600506259
0,43707295733792
0,442746138348484
0,440548500440848
0,45359707968719
0,447870621982412
0,458621900902121
0,45349735251686
0,457731104012376
0,452106911804341
0,459032907765985
0,45889522694835
0,476882895744504
0,453367067575939
0,472984739993802
0,456192351659768
0,468898643358791
0,458590170713771
0,483807715422162
0,472568524377166
0,484167758456539
0,473126961820995
0,497312066555292
0,477585341475708
0,48995353066674
0,503230402511576
0,508581524169431
0,49847013896727
0,498780746609673
0,502173092028949
0,523785200241965
0,502378510712438
0,521790977448701
0,496990720486013
0,529885363102767
0,521036973790703
0,528331402187302
0,525918789225112
0,542209528698893
0,533273029954351
0,549074445072465
0,551655112975059
0,561875907715963
0,55155855779159
0,56049284126681
0,567995207064737
0,586942728452501
0,562598104685588
0,597609213474965
0,59230550300551
0,597919961746904
0,586422711592607
0,602053410358676
0,590001054354554
0,601035361775934
0,602852609166342
0,613132723057118
0,610500584915631
0,625459323304672
0,619738671130685
0,627370008127197
0,606436896326768
0,614616253879461
0,608539243643697
0,631475439289598
0,603959213965116
0,625201212962729
0,610188676861885
0,618631769934863
0,617716891580157
0,625149532531464
0,616063092446884
0,623086930473535
0,594675303732424
0,625752356320271
0,609140045764634
0,615148819482025
0,603879050060006
0,597112965956382
0,609812072303701
0,611431626649609
0,585819218635531
0,602792605579053
0,593957475672608
0,622406908503826
0,603103950382933
0,605524115587644
0,588104558269538
0,593993785651409
0,594074043911907
0,612444671808501
0,594058644256026
0,600715692708641
0,592918366876892
0,592899102231016
0,59237499836405
0,598390958171339
0,59068368586039
0,59649363274899
0,583218170035489
0,599357584661702
0,597917136506819
0,593405601325224
0,587711448345391
0,601309878913772
0,577858931707425
0,589129544343384
0,601967908569914
0,604926041578315
0,585479416706023
0,58437809132047
0,571332378778178
0,582971942079514
0,56595474365489
0,583799410115016
0,57247183645478
0,570217137397088
0,56727511311959
0,572001174754043
0,557069220368715
0,562890290451655
0,547404081539144
0,562173294049108
0,548701014178754
0,553384835892326
0,545663422746406
0,544881428480688
0,532049238212336
0,536273204076618
0,515300878499755
0,532363849693192
0,516714073158998
0,51957709830105
0,512011511658893
0,515498605811009
0,51212059246151
0,512941320684695
0,496733796166852
0,505004880621196
0,49046013689637
0,50359773056142
0,48259959276907
0,484735373371846
0,472284171360229
0,479675632113716
0,469439361933408
0,477437974387711
0,464331561200467
0,464398686422397
0,452714122207133
0,465116650230527
0,457988326853614
0,455859109984407
0,447931759802364
0,45169045933313
0,437655806533816
0,445889412846065
0,436748337126587
0,432805003623326
0,434243656309298
0,436271866092264
0,428063197953066
0,435580726888131
0,4167375219837
0,424061722796866
0,416698140418603
0,423452233847991
0,410558533488432
0,419239818753782
0,40839865292878
0,403690935306778
0,401763232846085
0,407578972697855
0,402563902107284
0,40413439546502
0,394794296317111
0,399896423030864
0,396434447592274
0,398201780961899
0,392954797384382
0,397945978051047
0,385583735905739
0,389567716806669
0,389473236100408
0,383728592511161
0,374610939554375
0,382856307224658
0,381510478898539
0,382218058670455
0,375747034450553
0,383198024413171
0,376500329598795
0,37558131946893
0,359787112429318
0,373775169762112
0,369564446959675
0,37569741939527
0,364099397221603
0,373365815371491
0,367524861553004
0,367855857031056
0,36077585517041
0,364028369496777
0,359038595681476
0,357674619623009
0,35039316273568
0,358766805608716
0,35577387907774
0,348146318401763
0,351569101185588
0,355181122857358
0,342974607431573
0,359195917543794
0,34924499916049
0,350169696751672
0,343318263181507
0,346875619770028
0,350006971461905
0,345957445061966
0,34090723737361
0,346223621578193
0,333429533491425
0,340403724582241
0,335874611296201
0,343434619529886
0,335904387659853
0,344476415003134
0,335825102701153
0,335538617968134
0,33102322052284
0,335523945982537
0,332237191670979
0,336064444334847
0,327458797955216
0,332299176801907
0,325240359006751
0,332457456522273
0,331025659154564
0,334999143406794
0,324497461519656
0,327472977189276
0,322287303261795
0,331548885484519
0,326785513206639
0,326869647676961
0,318782619296625
0,323767825158444
0,317811008059001
0,322152237714654
0,323054067096384
0,323043367768316
0,319345280036136
0,323063581158646
0,312350454352845
0,319638988333864
0,313366608036013
0,316488852980887
0,316294912272425
0,316365242414457
0,310761503818523
0,313558170114148
0,311709090813712
0,31422470434228
0,310287846760308
0,317258930062837
0,311844731506931
0,31379126827454
0,31180277186645
0,320440451571446
0,31034366058354
0,310770214340018
0,306537816744647
0,311403531079435
0,307995977509521
0,310699446418728
0,30997323340076
0,310224968168074
0,302896242950272
0,302845417966734
0,303298309430107
0,309898083013193
0,303108949039526
0,307503102080396
0,299588629490207
0,304800359972672
0,300265002279307
0,303333873255712
0,30190244904731
0,302195269859257
0,296811671559155
0,305142990207597
0,301398997868687
0,304186213201554
0,297042497610767
0,300989289451937
0,290127197919902
0,299134492484999
0,295033967990349
0,296469571515062
0,295303167077616
0,30015714050624
0,290754006458272
0,294908770946094
0,295307183260953
0,296694508147462
0,289139593385116
0,287448431229706
0,282990948803056
0,286231003947706
0,28284204717932
0,290356639656742
0,28507512940278
0,288547301351669
0,2877073728231
0,288654011160599
0,285305664283744
0,289376434383274
0,282463199635789
0,279940072744478
0,280171526742118
0,285230792911992
0,278285192509349
0,281941300695497
0,27666295981355
0,282524114343725
0,280551343495383
0,278933825112152
0,280889362325451
0,282457578922226
0,274994391765266
0,276866533057539
0,272684338048424
0,274498707015051
0,275251282079266
0,279287815171484
0,27313596711622
0,268385260493088
0,268879188572925
0,275439418724935
0,265785465684057
0,273349443197575
0,271490287657245
0,269032977689497
0,265036359645362
0,270982429493058
0,264398036507096
0,263852119519113
0,260190399388815
0,265640687059116
0,259022665736867
0,262860439956585
0,263216662220693
0,265159246566792
0,257444984513234
0,255937339676239
0,25729559368528
0,261974741322066
0,249707263106281
0,253415179517369
0,253016624608819
0,256624755206427
0,253164069844578
0,256946645282169
0,253522482343228
0,247893685838973
0,246659131132296
0,254252367596945
0,246716281541102
0,24676129921431
0,247844304971316
0,24731105871477
0,241383098862799
0,244622169701913
0,239136651876605
0,243467745537164
0,242400516935074
0,239157023234646
0,23512773465945
0,237157722846603
0,230917356242655
0,235545148068635
0,235591369650523
0,235856783455265
0,231212251924726
0,234393336483539
0,232883027405323
0,229935475404066
0,230055693445196
0,231921038162045
0,228007732611767
0,229584182819761
0,23035692408415
0,230934325129228
0,222740905847326
0,22461948458188
0,227206750546535
0,224950865139202
0,225635047552659
0,226842428379876
0,221305604614831
0,224106755470363
0,220410597683464
0,221007330482753
0,218666117373088
0,227895269862873
0,220099977943791
0,218672555863019
0,216099228448728
0,216562325027108
0,216593573618135
0,216925037582527
0,216663517204435
0,220252595091408
0,212614304089329
0,216470726268779
0,214526775452454
0,214205870959857
0,212969283386643
0,213398152494181
0,210173870762296
0,21597127199566
0,207596463645366
0,210161722725666
0,210341707527804
0,211707276055128
0,209082281249986
0,212542809630883
0,207612778977816
0,208615849157731
0,206296068784851
0,208183692087325
0,207690342306963
0,207271289284855
0,205378278334342
0,207818686152608
0,205595299919496
0,206005939230401
0,205237852623209
0,199970426919887
0,19926396025612
0,207237472766372
0,206562209549083
0,203788976833635
0,201760797822601
0,200566342132866
0,199353585357462
0,204329594699289
0,20221083637583
0,202852229931679
0,201185334412659
0,199697547176868
0,198167225753476
0,201816049483986
0,197448118647134
0,199010302132093
0,195686444372085
0,200091720970799
0,197492606975738
0,197437528158902
0,198861330395478
0,198187050353199
0,195901049579143
0,197326569334168
0,19837911198097
0,197919682300927
0,18974652689967
0,194211530086521
0,194754453961011
0,193457930813447
0,196925595410648
0,196249167317585
0,192843005679135
0,194909388040455
0,193719034286004
0,189540279791115
0,189683623328236
0,195280541455906
0,190530275301775
0,187147850850317
0,189455383038578
0,193265175519496
0,190736193457874
0,189364613194918
0,187083126890138
0,190343776525396
0,185782436164728
0,185238226808673
0,189748845699906
0,188752254441815
0,186886644643387
0,186051875649681
0,185358201449544
0,186384639628231
0,184613589667522
0,185079619665551
0,186859355633807
0,186020399365867
0,184192701172633
0,185550237378618
0,182761809787882
0,18027256920826
0,181163378058461
0,180157805169507
0,181216579319631
0,182116374644723
0,183057512060111
0,180844046334318
0,180022487941732
0,182042248161342
0,1823708090652
0,181528563501152
0,179034051803044
0,180511759692656
0,179137203407269
0,181423764748464
0,183763326418638
0,180651686993818
0,181077100192995
0,177975445427243
0,177793996678308
0,175923051500786
0,177349089193417
0,179798182127304
0,178789527219653
0,177934846728543
0,176753250677157
0,173623281234695
0,17368969084404
0,174937315439804
0,174892900023533
0,174914465945316
0,173371354944409
0,174030455810511
0,174370072934419
0,172046467534921
0,169015757329586
0,171209333726282
0,174297334844752
0,173799258415973
0,170825625537414
0,169444886382331
0,168606085537776
0,168643570766734
0,166847117530179
0,171967840681391
0,165714654626636
0,166177818120974
0,163732712483977
0,169054046044407
0,167233172466179
0,16198845351524
0,163468352557858
0,164269611022002
0,164703181403327
0,163657655583402
0,161785712710107
0,164795905322147
0,161666490374728
0,158800824557283
0,160442105989801
0,15928113775879
0,158799820439141
0,159503308439521
0,162248221317825
0,158922968990236
0,156946881017036
0,160092238569271
0,154646117114432
0,159154797327409
0,159425193298849
0,158088379347854
0,155627634333171
0,151502877210827
0,154879286098801
0,158738325606672
0,152725465147655
0,152941827405542
0,15409115034637
0,151581884002695
0,15342190927862
0,151804432977394
0,151527355690628
0,149991530784572
0,150332221110229
0,151000767169115
0,148720800371268
0,148078888813185
0,149021935612695
0,148253559091589
0,146402412594224
0,145958644267653
0,14351967905699
0,146679169058648
0,148438987163983
0,144629164204912
0,144297186824387
0,144401604631316
0,144549312557868
0,141326505538229
0,141692871181167
0,141526699723549
0,142141619573938
0,142447027592816
0,139434501126928
0,13982762501567
0,137755854040505
0,138889760497421
0,141221643886746
0,137534484018089
0,13862170241197
0,136095174311081
0,136307129973341
0,134400696656443
0,137856802058073
0,135917769259628
0,138484997864273
0,132618295582996
0,132527746627612
0,13337249034238
0,133012871951598
0,134323404346229
0,131512943455723
0,132576333739039
0,133562113460838
0,130574043141245
0,132511877308341
0,130204566154965
0,130184039200826
0,130973927679323
0,132641525024834
0,130912905960785
0,13053502085551
0,128828826118823
0,128063012778336
0,127804746096611
0,129961125404287
0,127731816482191
0,127143233216024
0,12940631402592
0,130360965076863
0,125353885796664
0,128056077401167
0,129053102379376
0,12678765882568
0,127602525299437
0,130228065107916
0,125082899862614
0,126792640123052
0,119551695104812
0,125342684535382
0,127680886035422
0,12675558417856
0,124635654227833
0,126529414922511
0,124251142645698
0,125711758829381
0,121850752885506
0,124270396984904
0,125362782099188
0,127237651715042
0,122991262635836
0,128129590852501
0,121214368492938
0,125716816093439
0,122962572304765
0,124140981707763
0,122667264083782
0,127374401246637
0,12177414816873
0,126009038335814
0,117371252061666
0,121924751713791
0,119897810602833
0,124147202899614
0,116704718836944
0,120689651089531
0,121056244622705
0,120165798267042
0,112442318118038
0,121819019227919
0,117337153653898
0,120972062006842
0,116088190289457
0,125339937348452
0,108762156783121
0,121379797918064
0,109535726032796
0,125511582347136
0,111053653147645
0,127513350141719
0,106931476830634
0,119048891352865
0,10413749016978
0,125542958327051
0,103686650778133
0,131297622655237
0,107233568202319
0,129491834322203
0,103620026749002
0,131944426611935
0,103725382740436
0,126154627405858
0,0903737226145562
0,130449490524468
0,0997630663686341
0,13151905596815
0,0951040760652542
0,126402134162748
0,0969877339171325
0,131250207554316
0,101284709858009
0,122940545159156
0,100871115299112
0,123304695114742
0,10999702055935
0,108325990152621
0,119105647643275
0,104970209814651
0,124040409189408
0,100442222020931
0,127901211614729
0,095973564148212
0,125587513571041
0,100779655459283
0,122186138280135
0,102480214547134
0,118905104412671
0,110406784021894
0,112979032591005
0,10990707243161
0,11113624593212
0,108550476287964
0,109472175343479
0,110369862721183
0,113535183796754
0,106930675525876
0,111662936083533
0,104979503692496
0,113083040827076
0,10674565143257
0,110334728244715
0,107015925713434
0,115007324440391
0,109700105408005
0,110810862177082
0,10709066879732
0,111565645506368
0,106573345106884
0,108413870902072
0,1059061289414
0,111114182158678
0,107892953474866
0,109035233399473
0,106739538653358
0,106822671114263
0,107029992773896
0,112598344504628
0,109035741405215
0,110662776579329
0,107004700584444
0,109966405072825
0,108767828206222
0,113279303383671
0,107237205624222
0,109367781211074
0,109379421174988
0,112561139999064
0,109735640969787
0,110584730278892
0,111870353891876
0,112496207571659
0,11038262404318
0,10951893023996
0,107022148189135
0,113164166812327
0,107954846492034
0,111797971839577
0,10710289723351
0,108268981658857
0,111213949892844
0,113001951753376
0,110850208277044
0,111045235448116
0,107070649032304
0,112007822307255
0,106622528071244
0,110736326734551
0,10780702684827
0,113785080260321
0,109495410337666
0,113474798980513
0,108107002732552
0,113945493661315
0,108087638604879
0,111659338203501
0,108499040711707
0,110750693815561
0,109263872444607
0,111140606672782
0,110176327889797
0,112051927254566
0,110049880932867
0,109842250432835
0,112244150268289
0,109722222645823
0,109366368681663
0,110742755636455
0,109120157767415
0,11421489556814
0,110337412273493
0,111135562685067
0,115246906464303
0,11189930934932
0,108780934000245
0,112647801864051
0,112697774703508
0,11405873732613
0,113830792645124
0,11286533978956
0,111240878420663
0,113386512094621
0,110507759498874
0,115164202211608
0,113976466137555
0,115554126765308
0,113839817952804
0,114182656251989
0,115238983245006
0,113538364970595
0,112773868110323
0,113494638104214
0,112784431327048
0,11352097020661
0,113873413570976
0,115969034315495
0,11377510622844
0,11527876583171
0,115564941367519
0,117528914283608
0,118615084672428
0,116397097381129
0,115605580768411
0,118026925637371
0,114611714679347
0,116284254331685
0,116934157525376
0,118112118776782
0,115926772096169
0,116446059029132
0,114187626065753
0,120501925702229
0,115964308290593
0,118645238377659
0,118241836688166
0,118143629814836
0,118489481718813
0,119052131977577
0,117407769241593
0,116723299733247
0,11645608644248
0,120340969414534
0,118859241179247
0,119734072553744
0,116865406272808
0,118382989761085
0,120308864835278
0,120539550241563
0,121300243100025
0,121925870388141
0,118562786806805
0,120653814995791
0,119232619585362
0,119996147826628
0,123074615073945
0,123732772478851
0,122784361447575
0,121661220247644
0,119433031311308
0,124308960250568
0,123071374570317
0,119861275166709
0,121405932266619
0,121079443511396
0,123391583568989
0,124808972807418
0,124282889984888
0,123311552183564
0,122875729926616
0,121906477201979
0,123125538890271
0,125985931627179
0,123956580225892
0,122652345628735
0,121707688661728
0,12604976759856
0,126172770781309
0,122235720324358
0,125347401718388
0,124164024913075
0,126573479630723
0,12367507926206
0,124719664912389
0,122322984071625
0,122601002571611
0,121034372185261
0,124551167882626
0,123590458593347
0,119680636528787
0,123463847403881
0,121894007029131
0,12325394208547
0,124739830372365
0,124767622649225
0,124241660977893
0,123109310035201
0,124118903821811
0,120636666992535
0,119906672835877
0,118641216947431
0,118773422750135
0,120748457075524
0,124310437939244
0,119565903309218
0,120574662514296
0,120842855575013
0,121338515341908
0,121152351559
0,11970728252681
0,119379593566249
0,117768552562724
0,121448924677625
0,119201652463368
0,121239684934632
0,122591397429199
0,119771584813052
0,120617666203978
0,118399540573838
0,118265595170344
0,117820677467384
0,119599263557387
0,120444796150928
0,120619758560141
0,119977662515608
0,11928819321461
0,114350189261461
0,117446023362699
0,118086463249249
0,120388272202656
0,116968605086008
0,119359190965006
0,119065232218173
0,119932815678014
0,117868329799383
0,117910494396901
0,119699052110232
0,120890979619749
0,117437616934143
0,117796597972215
0,117018060732966
0,115739415523478
0,117608787377812
0,115595403741363
0,115905663329746
0,115749849247545
0,116404154683659
0,116182361520024
0,11442879635481
0,113151252975987
0,113528984240903
0,114678434795529
0,117777029946626
0,117043793481209
0,115465155044334
0,113452180159213
0,116174618208522
0,115065471258832
0,115684273322661
0,1168746127645
0,114059762799467
0,114900782522728
0,11634017566785
0,114789208592814
0,113961848257435
0,115755346740224
0,115539991275251
0,115903610940779
0,116393783887515
0,114814004059309
0,114370733112119
0,116833357526687
0,113134854572131
0,113987577826466
0,112980965929385
0,1136214369486
0,114672982036359
0,113079524958544
0,11178026136818
0,11383931378559
0,110565404951953
0,111775476348139
0,111610391962771
0,114919417103397
0,11054581725705
0,113415835222873
0,113162789496467
0,111052667124724
0,114232786225636
0,111017328621308
0,111724162156458
0,11215115328105
0,113816812950732
0,109124009051991
0,114623287210031
0,112661018556857
0,110535316728123
0,109849980837359
0,108176872210171
0,109916268746224
0,10695766273554
0,108445971225462
0,108290325813656
0,109845428167006
0,1068524682905
0,106693767898293
0,105755956284025
0,107090197175388
0,105977105050612
0,105312023348443
0,100522853412611
0,104529083872273
0,104983374250113
0,102636575505568
0,105053052167161
0,103100684797561
0,103550658000782
0,0992845449316494
0,104946409421716
0,101845813570196
0,103729191795635
0,102971213332641
0,0978510340601038
0,100579497675269
0,0961079504193947
0,0991690801647324
0,0978838828467817
0,10057967683522
0,0968529382254845
0,0990641227427273
0,0981546178148191
0,099046573744741
0,0943475967009496
0,0978670951370598
0,0968917662608504
0,0981015514262809
0,0983843633419228
0,0979468215800016
0,0935766516020955
0,096104354005991
0,0957749848008513
0,0967534727636913
0,0946098359523873
0,0941538867570863
0,0896926238176047
0,0945777181263675
0,0913544076951543
0,0979703313243098
0,0917798950870564
0,0936925238990612
0,0933211264702474
0,0922434931989465
0,0903195595931365
0,0898435358198671
0,0893865321437781
0,088929497503142
0,0924378530360762
0,0911153869264878
0,0911051068426623
0,0915010285407189
0,0908993410627307
0,0899237709093018
0,0908784979880956
0,0918465185937994
0,0912148457583414
0,0917010900714401
0,0910366922514977
0,0888229039688124
0,0889483121696316
0,0908858555387483
0,0885693724469712
0,0903019920710966
0,0893561838939216
0,0890382410326949
0,0910599574046519
0,0879936595920442
0,089965488241672
0,0851515502700605
0,0900703102546545
0,0866696490734373
0,0883238640645494
0,089492345789221
0,0877333240777023
0,0856773865008299
0,0877922865608412
0,0874562923164312
0,0863955540117334
0,0884516248046456
0,0876697530972618
0,0876044565655928
0,0875888980701042
0,0839537930920706
0,0856429713234073
0,085364909932923
0,0860756260046237
0,0840793858154968
0,0876440797694562
0,0824168826442201
0,0886895146886958
0,0797988389471326
0,0908913096993969
0,0892534028277578
0,0838751910854503
0,0874999531265108
0,0832006973555293
0,08694533815536
0,0812642992040834
0,085807240653814
0,0815594624146715
0,0851015154443674
0,082943307069911
0,0858670763929185
0,0834530079299908
0,0838939634829352
0,0809118087435438
0,082704090688683
0,0831765985040727
0,0841906279420243
0,0804129531665934
0,0825481386919687
0,0807718388920467
0,0872167679093726
0,0844411863170409
0,0828266575944975
0,0832670378103399
0,0823237145612521
0,0800483529436455
0,0930674081040626
0,0738416200472097
0,0862942232140066
0,0773474482600553
0,0832735597522371
0,0780325690923343
0,0839268465107235
0,0758596624517633
0,0850967975241791
0,0829219262822015
0,0793883615924674
0,0823931624068338
0,0776234857725115
0,080916817365548
0,0794243799544429
0,0805047348278096
0,0799531276394514
0,0778414408684411
0,0798503340874741
0,0807520049218989
0,0791220269526757
0,0758808806002123
0,0810453162597883
0,0755742439410041
0,0817966929444408
0,0797583480078625
0,0807501539283697
0,0759855486628699
0,0817497475845414
0,0765727035547142
0,0871557325988199
0,0832251115022166
0,0739247599603761
0,0824470502624546
0,0733899388245134
0,0794224330736791
0,0764060088053393
0,0764336881414422
0,0761871600833381
0,0782738688392728
0,075533044261473
0,0776050224497813
0,0764055697326087
0,0781059158528126
0,0749210268571948
0,0756484811232357
0,0760033000089449
0,0780715186724296
0,0778505693845805
0,0732706044178391
0,0808988283765398
0,0761457240475278
0,081915337280525
0,0777570325251427
0,0838796787258329
0,0806644843356622
0,0748517106942104
0,0785439172336165
0,0757585618580601
0,074099065725021
0,0775188990755071
0,0759785726936753
0,0724956487581341
0,0768493419692597
0,0732860847923344
0,0736070033860432
0,074823047876314
0,0758720898249716
0,0756019399479288
0,0781471489048131
0,0744229034282069
0,0781025113101776
0,0748424111237958
0,0803089016510571
0,0705609348107439
0,0812873200275074
0,0698803833103831
0,0791240356144814
0,0714669733108728
0,0943727121019796
0,0698261983781068
0,072059308051122
0,0792452115055754
0,0756257842637269
0,0777600064741198
0,0717453481439559
0,076707899292645
0,0774863924712413
0,0749896291110311
0,0774926581517899
0,0775294641433909
0,0780402178051114
0,0773475550108152
0,0731640509051193
0,0801688768816862
0,0833208304665393
0,0701090575291829
0,0787235616093484
0,0759262117107979
0,07851440270583
0,0782832495699912
0,0694064639102666
0,0826546334634758
0,0746145894120684
0,0765682186134092
0,0762209898086166
0,0784694585882217
0,0740243644317516
0,0815519212675522
0,0772995302527165
0,0771440885422669
0,0780254057320949
0,0750372545572779
0,0805252747942804
0,076640085554951
0,0816578844599868
0,081162010736172
0,0764581133525846
0,0848421857548388
0,079127364825549
0,0787300603993058
0,0784102147035993
0,0821969379042651
0,0792873850418986
0,0824529229642637
0,0829810457983614
0,078241363745856
0,0857010000325749
0,0798882669811301
0,0788703323741732
0,0853800412723226
0,077687800234909
0,0855233960619429
0,0800282772325915
0,0930221035745925
0,090212604097741
0,0752154284444701
0,0938973552730572
0,0759037090878446
0,0884901226162857
0,0768290089859545
0,0883879128417762
0,0757135461295729
0,0931811345973437
0,0736486988509628
0,0912122945000195
0,0810734891249883
0,0951617363557111
0,0829408281585922
0,0854648391348912
0,0857701753982695
0,0880178167620795
0,0867593719937425
0,0931149602647853
0,0885490934546039
0,0883592170487577
0,106582237284311
0,0893069443864683
0,0967048126045499
0,0882063506566945
0,0856515154178225
0,107676930455934
0,0818799453790224
0,0929519615078326
0,0866106782465263
0,0954682067641231
0,0891940224012741
0,0942911417159852
0,101685017590874
0,089180629161342
0,0944437916471962
0,100294935225116
0,0919372296210009
0,10753542396949
0,0909274215373727
0,0993990600060296
0,0988574803513118
0,105435729272253
0,0940613975743214
0,120976526508471
0,100624987347138
0,108487326693965
0,111318861698984
0,102629129516156
0,114250761380059
0,103613593071658
0,114484810619834
0,10869981763854
0,114402414597028
0,105640063354218
0,1152371671879
0,119062024380453
0,124147863086051
0,108374350345695
0,122917506631113
0,107636249118606
0,125009481564826
0,120624304508395
0,133879341306897
0,116299944337392
0,124773377259099
0,120996333744735
0,138401949370177
0,119293397944944
0,129209308176285
0,129159401836613
0,1314113431137
0,130968537865497
0,136317766154704
0,140527525138826
0,135167227031887
0,14006191612564
0,14355016813026
0,141759468595479
0,159441731457143
0,141107257034533
0,15711595883756
0,142251978948701
0,166662028460603
0,1440930889943
0,150858131341183
0,153207005095393
0,156726397755929
0,161753694773808
0,1564541198326
0,158924270810838
0,161841674444908
0,176751312248487
0,171795317994784
0,168031469878375
0,18295518981526
0,165836407369517
0,194437223541544
0,168424181322344
0,288581850438564
0,180469517772104
0,200216136768169
0,206976434767487
0,213054488142229
0,22285051107932
0,211320975655282
0,219347358605507
0,228019660453012
0,232142586040618
0,236229738120988
0,251282334731744
0,251540943470575
0,262311026171455
0,265758189985866
0,266648587293166
0,287788952978448
0,281548913812256
0,297464006027229
0,304368114915857
0,302441136058817
0,316111805121356
0,324480428744508
0,325041546929043
0,334169020119046
0,343621720772472
0,347700233751872
0,38962556835807
0,357309042540828
0,377376489517163
0,375734885694558
0,398917154502603
0,38791833790369
0,414811065460045
0,425346501148041
0,412311650421096
0,429425063712046
0,432839014022145
0,44719840740347
0,439066273139092
0,471767079779438
0,462641361337271
0,464505432275591
0,472460598750316
0,484172660913766
0,492008982213249
0,488745452936374
0,498082882817221
0,5050512802004
0,529436917467578
0,551752812040232
0,540591959042247
0,524835657674691
0,501700004724801
0,522757041616199
0,516634066671606
0,561299387651982
0,519217092689566
0,539391018329696
0,542363241342281
0,527534833847698
0,534297140694524
0,529659776872697
0,532973294937711
0,540784952521964
0,544721263104852
0,525061656682452
0,542464560942494
0,546274960698965
0,543011303722282
0,595336142971982
0,521738017456
0,539659375090717
0,527215753260297
0,533574729822305
0,520752867639009
0,525595021682759
0,502223726225168
0,528352515031298
0,499332851224196
0,516039838723322
0,506890919232339
0,520114765123942
0,50209297038746
0,476815189289366
0,487232542660927
0,481733820202023
0,465213388551295
0,468219038589862
0,467886855088386
0,491478561312452
0,442296028967634
0,449238748835903
0,437883751611017
0,445424645446186
0,43470206734775
0,432674577556732
0,424186420626518
0,426862620459709
0,416268382897501
0,420948008094602
0,404993195910322
0,415504752616752
0,404045691489279
0,403621061846705
0,401282438747286
0,401350684491449
0,398852757228119
0,392658610481993
0,389789093640752
0,39415779081541
0,390785620482522
0,392284923139869
0,389686331511052
0,393568513064834
0,382492179779206
0,38387729581675
0,382753327026193
0,378152981915485
0,381536390295088
0,382271113284789
0,377457626775221
0,376094388904027
0,371529351654149
0,372906199357736
0,374704950274635
0,369684723990943
0,372234118877167
0,366463394948039
0,366758281082318
0,363371388392766
0,368417482112507
0,367440330751796
0,378089651002539
0,378864547396893
0,352968550488209
0,359002449323356
0,353183958859397
0,3655657378522
0,350872188609719
0,371148255561894
0,36237733933999
0,351268815142149
0,351988321649764
0,347556041740551
0,343143385573127
0,353218393386647
0,34021959516588
0,34602339729119
0,339270265863568
0,35834494532538
0,381677115238424
0,323188084221464
0,370071367416747
0,326743909267455
0,337767124421579
0,334623596231729
0,346225936768871
0,3253068027595
0,3344750836467
0,336269293575957
0,32291986601996
0,329739482351313
0,322561372676459
0,325920275884656
0,317634681306957
0,333355467865761
0,334411806741499
0,32276643945159
0,325143512312327
0,338779530773757
0,314562784943177
0,321828463196356
0,329366084580545
0,31347273983831
0,305978164580292
0,303811223117277
0,312502059109221
0,302926212869941
0,314231029889644
0,303319412098828
0,299445938363114
0,305539220613348
0,287102228260336
0,298548251988079
0,291362729093505
0,303731656267335
0,28338148259934
0,295559187414021
0,279032720044513
0,283546656798212
0,301398168883513
0,287817251865137
0,296353722105312
0,279518082521845
0,28058917486153
0,283381033265518
0,295490378480425
0,277194403116175
0,278634516183598
0,274424541771075
0,271387158021303
0,277397386978583
0,270798302219561
0,266000128242276
0,279420586951344
0,280505458697733
0,301777835368953
0,283471067061185
0,276130252611203
0,26715391451642
0,262374433156267
0,2681786197022
0,270193252709503
0,267753545604126
0,274598700990796
0,260117924768267
0,28182293739622
0,263420817803559
0,296499382411205
0,27336647271786
0,276125846746623
0,274838312699097
0,279446954509912
0,282584476489822
0,301234635122453
0,294754958748458
0,302960787496185
0,288831614336521
0,309477675827177
0,295244706968598
0,30416657418701
0,306064799172469
0,317566353884448
0,318024431701679
0,330873671127028
0,335781024993884
0,342943758538252
0,338882214893628
0,357026463924752
0,351764346020979
0,381945300599823
0,365483866723017
0,382855831940197
0,406217071581429
0,396904222443486
0,410316631615625
0,404785121981964
0,425481636162377
0,425413256540636
0,430044363884188
0,448429715101759
0,445873966258437
0,473228132382203
0,464872358511993
0,467304053348968
0,477089488013347
0,487490024463523
0,48908772483535
0,485993220805224
0,511921192271069
0,505826249781883
0,533666288602228
0,508181791760623
0,512945753436224
0,512022435252486
0,512684420265236
0,524398311394895
0,516239322969244
0,522015623502252
0,521937453576549
0,53999515104014
0,534522289067895
0,530134388669734
0,533064781559542
0,529344357978602
0,539916503055594
0,540145345742726
0,54312039562829
0,548583561788001
0,549923939335759
0,551594632816917
0,546025988960851
0,579561338615104
0,567646337738386
0,555990000486803
0,568038663725542
0,571693002061823
0,580900439628532
0,575657033853157
0,594761082847058
0,597647609603218
0,585654281888745
0,595301322143624
0,597727178547728
0,604385892177467
0,604422510614677
0,613540903516977
0,618222106967701
0,606501573377289
0,620227803106338
0,628560232945182
0,663858746949925
0,626069718456739
0,641408390294278
0,635077921530124
0,633334794236798
0,637134362417861
0,634652159556788
0,637269546471516
0,646079134047403
0,639713043255739
0,633752140829177
0,641535656336054
0,636496875290044
0,644734058330256
0,639403967978998
0,648141877598839
0,645156871772024
0,633414821193218
0,635587729073574
0,629878110592025
0,636493182811805
0,641470954023966
0,654333052433004
0,628290810141619
0,626917681812906
0,623535655496414
0,634990176208545
0,631044630756056
0,630746526042221
0,628443485841954
0,630649818939751
0,629804542723925
0,630634189112105
0,627961418176283
0,654757484504755
0,642493261312858
0,645647018160745
0,647946454156657
0,647375191385601
0,653895058495859
0,655372884802595
0,658102568608161
0,662786734636739
0,669435723461591
0,675220615263404
0,673799140002411
0,673707326586345
0,679339858381865
0,68170872529824
0,691690346814185
0,689804116625806
0,687040720271352
0,694949826581218
0,691072153068994
0,688559873103716
0,693830969278117
0,685795480884023
0,683478301797042
0,682759187760243
0,683643504082284
0,682565398417405
0,679248077870336
0,672188025934916
0,676032223468263
0,667999558652571
0,665615845139131
0,658537282075179
0,666322171436508
0,655976861044518
0,654665090964967
0,653578210218824
0,645944191731218
0,648047038955602
0,645927182271092
0,643701986546483
0,639109501157995
0,637820831188903
0,644142411192643
0,6385751663365
0,633401017819541
0,632104535177139
0,641620260776467
0,633297439879861
0,643137473624178
0,640273097871554
0,639756329752897
0,63217704070368
0,6384319259185
0,631231013569146
0,633894990995102
0,62674782036488
0,633404927594047
0,633808054986417
0,63179797830783
0,632944473152262
0,626957297864992
0,627743112593533
0,623361428753065
0,62366211739432
0,622827215684494
0,615633981618057
0,612330968660972
0,61272754827418
0,607933438643598
0,609246210374089
0,60815810495614
0,605955588069942
0,602003629944978
0,60290540907314
0,597962784555657
0,592767619426236
0,597576750626687
0,598759447281268
0,592864915583711
0,590669232049024
0,593276409071303
0,58566124312588
0,581814013099881
0,584948686779469
0,590835500940249
0,584042252617916
0,585234237648308
0,588108046311549
0,581249008907286
0,591888673922513
0,581771260671266
0,577616278962296
0,571128406446277
0,5686720878188
0,564716750575205
0,560776831480329
0,558992633381734
0,557114550575104
0,547592373573377
0,544827758412407
0,546855528637749
0,536894454665352
0,535716660844758
0,525577563526605
0,526552502844527
0,522786827126632
0,522038498383372
0,521637884837056
0,516751910839497
0,516385479470479
0,513758382022179
0,510982005977884
0,511279321385561
0,511784262701585
0,505930918102937
0,510385079677433
0,504385476793434
0,509823699155771
0,50760760333218
0,509251350284331
0,511834655233336
0,511476513531144
0,515173231632901
0,515571420005328
0,514920433074402
0,521171920539961
0,517416404692389
0,522027574729338
0,520181144400503
0,524538026038518
0,531511124245838
0,526717369484156
0,526459849132924
0,527371242531288
0,527883574175871
0,529445068178735
0,539018543953964
0,529015006814689
0,533479966968031
0,537809955440341
0,532705068906893
0,528978605807655
0,533156231985049
0,529040846674556
0,52835810726117
0,530433727597964
0,5304703017002
0,527482277531135
0,524844373260481
0,52576637196896
0,529051936304674
0,525568804860833
0,523501233248836
0,523074811519341
0,519768192251615
0,519065200402513
0,516766380110457
0,515914702439218
0,517675227977794
0,513820178991689
0,515191236411353
0,511727437601831
0,504940382332735
0,506683940338095
0,503294112030173
0,505560817983418
0,50446702162701
0,499160910407467
0,496109789617266
0,494033348761395
0,49209139558889
0,484113752011239
0,487419178946342
0,484296889478127
0,482306126942839
0,475628695824597
0,471260625307579
0,46979265473286
0,470794804961477
0,465018226855166
0,462302331054422
0,460461930934517
0,453961377369846
0,450288562062724
0,450784697004748
0,449707734183262
0,443513428570058
0,442417996234329
0,442775672037334
0,441107249722258
0,438028167885234
0,438271164400552
0,438417469002113
0,436016042033601
0,438643578865424
0,435181706570829
0,436134796197128
0,434010334313299
0,436685561329967
0,43358274089846
0,431369625463942
0,427507415373986
0,424600078123545
0,422231360204577
0,4168316636073
0,411365634925604
0,405341239045817
0,399649593660819
0,393946711964368
0,388432786303791
0,383910554063892
0,37687605138535
0,372600122380426
0,368939087139931
0,364525481525071
0,361835099979385
0,360934407997692
0,36179242024304
0,364902213669212
0,364139854486284
0,370533862478984
0,375996740747852
0,384423368173429
0,393586818534772
0,40377147788426
0,415584587620019
0,428719677149596
0,439623427472634
0,456301584180005
0,474471579235584
0,490284403156921
0,508124273264843
0,522027955545063
0,54772562861468
0,570632744418101
0,58897529894189
0,616000898129131
0,639850958158627
0,664081878533703
0,685251319842136
0,719727200311742
0,744092327126645
0,767744004656519
0,797704068676677
0,821723501758001
0,850642055195783
0,878249780993521
0,90595616453286
0,923517248687912
0,939604091207139
0,948984178049895
0,981913377214925
0,984311230662531
0,99347869168828
0,999741882383435
1,01529567935018
1,00824620637626
1,0093336364014
1,01078217630615
1,02206283001851
1,00155175255894
1,01027577578496
0,982920141462299
0,996814155928411
0,978433724012762
0,96568504170054
0,974613559993227
0,956096878638603
0,949499625881452
0,951007181771406
0,9370471886862
0,930459444574468
0,93842052298431
0,950211519774871
0,939228267926409
0,947405899778744
0,951087917772646
0,957342538723004
0,968383989083011
0,975619183988019
0,974960590065206
0,994699657133046
1,01115751550863
1,0181642436827
1,013058456454
1,0406294424441
1,05513225095437
1,04259983554585
1,05220134883122
1,07090355643526
1,0730713909566
1,07604759590614
1,09092365513553
1,09709434477588
1,08910454545829
1,09537246164369
1,1034216874926
1,0946430251791
1,09896354243626
1,11128892795869
1,10058025343541
1,10657555241851
1,11794857606021
1,12587941328072
1,13089486151246
1,15808972792954
1,12715727631461
1,15543720397044
1,15129343403182
1,1587282711963
1,14433963156779
1,17027170788214
1,18831467064255
1,20389989937578
1,21770815428119
1,20218857804377
1,21183131539785
1,22177305048628
1,25129222399421
1,24976582242844
1,28016284967002
1,31266927796889
1,33875191182558
1,38933408489046
1,39031007899966
1,45817302768984
1,47616428930317
1,48163698195216
1,50322796870069
1,58350104269366
1,59691354202235
1,61733698602903
1,64175347768794
1,69562556301902
1,62795417135336
1,66516806767531
1,67265424438595
1,78013694088213
1,64792402198859
1,67140766486136
1,67800300926473
1,70451850774976
1,66468983145305
1,60197819378918
1,61815735208816
1,66793785331295
1,63751625866593
1,67561913063396
1,61390159676027
1,67123470090755
1,64007609043174
1,74032068066942
1,71172847195438
1,7222299243119
1,71955519260261
1,64510373044947
1,7084968820077
1,75783978873011
1,74953588007571
1,75210546905995
1,81173602180804
1,83196238056575
1,9068563256005
1,85034719099696
1,87177253797196
1,92190690736938
1,93723046708609
1,9060120213936
1,91746465740815
2,31328327212555
1,87941101204587
2,08990205814632
2,19530645830066
2,2963283424538
2,34168820178382
2,26307756003475
2,17596390277214
2,48510967642331
2,1712791155728
2,25325290069235
2,26303582187132
2,34210335536801
2,36434838964527
2,29652872924836
2,3065151253313
2,50710543491625
2,64047147216741
2,58069074636701
2,26989848860523
3,75748293358351
2,55734972521397
5
2,38961544131233
3,06085136902798
2,21190090369004
2,58828945347991
2,42120785205839
3,00953909772511
2,41027671038008
2,53541072507593
2,17610876508045
3,6086170823358
2,3466321294332
2,17860177503076
2,43891929541474
3,05984052223697
2,46933993853545
3,12261863990916
2,10336267035858
2,46503357782823
2,1727570153767
2,08089907853849
2,19589328967352
2,26543383473939
2,04039828033379
2,11736266693331
2,38366560407157
2,79951000232137
2,08477479782628
2,13978036264051
1,91358057164174
2,18334978882673
1,93095582219609
2,1075344514408
1,91569038360392
1,99424127988659
1,96008180182099
1,88777642767674
1,81085898866176
1,83763602806368
1,77964564797369
1,68807745531312
1,61256493766065
1,77414746710931
1,61649760694802
1,53549161662432
1,55244486174151
1,52074039101856
1,39100755147655
1,40632877593982
1,31042458108685
1,29537829143829
1,26965469970221
1,21113470386487
1,13986000087131
1,1119058317504
1,07961175173284
1,02249274513392
0,976455580613103
0,940598743981182
0,902949295656346
0,880312240136575
0,840013077525472
0,813936878092198
0,780285600969732
0,775099175997878
0,75291378679577
0,73396975560907
0,716383139490777
0,713348750239203
0,695051973353822
0,692527140691878
0,67762417189026
0,671536459862301
0,66454881811371
0,651754185481225
0,655348813828079
0,660036282713051
0,659100489055815
0,669068370522386
0,653626436071453
0,661175979236743
0,660238599932818
0,679658449758403
0,666167541394057
0,672786860681054
0,682795595052698
0,68726520481798
0,699308689300552
0,690551761944818
0,69895780892352
0,715563746174858
0,712361751532896
0,714927760127921
0,702300754377118
0,703580695900066
0,705464412143989
0,716708534922567
0,71632547441938
0,71837496735991
0,704183481759141
0,712503983945955
0,72266261745295
0,730871721830783
0,716072118401863
0,719061286430006
0,714102210705867
0,718314384637546
0,70356627360368
0,718419881548596
0,696347549428356
0,700155205228132
0,714755383666533
0,718849460765447
0,702915778450258
0,702555330724972
0,68979218077528
0,688855731670859
0,681308003388371
0,685922465357852
0,670823616046407
0,672341355220691
0,674398825264463
0,68377314908698
0,680786379872178
0,680468102725241
0,673856406697907
0,674906955331207
0,689983986573938
0,690624773964269
0,686805093809483
0,703849525732996
0,698089345084819
0,723380414966311
0,721111377528877
0,754197228422633
0,764370393737364
0,761473724333136
0,749901438965081
0,759295767461676
0,762625879932351
0,760052158289226
0,755173669139167
0,745352548050109
0,71805253987613
0,734103487223781
0,720286121674557
0,701774677622038
0,695953264274756
0,682690099156157
0,665776920867479
0,675281232530645
0,676540940914383
0,67955060697019
0,67916157512507
0,685046790308642
0,685376512886366
0,710919805789594
0,700959932775149
0,686133088362565
0,678004964297538
0,699498740813251
0,680561435710872
0,692674287203974
0,668971457392559
0,698898938499459
0,699926001938044
0,701910741405838
0,696570526435392
0,70930388288499
0,716479238109288
0,704974811689857
0,687570699594575
0,717507415763569
0,699430607848192
0,721703958368247
0,708470486279432
0,698353773580862
0,711898019613748
0,716174544049417
0,706295755489952
0,719438380524819
0,68231964141914
0,718962339010089
0,692599298494762
0,702096326694438
0,698239390083483
0,697884677146462
0,709709705757731
0,719967039468351
0,696701344128846
0,704191023716049
0,676987060581492
0,696320843318942
0,69031638084109
0,677712839832229
0,687931277742726
0,686090440262107
0,662902117449774
0,671324745544933
0,653853192935775
0,664251700127852
0,646595042664803
0,673522852382653
0,639673522328554
0,645886693204621
0,629439745129889
0,652325105482146
0,640075338565542
0,622526359398403
0,617630539542709
0,634962368089774
0,628573162219572
0,651102878064346
0,622149804566511
0,624840364749697
0,602682488796257
0,633958986739207
0,603289601280534
0,662356166356304
0,655442139374872
0,640931657805647
0,624454804506096
0,65416627799143
0,650335647205502
0,660264095070469
0,641613273824331
0,652821911729137
0,656562682072087
0,665642729066018
0,643290798620066
0,691488390960537
0,689616994466156
0,673187126350071
0,651241432396332
0,694881000312109
0,685806400605535
0,70371047214218
0,726946489226953
0,722385427465241
0,688337301017577
0,741338657354042
0,743388658757922
0,744144630502755
0,802703250081886
0,859475171742641
0,784176356495084
0,809935334211528
0,832122068549918
0,831521773047239
0,854495642129662
0,888516658685354
0,871182342475418
0,882451222814914
0,877097464501412
0,925202979811246
0,943519074317623
0,921995771524723
0,860969505996336
0,935026032019674
0,912727221200795
0,979488570451808
0,893671047033657
0,988343227690697
0,978616996087107
0,9752000499107
0,98783654133163
0,98411495027433
0,899328340836113
0,945034501628581
0,923063187232192
1,05276402575486
0,919044285817811
0,957908382822725
0,993087781134264
0,915727729642236
0,928352239209025
0,969061267261603
0,907123311912655
0,961392185152035
0,979246838532271
1,04037736977288
0,980448277475283
0,966360933302148
0,947323257171076
0,946890678367607
1,04153891997282
0,96579563475895
0,867487404972894
1,03895529288688
0,947828152539944
0,917940934185019
0,921710603467694
0,959327925711576
0,943943943979889
1,0240201823658
0,882858547431326
0,937462184810899
0,906479595394648
0,970067483192469
0,91894061043265
0,977105154448163
0,917577514526435
0,989206576379625
0,908998584466553
0,980991750616825
0,843465383519865
0,924360007229878
0,83404825405522
0,964492833566127
0,900527961210736
0,934243500154161
0,893172448274357
1,01444406329361
0,80685664500542
0,943434334907492
0,883398192281417
0,913949962066796
1,01395177654541
1,03911120034303
0,992490395383595
1,09033692800342
0,943696706459672
1,14113869617239
0,947817884656729
1,00737187497861
0,920041744242219
1,07416157005307
0,937804732611338
1,08854810636538
1,08410015998719
1,19415106114506
1,04252802701113
1,3201096622065
0,931927706286773
1,0828363248782
1,15875577094534
1,02816244421153
1,13710442720387
5
1,29878648900094
1,15511718535603
1,00540109846723
1,2408083544439
1,11463686226265
1,17687230170233
0,954892974701003
1,18371862311354
1,20056789955142
1,16576353918807
1,07573418759703
1,62864169208939
0,871773774343636
1,14189177985159
1,20054859248182
1,50659269438438
1,29480305815751
2,0769070126008
1,01201803093659
1,22687756029666
0,881271603651398
1,10289311434815
1,27127370727877
5
1,13497876023544
5
1,33523097983259
1,33561869727109
0,932422845021965
1,54090026807427
1,1057641150991
1,24689942642992
1,17776091172876
1,42800967713783
1,31883376420747
5
0,756546849354318
1,55185988976215
1,09325139792744
5
1,20992662399486
0,833710994777588
0,555976072579269
1,22534409704529
0,954696464879786
2,13669007643851
1,67125508761321
5
0,7669520398975
0,707390771976891
0,770852258746664
5
0,819954438794267
0,635633849488887
1,25844436857464
5
0,847738629753393
1,02660856882042
0,991441818010747
1,20139465778681
5
