3596
4000,36533379555
650,420452594757
1
2
2
0,0773101404429165
0,0623778225011239
0,0757028976355202
0,0627526458230592
0,0734180219480863
0,0640295862447784
0,0730354037627835
0,0607169815987899
0,0800551411922295
0,0646852679995023
0,0624946421193896
0,058115299236189
0,0707049563660242
0,0624353674634492
0,069530328853442
0,0543826457622693
0,0651299206699791
0,0649900026373687
0,0749248292586795
0,0626587235662569
0,0735532606541687
0,0534668945635552
0,0703616033385722
0,0601185595365463
0,0763079370542376
0,0690064785787151
0,0783079391533035
0,050480780259633
0,068724195866554
0,0606105853804971
0,0628377044025614
0,0585321125622957
0,0682627688390028
0,0581932352577296
0,0755016147367708
0,0587041869730502
0,0647003859051151
0,0677230976309981
0,071943844965675
0,0588087146893441
0,0704479562861618
0,0543215459434904
0,066943772316653
0,0594819562264124
0,0672972775554307
0,0544027600104616
0,0709262421864702
0,0545141994152659
0,0649108557768038
0,0549141416837755
0,0645833129041512
0,0502191532296504
0,0829040126207937
0,0602880985904453
0,0649416823867532
0,0572997489757049
0,063109321882678
0,0514800334932937
0,0717109450737388
0,0590378765030119
0,0724187059262999
0,0359795354661729
0,0623377730715501
0,0532514952303706
0,0655538241775575
0,0498254524210277
0,0672506505248079
0,0578136265388762
0,068969151323896
0,059887256045945
0,052227027589691
0,0647005749824783
0,0514760401171731
0,0612048041492748
0,0555380420190316
0,040173463077248
0,0663189934618103
0,055687073636997
0,070319724215674
0,0610531277373041
0,0531376840337747
0,0595700202073198
0,0653937366322396
0,0472505190501999
0,0653339305819978
0,0462690034434076
0,0475915365223822
0,0528452667583408
0,0606233979525923
0,0564853054387769
0,060981276865272
0,0535141717353734
0,0591289862391198
0,0521370922606091
0,0530025841799964
0,0448626534329385
0,0480010824639825
0,0580671901778603
0,0442812441444837
0,0705746695169338
0,0522608579669769
0,0485304644142175
0,072856943234946
0,0283014651361935
0,11170731129779
0,0222614776520204
0,0850613363373453
0,0488427077704029
0,0451615255022267
0,0527744499679433
0,0556866755619242
0,0519331667739896
0,0498092493040533
0,0523062151141979
0,047764140123905
0,0609866846944055
0,0483813065477006
0,0620761793393215
0,0551408230322647
0,0534521265416503
0,0443388650604764
0,0693299851220164
0,0424865780675442
0,0462736028313739
0,0595814043644501
0,0462382180188266
0,0648109437668832
0,0705242759585975
0,0388729996089619
0,0486305726469464
0,0509672859670417
0,0426812792132907
0,0552473905211119
0,0469242722336772
0,0615359177267994
0,0324693012157588
0,0669611663859901
0,0482860164358151
0,0761719664695606
0,0333400314604816
0,0419053578947728
0,0388298124663836
0,0478992409202634
0,0576242351411123
0,0683528409169544
0,0455242697292096
0,0495354182920524
0,0479551971126977
0,050087281135777
0,0401207586382393
0,0492215831194437
0,0417697527448296
0,0673049102211244
0,0407077134586497
0,068787565321334
0,082271749541774
0,0515743880463606
0,0353095565647647
0,0678677658615627
0,0268807999423886
0,0725274729555896
0,0395386729549963
0,0557874514867944
0,0337606978266802
0,0673212961838388
0,0322955794125228
0,0706503775455508
0,0435044683934494
0,0449293727795737
0,0584097582473511
0,0594400547988044
0,0517533238103766
0,0486423620040228
0,0570401558708943
0,0366155729057682
0,0524139003905482
0,0657505330571155
0,0364174170579822
0,0496894350115648
0,042515803555991
0,0596492823856319
0,0311344739690463
0,0592570718417189
0,0368961847766027
0,0654870936430558
0,0347059403676215
0,0536714920572222
0,0378049893526567
0,0490927980175503
0,0459364266107038
0,0930250109601233
0,0363254431357014
0,052233679687646
0,0304105977025731
0,0599813544313613
0,0281243147415593
0,102100630928864
0,0264606799301561
0,0483644495754259
0,0427964217282529
0,0453837951387381
0,0499350251298828
0,0536189289992466
0,0343540380704966
0,0503495603023362
0,0389663722134126
0,0889529397471993
0,0264064709005866
0,0473094117452687
0,0352641984362463
0,0676849606677807
0,0353726510690916
0,0972845122426172
0,0261101305863992
0,0528220864057291
0,053127602162874
0,0445545230291602
0,0426472924178719
0,0584579466433292
0,0373172607576311
0,0462322617465135
0,041965913725515
0,0595201171551952
0,0448013102746161
0,0506885580325699
0,0337172427349918
0,0526585373694391
0,0450770306114458
0,0579933977601197
0,0432392120180216
0,0581962218813112
0,0417070610652166
0,0572871871631757
0,0524419180641805
0,0502219716302891
0,049727474005137
0,0671591478231325
0,0329766134316729
0,063680786125909
0,0304648639429423
0,0538174498815382
0,0428520943683423
0,0616313439819745
0,0363266790745319
0,0721745346948305
0,030961744130904
0,0833960891746697
0,021988721426912
0,0653915858604269
0,0429664774511586
0,0778581279987121
0,0261029315577447
0,0526742642482945
0,0285945101356101
0,0561911715819541
0,0427402028543197
0,0752268164842351
0,0522303607900877
0,0565141579383047
0,0506222258270071
0,0613532068701177
0,0383750458688257
0,0510000412179589
0,0610244161878244
0,0681914011276348
0,0719321784414229
0,0562684064395693
0,0374528136794761
0,0788150651530329
0,0236631076081525
0,0725293388631806
0,0518550278972323
0,0705559788355132
0,0483574451056467
0,0647619621480933
0,0469297496886646
0,0640554819157901
0,052773632663818
0,0515497943399398
0,0432878585608465
0,0630297480834591
0,0544854290293776
0,0988438424365243
0,0512502785872792
0,0960542121034904
0,0217931168072411
0,0860146801310474
0,0367066139491287
0,0528464942522696
0,0357991051286092
0,0610540814309409
0,0466718469427837
0,0713374343478646
0,0524498345617632
0,0599759741545076
0,0516702026668549
0,0630118743635664
0,065324305902422
0,049400478845892
0,0585903124954975
0,0597175428462952
0,050483673214717
0,0444562618183811
0,0550791703887519
0,0567484775234286
0,0592584743665252
0,0619307505045126
0,064960145516519
0,0819986930178861
0,0556128747256645
0,0644146400571704
0,0582301140739693
0,0498453255626314
0,057003937690394
0,0628087189860412
0,0602901452071608
0,0586495706534657
0,0574286572542899
0,0639764418975578
0,0764585677547481
0,0648661508747045
0,0509301979639097
0,0636629426342305
0,0572019841187036
0,069659395526652
0,0618279767727722
0,0649518858487298
0,0578147397563871
0,0635260260681485
0,0627738299908967
0,0791789869373232
0,0766898391623531
0,071288370369061
0,0777925688099022
0,0727771581511469
0,0553206536810845
0,0713377558832882
0,057031716697099
0,0787868084633998
0,0623868798731095
0,0788012391487419
0,0645105233921915
0,0819542618202635
0,0762919571242069
0,0725661162992413
0,0658067119686495
0,112034549015926
0,0632814012340094
0,0923510418512416
0,0528663729907327
0,0884742468257271
0,0802543297056774
0,0988059537573774
0,0922584801706414
0,0799795803042321
0,0913284166837784
0,0841859041745792
0,0957141928016799
0,079250811035945
0,088466218339312
0,089285105659176
0,0903098879060165
0,0895295404753243
0,0902758053875104
0,101745194848195
0,0892562616414746
0,104188563877307
0,0856975053720214
0,116168658104692
0,096978147763751
0,101461249952688
0,108460955760927
0,111822876512178
0,107338293206218
0,133914693473423
0,0878962446654893
0,13321707320898
0,0821121291141031
0,14474183038035
0,100019874220988
0,132764290024415
0,10737899871037
0,137317785162913
0,125370562984877
0,137890275904959
0,123484359327613
0,143164079500339
0,130855226159684
0,144265212398608
0,13041741371191
0,159019145332336
0,130641342387458
0,167080780936681
0,137291817406995
0,159813733995685
0,158673548518754
0,174556026530013
0,154070095719989
0,175664907833014
0,148157126987125
0,163054901280378
0,169692514669867
0,163463136567335
0,168992558404755
0,182442412552429
0,190657536409213
0,19123644871243
0,177362536447576
0,214603631311668
0,179641788426713
0,199164423587678
0,177203484069561
0,206620487666034
0,200120991641947
0,207021985625516
0,205963657353455
0,210966926412188
0,204102269487857
0,226363366641944
0,225630099388684
0,227318894011684
0,23355030504283
0,217315331710124
0,224022699838233
0,246389276130813
0,240084708024862
0,258280632189833
0,237625195311644
0,252533990916655
0,248247376008312
0,256943388156139
0,257711430352795
0,279063823404242
0,251220575312761
0,291993827536457
0,24882074030145
0,290069999470036
0,255684132640766
0,277486818682552
0,283175016595814
0,310326422654373
0,291606194598006
0,305653362917411
0,307427372225116
0,305756966343061
0,298506516081871
0,31680015395937
0,299349289189165
0,319714862558796
0,322099132060129
0,33673337804766
0,310402328322262
0,339713165532948
0,334845465299148
0,348535086631007
0,352203847975894
0,361908358234442
0,341065803816233
0,368847428096651
0,34633594549598
0,376203729382184
0,377105467415604
0,412781270309131
0,414164222780073
0,376330176005042
0,382951800656511
0,39630104777156
0,379637385538995
0,391466772213021
0,391494309626951
0,422297240764482
0,417463691534345
0,4234644355918
0,404238319795998
0,440082206080601
0,43859344344236
0,441724268320103
0,414695087877811
0,471220980085547
0,425684882784842
0,449489337883463
0,456690718165132
0,466827467034732
0,475010757340886
0,494522500427837
0,450076210369686
0,487068355183869
0,46103130101912
0,494701140808954
0,455488499486365
0,515196198274355
0,492020864405939
0,505704187850919
0,515792767384916
0,520181950458443
0,510660313536962
0,545016578823499
0,554307460484485
0,558090076215573
0,51829832456583
0,582459575051681
0,540323541169838
0,58977835759778
0,571843763957427
0,557146781738021
0,583569270565313
0,596340532062495
0,543702963168204
0,567496050280535
0,581675274004594
0,60871030298738
0,588106055693295
0,641027771713516
0,615522351255801
0,621272837829055
0,618230718274606
0,607980710930316
0,613753774041896
0,64674615329697
0,631303344966072
0,67894567339654
0,640977233744271
0,648152774107304
0,669768833448666
0,6857254116075
0,657688792852555
0,691721737198514
0,679200276266128
0,69284144540204
0,699723237770543
0,721673644765715
0,692869443403515
0,710061417143455
0,68734208447349
0,757787970143114
0,735710406319163
0,742435419604109
0,745401204084137
0,76613168837529
0,756944050031935
0,757321128248322
0,742755490712924
0,773083408621337
0,757959579148217
0,78515577354037
0,743466554648658
0,781966613514481
0,798227723270458
0,811993878562431
0,73859419513378
0,789804867855216
0,852644947089066
0,859370776585281
0,829023344280557
0,844043779166458
0,847714855676033
0,818946193837374
0,801845938750733
0,866134321077529
0,834893861374832
0,859094134776963
0,865996043346738
0,836553216132021
0,835439543523412
0,893539836077664
0,870876927450239
0,88498156916011
0,896748020850885
0,887517206768918
0,862626391137802
0,911803920674433
0,965406746801281
0,971139627294775
0,89843322748896
0,938711664519494
0,89387413738091
0,965642801185316
0,919002399555866
0,930956613614932
1,00116761713839
0,945928460340838
0,986380719308712
1,01730477251737
0,972162514104427
1,02276782895505
0,981349652843367
1,0159309655579
1,01843606405587
1,01582962629208
1,04087412598001
1,02472784218156
0,976483587060357
0,942825919948989
1,06063509494133
1,05051423828921
1,01139028002324
1,02704125291245
0,991072631187584
1,00284073616125
0,992779818169344
1,04154314467053
1,12754978793409
1,02619094793316
1,00321932219654
1,05535237551294
1,0290069000408
1,06744988285309
1,13202774008001
1,10275212229992
1,07169079470802
1,07888101087254
1,08015302105259
1,12043475959083
1,16852184839303
1,13073957357359
1,12218857494453
1,10711782437717
1,13845215579672
1,08924155725153
1,02111914889409
1,15784243143887
1,18327536412258
1,18709927984635
1,16306975130109
1,17216950996352
1,11619288623761
1,107673078254
1,16826387082092
1,16186847702163
1,16175211612079
1,1897802491952
1,17734603096865
1,11794172354319
1,24639147489012
1,24358233066058
1,20051378637564
1,17506329998542
1,20188539996395
1,21667140162001
1,1161284524827
1,10429739327498
1,20166870830012
1,29097179028904
1,20068959317125
1,17568379250187
1,21061982559258
1,21757943121435
1,27718618123757
1,21787927293424
1,22800567708848
1,14404165166074
1,18212599382697
1,25490479756378
1,32063315938932
1,37724478562086
1,35604171400255
1,28425032087135
1,28944690110281
1,24932717474005
1,23937616611491
1,2597635119615
1,40115034791362
1,27644187271293
1,33956553977027
1,37369780351291
1,30666740440703
1,22774706109396
1,34303717856842
1,37227735155134
1,39283410625204
1,30967418988537
1,31286966151389
1,25253657596681
1,28532128711167
1,24512889891517
1,30705639829884
1,25414088279403
1,35280374400134
1,33657159917304
1,35996355615926
1,41679403426304
1,50001714122072
1,30377204918478
1,36811524634837
1,30300376034309
1,43062388902844
1,31109339183681
1,26545890424723
1,33659867973467
1,49729680627733
1,36783503339613
1,25434456522468
1,36189725111101
1,35814733689999
1,28111101931863
1,42785534022631
1,57963321473303
1,35268492273834
1,30517868022886
1,50256430638964
1,31793116865624
1,37073193669422
1,3659596707879
1,3980851463002
1,36825442254671
1,38060896594572
1,37617012486166
1,41460464255563
1,29519966321074
1,38849318342848
1,34324443740518
1,3554172451238
1,30688340423888
1,43361440739195
1,43108565761043
1,38033722477616
1,27845987904711
1,32956641974671
1,26656773115849
1,34976834879964
1,38493479051463
1,40307786288702
1,39095006619201
1,40459689102476
1,3671253713158
1,3308969399492
1,3071352552497
1,38039659203427
1,37495319459938
1,38693245496971
1,48670419543051
1,43563724274485
1,32070210473102
1,53349942501988
1,4561445453907
1,42805450037831
1,35602633211663
1,4035602145431
1,42574525130448
1,3883403544114
1,40441546116929
1,45049344877873
1,34553598399016
1,40294105093328
1,46356486198772
1,52834903645936
1,35910657693329
1,45211643678267
1,41618173151059
1,43203079124224
1,4556229877573
1,39406537246969
1,40744433682106
1,50844082287634
1,44339907293081
1,46496167157998
1,35119724934183
1,39257674655858
1,36538073114822
1,38471915429661
1,3773294247284
1,3633540088553
1,28951000045974
1,41730835435503
1,38975137989186
1,40085585911206
1,3660820698214
1,46839395743399
1,35318378753989
1,34888480415273
1,34397154077532
1,37010008259944
1,43789157743238
1,51341557185682
1,2822269888197
1,34699206452547
1,30878041846483
1,41519099631239
1,42101531284622
1,3941118460912
1,25403278717356
1,37561763286452
1,42875433913154
1,48395804301597
1,30839071876587
1,29201628930402
1,3253599830837
1,41676670878209
1,36745153296401
1,44730240288026
1,35797342534928
1,37524842634125
1,36133709255575
1,4143908343404
1,43220307837477
1,48204583870413
1,33843077099461
1,47539220199817
1,43804428520852
1,40023537282638
1,29784071367276
1,28869797041061
1,33825172988744
1,40142864239583
1,37157344599431
1,37000463647882
1,33186968455819
1,43211273258823
1,31608705570049
1,35962871969724
1,3627767029714
1,41980647701531
1,27074870913837
1,29374006271075
1,27575830952173
1,30485625988526
1,27087012769114
1,27919107011001
1,24541117223412
1,43488041459682
1,29802082384421
1,30798838357406
1,27840155110011
1,40249529475473
1,34199317680703
1,35917470220188
1,28863492661875
1,25741977447609
1,33376544665392
1,39412714202745
1,36061266143184
1,31664220223566
1,20375249414592
1,28881357008864
1,21028715541607
1,24426866223747
1,27185279528654
1,27979792519992
1,31048654938803
1,33754442079948
1,183443319811
1,18418116196379
1,21963404204556
1,37469332138288
1,23531300046107
1,23963035380334
1,24267369788678
1,21823924792953
1,22258356575264
1,28154668973207
1,21163526851282
1,2094602266549
1,16618251960671
1,30467609451701
1,22610760845855
1,19221641050403
1,18125958492852
1,23572914331834
1,13959395230647
1,21477950825741
1,15803652375507
1,25752462013441
1,14977658416445
1,17332116558687
1,12540447296134
1,19287082699218
1,12984906259724
1,11723221163674
1,13416304058978
1,12756892756019
1,11093270195382
1,19044904993003
1,12592642554494
1,12024343353742
1,08420391461968
1,12036003633779
1,07928188854498
1,12965804839845
1,06008548734331
1,10330742972849
1,11019501759522
1,14478028008123
1,05948380446956
1,11139321541527
1,04739072797109
1,08975625647328
1,0426992400999
1,08063487452196
1,02292648168781
1,07717603023567
1,02579031724817
1,0830563604999
1,03087711072049
1,0342128316526
1,05361760446386
1,04716850998793
0,970147430163375
1,01084237989444
0,972867219515723
0,985862329870154
0,988797334022899
0,962302052660861
0,978239963925237
1,03375316593273
0,960622659564893
0,980837905299933
0,927681650283537
0,977360164727903
0,950620896082075
0,976717191027282
0,96028722812443
0,994529923123896
0,925191420910061
0,936830015952676
0,940225680254858
0,914853558286462
0,928996820763256
0,934884026789872
0,90082735317151
0,915462174071292
0,8838787803557
0,920071778920631
0,869345678935534
0,914885911726138
0,868272137107026
0,894321385149761
0,864053836370567
0,883013985963341
0,865451243898334
0,887083343103843
0,835132401356416
0,869535851281909
0,826076427378911
0,838933982076253
0,841686048847614
0,857191945749742
0,818818504901541
0,817816910318644
0,83649406946363
0,8390244428798
0,811018143136281
0,826137069490415
0,783228352172859
0,79629939820564
0,783496333669479
0,784551826140483
0,758247454543446
0,802855277185094
0,770864870693603
0,769302250663045
0,745235119491656
0,775754005830705
0,748431876181191
0,778075054019268
0,760016085676699
0,758958548492058
0,741425128376457
0,765363052967697
0,72382480487394
0,726419683041177
0,719050533228885
0,739838235203949
0,723123788064335
0,736309324326213
0,70372794956078
0,717459202644414
0,689248688523409
0,708113573847361
0,693421931137164
0,704984083075545
0,693805741145831
0,711300786400369
0,671246895420685
0,697168404234724
0,681172754970843
0,691738704212593
0,663980398038325
0,672166487022484
0,658555618102631
0,665563027741502
0,660641518826833
0,675549667806844
0,636323461835248
0,655318058954232
0,629627930258444
0,643981326716472
0,647263423464761
0,64157077337278
0,641235878546928
0,639509888495978
0,619018859992852
0,625496921063354
0,620132382371036
0,626938139855771
0,606269788714474
0,620280990855063
0,607258635538079
0,6102938955377
0,589837265228349
0,599193714335693
0,589593173631022
0,599346366599914
0,573587519390317
0,589328753717975
0,577892915377646
0,577756418610313
0,571531103023054
0,578041291786012
0,558626899582911
0,57012138381133
0,550726870805335
0,564996398222852
0,55223418261833
0,559092383075738
0,545900196722183
0,555022754457447
0,53302697999927
0,556820397547175
0,536396096043077
0,539910040308653
0,52268866186708
0,54689150921749
0,525608116962531
0,527286586645823
0,514339397888504
0,528830306989109
0,517226356731505
0,530817236679913
0,50145780071481
0,507184437937566
0,505276553016794
0,514435699889214
0,501651250972634
0,501185397559131
0,486346503744371
0,497734106966287
0,495250910862439
0,493303753472458
0,486253276861301
0,498032558026575
0,474262039468394
0,486835953949927
0,486187500849704
0,485116855652473
0,46267425383201
0,481566905131797
0,462674163494538
0,470372211598411
0,470037338042652
0,476794952875503
0,457128159909158
0,459739784357143
0,457082675110851
0,474907593761329
0,45369090292928
0,461481662408087
0,460558377527368
0,448367899648149
0,438811814512348
0,453331385641063
0,450196606227765
0,459088651866796
0,442632953664111
0,438624662611225
0,440631593277848
0,443342517838794
0,437590889267565
0,440166868348355
0,422411859178244
0,449344425097484
0,443813552489489
0,436153255155337
0,422749155874615
0,433546009763983
0,426280859679285
0,432680517443811
0,429040301638083
0,445541681678849
0,426883068650219
0,444681552457053
0,42973688781557
0,433905325835573
0,430094144404277
0,445187516673077
0,432650336838119
0,4427312145526
0,423385629413853
0,439994165296478
0,427460159183911
0,452243241827558
0,441971618948877
0,44960143420855
0,442467090875136
0,45356489368722
0,443703471997502
0,465195154865828
0,448283525590294
0,465673923452789
0,453495040351221
0,468927248009475
0,455469695665342
0,475456760969593
0,463503108709637
0,472689741395688
0,480601884517803
0,471446071853841
0,462315928330511
0,477564413060754
0,475049758750066
0,493837465552507
0,478648842897797
0,49504911879507
0,483675038527376
0,50597100308426
0,485676192045098
0,514641358227898
0,495944425126718
0,518401345541333
0,508077825820595
0,519300422100317
0,499874253669977
0,529236620108986
0,514172349692425
0,539323797466389
0,530615565893345
0,536748554177044
0,537445710426308
0,557207811347987
0,544948993186256
0,556231454261226
0,560399786529025
0,569939910370855
0,568549043818197
0,581719252766094
0,574158673599167
0,580660292356048
0,581526386682435
0,619766083711584
0,584862243280412
0,622412952078608
0,614133918774578
0,630586507732194
0,612050871477977
0,629628825300238
0,630265041224882
0,655432537572292
0,618098413488602
0,641570910870624
0,635271709495687
0,643534353407118
0,641900702532964
0,652929485877464
0,630580608556503
0,670622497888873
0,643411448969564
0,65049724062915
0,633467742181868
0,650253584942929
0,632348982292848
0,645140653803109
0,631231477820436
0,635060793770701
0,618870105761872
0,652971191817465
0,622085771883214
0,631417264183052
0,624539202560817
0,634154048580854
0,611194830347197
0,639117076788498
0,611437657226247
0,630389122972426
0,620227698716547
0,627487748877113
0,609005900666556
0,614273110733007
0,603129293559189
0,629085279338835
0,617880258173267
0,619774296040475
0,600603658825333
0,619549799858216
0,59275252149733
0,619703555815047
0,593493607127636
0,6153814844351
0,612417273390327
0,624118656578919
0,602217445802947
0,611879109865315
0,60446399677197
0,620028004288728
0,587640718322108
0,613277739548465
0,590994667443602
0,604148566158844
0,581527327624719
0,595965221701925
0,583278536334866
0,596671663028525
0,579279381746674
0,599909922395322
0,575060310056069
0,596714605994477
0,577436810849531
0,582825160154837
0,564670527863453
0,568502214458311
0,554583979073503
0,578598622755914
0,561496878059077
0,565757020567152
0,545122381143041
0,551557343286906
0,544511653100093
0,553644735767002
0,53639673175737
0,534440644952334
0,520674496604743
0,529863809777901
0,510775781266311
0,526641937966928
0,516633575074657
0,521579259889947
0,51337691257457
0,514652568888935
0,497303453688008
0,498614392274229
0,486852661680613
0,500956716928883
0,489323978472196
0,502757051868019
0,489069411704313
0,478035884942293
0,471986235560605
0,474052147996019
0,46886289004728
0,476754169560975
0,454280245911686
0,466426028282398
0,459835497278015
0,455108905874031
0,445488734438867
0,450341919160326
0,44232840490086
0,452219325633559
0,434664477359644
0,437917008926795
0,433701380283443
0,445786129781314
0,423541936734101
0,432565192172951
0,421149535542124
0,429424928852562
0,421990053771946
0,427872349083894
0,413731866249608
0,418702452868837
0,414681167780708
0,421035679748138
0,408044496344843
0,417554520626495
0,407902348031726
0,413628830695729
0,401778985948109
0,412334428432119
0,402468561222431
0,406491926756107
0,390985877249476
0,40066771634893
0,393998770507633
0,386521022151425
0,38868626382695
0,395319077752965
0,384631161829255
0,387325301292392
0,384052442341628
0,388179711904209
0,382860040472266
0,386389598117566
0,376623722821297
0,382667534946274
0,379941923869947
0,380148674314555
0,36975536392283
0,387215286140069
0,373913458274554
0,375072022985553
0,370768806261396
0,378584928305947
0,367583552239168
0,374544486518538
0,369227583054099
0,369186570996001
0,358637928204399
0,368351254660903
0,361619806466239
0,366669815675194
0,356167219934993
0,366713983384031
0,358054641403287
0,366308528090402
0,350896886156093
0,362433010351219
0,353747903339605
0,361028758443019
0,348621025931519
0,353429759852907
0,347093085234527
0,35609357189807
0,344713144512915
0,353061556458592
0,346019986380189
0,351322004990493
0,344240889168936
0,352421421221861
0,342395481790593
0,348258175743207
0,351593019954865
0,347147032335447
0,34457565175566
0,34921531707899
0,338026768332712
0,350278847367542
0,339904596906407
0,341871754284267
0,337564483414754
0,341962558005671
0,336146808473893
0,335933171102531
0,330787712974333
0,343693052623564
0,340187431702688
0,340051002557841
0,328699751409628
0,338706954477491
0,336231818447244
0,341910820858678
0,329590044704995
0,335945558185494
0,328128336654271
0,334783622632717
0,327665482593135
0,331446916371167
0,323003463295707
0,330991401211259
0,32688660409518
0,328038459670708
0,325962275513437
0,325318698199116
0,319149072392789
0,325413449971524
0,320619361829077
0,334082415389268
0,323960321256953
0,327580086205393
0,319914753284038
0,328409298978416
0,320125463910682
0,323627296985453
0,31755990753365
0,322843412859695
0,321112319932511
0,328275234772823
0,322398703872454
0,324054708627674
0,315236616609214
0,326574156792394
0,317389704293872
0,321984281774841
0,317248335421705
0,324088977636242
0,31139283712913
0,319216368533937
0,313794260752749
0,314478391717701
0,318428524098521
0,319850597151324
0,309842155567908
0,311861003897708
0,316795050256234
0,320582570468249
0,308497569595098
0,310076064925747
0,305237645010869
0,310823150334997
0,303300469819604
0,30974865413475
0,304260023062807
0,310883964568283
0,305469098187599
0,316035858803394
0,307520930297709
0,307314745236899
0,300453812203585
0,303693061541647
0,300549385018483
0,303021509349924
0,298908110175672
0,307028099609512
0,296744571380761
0,302697874400672
0,301947892824201
0,299977814930384
0,298718573495891
0,302027106140052
0,296786002808734
0,301506326684053
0,293627654127866
0,300274217813396
0,293794656281203
0,301172150622603
0,291761840345735
0,296729579369931
0,296577705819122
0,299267591596097
0,296877743894529
0,297242010452124
0,288536921577644
0,292087319475658
0,285519993415466
0,290688402052433
0,288922283782584
0,290769848011639
0,287383915416833
0,290735267629218
0,283270369831547
0,289821929683783
0,280755493130725
0,289625748047483
0,28857457322524
0,28223490364294
0,283202118808996
0,283507455739627
0,276736749620936
0,288090221889358
0,276377021528171
0,277313124614869
0,276774018277271
0,281082111529566
0,275434929310805
0,280151205975085
0,270872002551925
0,27847734012155
0,272398259754516
0,277697176953011
0,269593748825577
0,276355543355555
0,270457345848798
0,271959819450362
0,265672527050077
0,277836845009529
0,272394974487572
0,271912931255351
0,26285343733241
0,268184986890628
0,266094250139635
0,264208014562933
0,259231641754934
0,266382462846971
0,260000205228447
0,267778234660396
0,26312276648983
0,261137714446432
0,255880630076072
0,256053818718015
0,253569505830448
0,256114830212197
0,251425803943952
0,254180179635533
0,255547597452136
0,258012070145225
0,251696649000997
0,259118308301335
0,251524506681254
0,253720824344282
0,252538368431932
0,253274314269626
0,249496976710868
0,250979261873502
0,249086617446049
0,254630949459349
0,244977866573954
0,243750910661367
0,249002825162771
0,250723707365815
0,245590615941777
0,24698995450761
0,244228097464555
0,243739382420922
0,242224782398903
0,246507649384884
0,235932622685557
0,243864577463299
0,237462447884119
0,243543566410271
0,240906662075161
0,23941676970005
0,235518780355536
0,238846873988314
0,237231553012796
0,239576729853557
0,234968718303647
0,237585062784488
0,234060231694537
0,239550287082272
0,234489657085719
0,236138907022629
0,233392363612896
0,235253359581741
0,231284747313934
0,236100074611076
0,23168711035026
0,233224747210478
0,226767904516082
0,235029802045407
0,236077409200304
0,232207892668168
0,230441172252611
0,234921939331154
0,230444124924946
0,230971757228893
0,230862024910424
0,233679777135579
0,228442883804423
0,229117748587533
0,227031684478514
0,228632378827747
0,223625430181029
0,229092682726107
0,227277503713919
0,23040909520742
0,227127996839854
0,227513582685786
0,226062773989882
0,230154281774977
0,223975821341837
0,22877359665296
0,223058835893805
0,226907930956587
0,222169144260457
0,226996575510181
0,218482355901596
0,224710404290642
0,225000240610456
0,227132489343327
0,222871010937792
0,223390207574241
0,223751697248835
0,22479520801131
0,219821440880626
0,223884343937432
0,221284659327892
0,222583314707819
0,219562112139799
0,222464166587054
0,219989803176292
0,221817435075267
0,21761736892316
0,220044797536276
0,218877935317794
0,220263950990196
0,219965633154726
0,217638604721768
0,217222700021869
0,220738203491884
0,215884861616506
0,216889420218603
0,215831628711672
0,217620044459142
0,217117596616765
0,217913096421695
0,21261632840851
0,216240195058799
0,214990977775813
0,214725125368064
0,214226904240772
0,217054021472275
0,212268284462635
0,213425732993669
0,212500069144122
0,213196135960422
0,213933290415479
0,216365849277668
0,211479882616748
0,211565313916877
0,209558845585503
0,213887227877631
0,211860203483207
0,209227134670917
0,210279288993673
0,210674360761435
0,20536506317194
0,209673940194113
0,209691674361154
0,207247129209599
0,211154879703244
0,210356880790852
0,205359129416322
0,208312972878207
0,208450114694078
0,206666962669678
0,205113790280031
0,210083810417077
0,208910041635213
0,207584665220037
0,207209025463346
0,205690701387205
0,20540296998233
0,207130884376992
0,20276291771387
0,204312538122384
0,208326708769835
0,208551577145003
0,20513723443508
0,205086247134614
0,205244507564927
0,203860996386875
0,204139233035532
0,205530407873399
0,200732545199422
0,203149803152782
0,199926129112446
0,201075631185093
0,19868686539585
0,200138999742708
0,198650000438022
0,201845488127184
0,201867580453145
0,201493519972125
0,197990164903865
0,201627107467308
0,197516042484033
0,2015811215325
0,196446115816969
0,195631365087748
0,192454806712681
0,197954215812829
0,195316307558872
0,193327190893358
0,19466540368023
0,193995672739976
0,193324840084389
0,195290561989137
0,192200467120596
0,195283244389131
0,194046661531565
0,19267973166456
0,193651466344121
0,193812892511014
0,191857643540022
0,195710324134753
0,192914463774258
0,191346906968048
0,188971899413814
0,190793440072262
0,189371535588875
0,192798554376669
0,188252220061544
0,189385143921327
0,186306391880433
0,185652672187471
0,185483464243029
0,189110036672737
0,184725847198401
0,18830803170718
0,187957314139866
0,183341732771676
0,184573572405523
0,187038401829077
0,183138386024171
0,182724666485351
0,183969173143199
0,180739548102561
0,179527208743228
0,182235137590255
0,181700063372164
0,181690977864126
0,180732076328771
0,17978604862449
0,178052232782646
0,177636028698592
0,179130730741056
0,179637991898903
0,177021903588569
0,178422602040663
0,178203317336721
0,179245567196347
0,175881954352951
0,174551644933504
0,17506527417427
0,174546200870143
0,173698536293285
0,176836341713281
0,170281956940161
0,171582727203775
0,170317019102068
0,171841140860927
0,17376696110643
0,170368308900828
0,172610983631001
0,169650838947015
0,172356674191489
0,171267037111066
0,170677257176076
0,170460843974031
0,170722687625258
0,169775630817012
0,168328558483437
0,168468556789278
0,166972195637604
0,171354202180106
0,169062207700548
0,165818907495843
0,16569319716771
0,164547771193619
0,164634270975803
0,166464700577309
0,166705216663779
0,166391034659616
0,161913071675409
0,165957729597949
0,165685002448821
0,162472889057528
0,161414614324846
0,164901063311087
0,165071279926566
0,165674537765378
0,166217670907921
0,161849833195678
0,164065857813911
0,163109905128305
0,16292028780881
0,164803982640406
0,1660290533443
0,162624625250017
0,16289399309726
0,161079806769318
0,163340388997099
0,16233608528205
0,164408340800019
0,161786257465073
0,160495017949622
0,158994171978409
0,160159901425089
0,158961128219608
0,162617326041879
0,162618109922294
0,159608686551526
0,160821789906759
0,168117901823612
0,158729142186768
0,158368267793574
0,15692322402352
0,163025825270023
0,165296734182572
0,162226619409893
0,15380329125096
0,161753635194736
0,156189766097869
0,157711553189089
0,155298588242174
0,155433084650345
0,157050098833533
0,164614821567791
0,157449947368309
0,155975566949156
0,148163240411771
0,158461881948047
0,150805137040161
0,154124220124316
0,152740506312386
0,161812753406615
0,145302786128297
0,158275462387736
0,148626835739562
0,159895694699673
0,147017876520375
0,164185982607734
0,145756209568283
0,160514153598575
0,137234411086381
0,165763552211285
0,139232882106851
0,169306063571616
0,140754769389027
0,168985907114256
0,142381298072468
0,169182053665566
0,137269232612168
0,16688021465063
0,127236061296671
0,169819226940184
0,131375646598263
0,176248177982878
0,126789983001805
0,168250270131475
0,126304040560225
0,176812865238216
0,13014766512078
0,166085857758954
0,129421454982998
0,165919081032904
0,141765386794698
0,151554627133975
0,147911712712795
0,14522938178421
0,154138697586929
0,13853396417137
0,163776007118
0,132898682200479
0,162971772047417
0,134552961307687
0,161182245403208
0,133122217219658
0,157414674987922
0,142228988261754
0,150708921307309
0,145670037651889
0,145199858697304
0,143797902614556
0,144987741236265
0,148003628573407
0,147345093214434
0,143583081897422
0,148548182948132
0,142354159295104
0,148105694560507
0,139856687997301
0,146957443242029
0,142057474215868
0,148720569792869
0,142499720442543
0,147505197040472
0,142781021725111
0,146828681561852
0,140355554592856
0,140368837226166
0,14096560634672
0,146145515393221
0,141821605921919
0,143435439199465
0,14172297727717
0,143686180615802
0,142095189970518
0,147972548720645
0,144037040725787
0,144506479341735
0,14047109525169
0,146290275048708
0,142725356032064
0,143101876501014
0,141724445761126
0,142217597887316
0,140250014473486
0,146630269044471
0,145990230797857
0,144861225019614
0,144285244712272
0,146191382896273
0,144373209810412
0,14416820251476
0,142455071021948
0,147776366993574
0,140976905610045
0,14487817886112
0,142626367131378
0,145209904782972
0,141792908125626
0,14167039527425
0,142897864629666
0,146616687880231
0,139438627298687
0,140368842789508
0,140504651949829
0,144911393936675
0,140250240491282
0,144763636137601
0,141543367736293
0,145232264894486
0,14233948761666
0,146280448928224
0,139567833463994
0,144535312544212
0,140223207173621
0,144198085188458
0,143130477718677
0,142493088053885
0,142370311637197
0,143486242372996
0,14027313529433
0,142834369728585
0,141047486290756
0,142389598392442
0,142568899502422
0,142307265803393
0,141657043302844
0,144737771039315
0,141035286476852
0,143275957352878
0,14315435198049
0,141757482201354
0,142419678025278
0,14333888105169
0,140995475252439
0,14480783674152
0,141167503632853
0,143538974887225
0,142144602868798
0,142387572300088
0,140957494162
0,145862402138432
0,143388190420756
0,143944240880471
0,142187623411983
0,14681434432439
0,144460743877139
0,140196298553688
0,144441857283914
0,146198702288982
0,146972909988102
0,144925863724621
0,14066758145643
0,144313889182535
0,14612425090284
0,145477249622273
0,143088051435535
0,146804057134825
0,145976015609041
0,146756984794532
0,143617465385153
0,146794033611283
0,147822330299898
0,145774279731942
0,145495556589687
0,145811202873278
0,143927014173359
0,14645536450556
0,144967516236462
0,147631638562761
0,144834603265773
0,147970892732119
0,147267407487276
0,146336733221142
0,147605748609423
0,145212289871309
0,144448331965414
0,148953185482072
0,146454431835636
0,147749900696352
0,149071404791281
0,149559356284127
0,144845292684658
0,149310791181843
0,150249290518129
0,14954391979224
0,150229243038414
0,149502608610408
0,145025078099595
0,150498718694688
0,146672499816834
0,149440630059814
0,148908696368009
0,148900818425812
0,14966721367352
0,148875783221715
0,148171134108175
0,152282935767757
0,15095874356764
0,152161293501222
0,150961862648947
0,151771015103727
0,153020462932684
0,149134746585767
0,151322961010657
0,152779120734712
0,15223955688183
0,152247664639369
0,151230800233076
0,151719475485445
0,147876304595619
0,152165091371112
0,14683946010742
0,15322726989843
0,151801377029013
0,150445448059632
0,153653010700202
0,152897952226177
0,152979556726584
0,153338795719512
0,152008615902468
0,151986845188601
0,151403524598228
0,151750307973201
0,147700129220401
0,148760690991381
0,149209249433449
0,15143060239402
0,148795083823745
0,15090460036294
0,152141448574731
0,152380791219031
0,150275154073102
0,149164520526184
0,148577184018583
0,147981582306768
0,151243815921301
0,147317685044371
0,147889532706692
0,148359933987598
0,149331213607148
0,147929697274029
0,145179386551073
0,146368278360369
0,149553606057302
0,145771729957271
0,148432251822413
0,148087173280204
0,14783940724741
0,148566404663245
0,144719730696945
0,148930072509271
0,148338989279128
0,147818395180162
0,148169745616122
0,147354396533222
0,14671804265586
0,144463800641816
0,146421243128226
0,147376263471774
0,147761610308398
0,145661080769367
0,147249809843837
0,146170613587573
0,144161937192546
0,143959653991631
0,147037963515945
0,143116329738819
0,143668313745275
0,146754903212433
0,147314109205182
0,143857947054951
0,144013111596042
0,146515804796799
0,146481273857177
0,145610874770512
0,143830987933709
0,145517410516135
0,142581466571112
0,145356253134107
0,141730903416553
0,143506069612394
0,141880694602008
0,144149965714044
0,14439939954169
0,14209002531372
0,141150751828328
0,14236856198782
0,14111383287354
0,145274900494384
0,141493367823892
0,143734698096808
0,143118634433451
0,142066736894391
0,143508537695893
0,141397231729662
0,144110284252076
0,138809215759382
0,140426015000993
0,141848794193274
0,141196901104934
0,140364140965544
0,14378102009889
0,142138889262912
0,141605299815413
0,140824352533854
0,142575967342621
0,142129834967295
0,141207087883458
0,141764332012539
0,142135246962888
0,138487646166699
0,138396235319186
0,139862635019456
0,139877076561102
0,138554518786882
0,140567487803429
0,137623358794776
0,138940838221732
0,139278502263904
0,139980458491535
0,14040348000369
0,13942188668402
0,139954679495644
0,13886603393159
0,138703785022294
0,138073342256653
0,140718345908898
0,137172558241619
0,139949674473759
0,134935273142601
0,142943145993782
0,138591091638713
0,136048671081818
0,137395278379403
0,134337995579393
0,136804803492887
0,137230125510094
0,135022265955421
0,134890716089705
0,137312397195674
0,13231651636998
0,133593564422247
0,135209953221843
0,131988792972841
0,132969452860392
0,130358655211581
0,129164515567535
0,132743548764446
0,130883759925231
0,129115150151325
0,128823887507711
0,128628701637824
0,130957108386896
0,126949871427988
0,131539253015694
0,129775619993039
0,130142886000829
0,131491508365015
0,122183601912522
0,127923547229272
0,124587099934772
0,126690983554752
0,124019080031901
0,124057823230516
0,125017773184627
0,125930806815055
0,123310916285018
0,122804081057588
0,11968100675252
0,125487834638201
0,124110230398135
0,125902194951501
0,120773179298973
0,121684592510187
0,119218739926716
0,12297764516112
0,120413695752935
0,120438458342202
0,118882403285167
0,120899184724018
0,117189673123478
0,119972219550993
0,116589398864081
0,122750637899107
0,115723325425228
0,121036311879693
0,116083953513495
0,117662288167482
0,11761626842842
0,115642067921604
0,115507147326031
0,116502124068589
0,116565163428026
0,118733132777219
0,11607231932512
0,115991627772907
0,118663038084937
0,116218514099172
0,116771132986408
0,117116936160246
0,118117838529393
0,117896674961633
0,116415537756114
0,114666360832093
0,113411344477965
0,117919890241355
0,114390575111407
0,116956594268891
0,113862049041373
0,117278860057641
0,115197055881744
0,112763814040392
0,116189975525382
0,111003234909236
0,114416671645813
0,115727229960184
0,115643754980207
0,113802670879182
0,114278257912509
0,111027409053908
0,11216456170534
0,114139991511707
0,112713138962296
0,112717965284648
0,113084307782923
0,112824480713696
0,113398465164696
0,110952972597489
0,114278278770887
0,109495135029706
0,112486356824622
0,110562537177108
0,112972091842555
0,109530076598035
0,117568505493879
0,105268163103059
0,117301177670398
0,117450131005115
0,108991927161442
0,115430455618285
0,109089010418149
0,11333426899743
0,109860795902146
0,110773156115558
0,11053691683817
0,110867369670031
0,108149948707706
0,112791099535039
0,108183892788692
0,1115207790877
0,107151225161038
0,109581071341542
0,106630023883421
0,11049615814298
0,105352801779006
0,109825901110987
0,108119540649949
0,114177683541397
0,115213131646883
0,1099418254642
0,110956838492475
0,108555021677311
0,105883998332628
0,122655945684895
0,101474233400359
0,115013563534697
0,103738331184982
0,111804842837722
0,103735236260253
0,11148189566953
0,105063793997434
0,111044109270491
0,108494327758474
0,105854184281279
0,109014034000235
0,105091114476033
0,108099211626202
0,108290666375099
0,107724130350747
0,106109797351428
0,106454361871326
0,106421898608368
0,104528761033782
0,105470519631025
0,102947397972526
0,108162503927498
0,0997284852543867
0,111054908305013
0,105638874744923
0,107139630506655
0,101101400566644
0,10946965869108
0,10107889565669
0,11180455955797
0,113900672935557
0,100218933914068
0,108146624299414
0,100763071944869
0,108308637839772
0,103414278174968
0,106048127322969
0,10252980134827
0,106586920784938
0,102465093146421
0,105671260733516
0,102449951002582
0,105478094940631
0,104385393665393
0,103829401420638
0,102224651084394
0,102160364646539
0,105652417755498
0,0993651816061905
0,1072692495407
0,100840252782582
0,109436831250031
0,106845930567296
0,111068731672652
0,107031696899478
0,104559347060608
0,102293142456585
0,103210377947849
0,0996308336367163
0,102382263213909
0,102577035139276
0,100182262598701
0,103083575201383
0,10213697507202
0,0993029286553999
0,101943739703652
0,103718522105653
0,100883346794119
0,105133634833248
0,0974714521665791
0,104223885915209
0,100275739634642
0,106497112600921
0,0963920498629285
0,110410689144365
0,0957256271435601
0,108978482767015
0,0927377138027285
0,131944667011311
0,0977636467016947
0,101944658906245
0,103977098775041
0,0985356203645285
0,102940942185926
0,0965124548809804
0,102443311058971
0,103516939152506
0,0996051195754882
0,102403134014401
0,0998427723407793
0,102451333253913
0,100809312606907
0,0994954673798348
0,103161038672277
0,111620703569917
0,0932782416322883
0,104584924942263
0,0993160933977216
0,104213643455271
0,10624597391233
0,0932756379882785
0,108053127834106
0,0953135306278838
0,102677019289836
0,100759068297074
0,101544923642594
0,0989064217492465
0,105576666151362
0,0999193320704389
0,10005837980968
0,101918744527116
0,0986879238174975
0,107210508007425
0,100219266491851
0,105387663798283
0,106712409298581
0,0969863227678483
0,110047834205548
0,100361281504356
0,103656342388035
0,102288455832935
0,104803199645248
0,101415268470164
0,107724195488258
0,106181191971707
0,100462043674385
0,11083777523171
0,102985626995892
0,0989240850615367
0,10770788888298
0,101373721389929
0,109253075338646
0,100581873205395
0,118039580087708
0,1130431832876
0,0977405927169632
0,118086243996285
0,0956382251718298
0,113420018836337
0,0974298997031899
0,113000207133198
0,0946056907673801
0,117060175508393
0,0937180195914351
0,115261377540309
0,0983378225218204
0,120146031500349
0,102062735586759
0,109071300400081
0,107772118319752
0,109886511387381
0,102992431574881
0,114658529606948
0,106478983691302
0,103640166087332
0,125881043179532
0,108470616926156
0,115026374254823
0,106775636194181
0,103919082520673
0,133218967369885
0,0990095927643359
0,117413619035265
0,104131830389456
0,113968725562919
0,108898009342923
0,113858151818992
0,126486184723435
0,107692148728189
0,111856549702932
0,117570379386801
0,106102465404199
0,134458105769473
0,110891224294462
0,118503527317626
0,111000865415241
0,125398386782348
0,105642329964565
0,14571344800667
0,115253046202727
0,1274515633609
0,133669788529511
0,12097961739453
0,132520984991927
0,123036564081072
0,129519631646009
0,124012754309736
0,134200579015539
0,120321111617827
0,127591417857847
0,130252763432202
0,14243565089078
0,121842134657277
0,138740034183881
0,123338866867664
0,14102686261796
0,137785154742816
0,157176140178635
0,131856293346788
0,13767356410715
0,126183319461599
0,157573733685822
0,129330085685463
0,139879403381517
0,134155387686167
0,138704751819447
0,141085045390423
0,141871135884463
0,151490502731464
0,139040358373597
0,144158720939845
0,148349057587757
0,146774833294521
0,165298938249537
0,153236580832713
0,166142075982649
0,146789235472371
0,182527860391912
0,150658556795101
0,158477831140909
0,156686809494616
0,155743781039995
0,166546555759614
0,161131558212215
0,163434180701584
0,163540256591686
0,181501656543232
0,172652670817557
0,169514185924069
0,192645837169266
0,166753088377856
0,197611350524024
0,158532430848082
0,309434827823918
0,181685225377306
0,20815888766764
0,202914261322138
0,211787391238495
0,232527515514747
0,217853736953499
0,221465651251477
0,231289612012624
0,231348034334917
0,241940902950009
0,250832561011452
0,252697165258904
0,268231982655487
0,267034239105543
0,265151598548122
0,296294472751933
0,301445709744915
0,310583758859953
0,305326259254848
0,303133119132767
0,314969547952081
0,330176746627761
0,325258944800514
0,34142957681599
0,344939434883174
0,343827861094531
0,399208207877215
0,362497837459759
0,382067569763037
0,374015076937232
0,410610832395691
0,380965998600625
0,41906520439305
0,42016601343662
0,415573683753936
0,42502630505501
0,42273682007951
0,444985309000389
0,438438649864323
0,480903096065523
0,460546623205897
0,469168470657002
0,473404256888398
0,482678700143482
0,48950043853661
0,490986731208473
0,498751251456201
0,497600947117061
0,516704406235049
0,502983834465463
0,563775066453456
0,531161915273474
0,504962389038336
0,51893685430312
0,497213720471308
0,567474334723095
0,516759607952726
0,541299884375062
0,542655036963877
0,522631023686722
0,524806805649401
0,514170146326035
0,524527390254346
0,527720873471141
0,528549303308434
0,514800284299897
0,536722093977505
0,52203744328045
0,501191549826896
0,570435192717728
0,502974415205518
0,517024852897446
0,498992296594847
0,517010161065827
0,502724165302864
0,515361415667354
0,486064031224418
0,518180567061557
0,477497059495253
0,50130207349883
0,476208300826041
0,495188644639087
0,491743964815012
0,471529027700715
0,469745736111525
0,459896796553496
0,453766459069698
0,455712449830923
0,442938885435581
0,487754983524674
0,430564960216193
0,446199704490602
0,425901384557441
0,425466574142919
0,416861016979964
0,417158710319164
0,410378837412625
0,413946646878506
0,392673732207146
0,409291954052942
0,398057512161455
0,403251967162974
0,393575191686215
0,399288011178688
0,388405194175821
0,391137112877742
0,386397729764842
0,38237236507991
0,377158243035357
0,377531950846388
0,378580049658377
0,379912674404965
0,374236225542355
0,375549960829027
0,373381635422929
0,379138815708316
0,371565370102691
0,374775296954317
0,37062723197096
0,371169008556836
0,363552961167514
0,360413270289761
0,363864845534627
0,365475543376852
0,36953028824684
0,360945300954258
0,363149426642506
0,3607015501251
0,365084936203451
0,358281007648982
0,363592576527513
0,366466660243297
0,375860627818228
0,381302084424337
0,351949205567877
0,36388317734968
0,351656391341002
0,369744015007685
0,348858859847871
0,379547315126382
0,374023194465143
0,349021546599793
0,351324102516779
0,35202538552766
0,344793169194046
0,357057624524824
0,342478381377693
0,358807250053742
0,339964285867348
0,350144812948115
0,395895502310919
0,336048506845599
0,408138034666947
0,342940977961395
0,352036949058953
0,342030029551902
0,369107911672576
0,336954634646868
0,347653545796211
0,349212277466555
0,349498485808652
0,36056778764662
0,338792552162385
0,352861160908632
0,340093119578151
0,342059883819241
0,356453445408497
0,348972793228832
0,336983711927602
0,36719289414745
0,341178905151096
0,336575022948436
0,358523208966072
0,341635449062559
0,327420567839813
0,329671016860478
0,338354880473544
0,325876810817507
0,348426507219428
0,331517403596023
0,326027309399811
0,327128096989984
0,306564986809274
0,326036732339096
0,31223577349641
0,329154895559229
0,299519020831321
0,333892909681381
0,30220105406409
0,309457357551423
0,332511192617684
0,319890230266488
0,328449508599696
0,307777700243128
0,307704632347073
0,311619011450218
0,329788341225634
0,299880323812041
0,299515966944027
0,298751935777979
0,28970974422416
0,303533451256491
0,288629887552429
0,287522467334799
0,305321671659112
0,297068875695479
0,32263945393039
0,303418748396961
0,304179832027197
0,291144632642854
0,282466395611785
0,285723435349091
0,280062122503028
0,282114921409783
0,289620111744877
0,276046658367373
0,298064755544914
0,271011256247164
0,314299369896176
0,287773027909689
0,290130621326478
0,288996114313974
0,294442440984348
0,295914790445296
0,314519675560735
0,308309310100579
0,31555163336363
0,296360393635422
0,325114344741865
0,305203575107687
0,319578298140378
0,314997726511593
0,325921270519925
0,323576181173984
0,338816639691663
0,344207881538709
0,350771292602029
0,351452485615485
0,371342997965847
0,352160066084072
0,395381692506237
0,372079656730837
0,394073065543007
0,417952186814003
0,411943585806896
0,431471039751173
0,422587486628573
0,442656506358984
0,445250432826864
0,452137133487998
0,46381036619999
0,462616480550731
0,491968621972348
0,478588179689725
0,491875846287738
0,498237842989793
0,504467458621109
0,507151676307864
0,51788308648848
0,535763760072242
0,505602437034636
0,552229299602332
0,522764790581864
0,550788989837227
0,542528377279278
0,544972418844642
0,544627664545782
0,538556388699907
0,554111805081596
0,546923570586284
0,561432953034765
0,554666740333715
0,551315459596923
0,556438812655266
0,548674927898606
0,560734413657145
0,560674636404122
0,565077378185499
0,575401846358604
0,573343508541706
0,576566744118692
0,576303912576154
0,60464214474652
0,596666316002572
0,574312334297517
0,599180217336027
0,591187951241629
0,608654258783498
0,606021295519497
0,61038208730353
0,611464611768299
0,614559203739606
0,632511498114288
0,615358711403106
0,627223245083083
0,625391163034012
0,634672416484161
0,641427295152103
0,636224665884154
0,654150284573793
0,613782397450422
0,684301423742012
0,647046573211635
0,671147696555614
0,664154885920708
0,666265733708377
0,658969276069365
0,66185957370615
0,66716021391706
0,665932842415353
0,674376286824714
0,673124828695249
0,673396370710715
0,668048244805487
0,670109682366865
0,664590055446069
0,672313507760726
0,671102054768065
0,664153681185194
0,662704559587204
0,663836411558085
0,662963300654273
0,657431179662411
0,669157724465675
0,656592191707266
0,660086730246051
0,653317418876721
0,661277455526223
0,646856997058542
0,648200066291403
0,645412640685241
0,653305955728193
0,642288698959743
0,660184595627084
0,647656585234434
0,667041168833156
0,663010524017428
0,663616170562961
0,665166075336021
0,673549590611884
0,67350333391892
0,685234608455519
0,684907950923781
0,687587435663878
0,690988113602131
0,697094076215117
0,695372639738463
0,691824568179445
0,711308594934205
0,726612834371893
0,719957440668071
0,713172652082796
0,710968398293081
0,723538837827165
0,717850997425519
0,723324163852359
0,71050808869692
0,721001418453158
0,712277217941068
0,708709328080109
0,717448606528318
0,710641144020592
0,709665295838676
0,696930201787465
0,708512566144127
0,691234695884967
0,698120853212258
0,698111339686678
0,70254891508844
0,687115402889403
0,693902595673371
0,683796999482179
0,680472725061839
0,684364181779144
0,685832754933997
0,681485326532224
0,685550188124207
0,67963781002335
0,671628188537407
0,666235753665515
0,67308795030614
0,664083863511358
0,675598502108126
0,664549320279531
0,674387653725354
0,679066852959671
0,68133443898534
0,665832536777223
0,676960359926166
0,672281185953199
0,679460150212283
0,67701571446478
0,67413568814478
0,671284106431391
0,663760890843787
0,661380687689602
0,660042536982261
0,662326560947807
0,657064741762678
0,652670571906085
0,65583297383149
0,654056378966806
0,64744078156282
0,65203932547995
0,649429865812645
0,644889053314025
0,637871441154835
0,643402605728466
0,63599544135556
0,630504788874208
0,627696580813996
0,629602992224507
0,630889524386524
0,630997106164074
0,621021523481493
0,615588649382724
0,620254675479051
0,619135860050895
0,61439204554619
0,617144292714208
0,612801017968389
0,613390765307796
0,615232762326482
0,608672641016746
0,612641681705005
0,613647494678423
0,608851501479153
0,605008345759495
0,600333058282045
0,596461585082309
0,598718718907321
0,590340776799137
0,585205952761969
0,58258101508063
0,583440304446815
0,577819079050871
0,573769012784918
0,566744911973028
0,561176540685292
0,557608594554772
0,552862860943705
0,554717334356043
0,549161800933523
0,545591787385947
0,543384579844996
0,545167522772839
0,541351534370916
0,539984267240707
0,538603998411473
0,539171521564024
0,536790485437413
0,536189886592568
0,534469402843632
0,540938022026671
0,535439137227667
0,535130428607859
0,533877787806368
0,534037798559657
0,539969812441258
0,535407196250165
0,536720429575955
0,539498008056131
0,544811301216118
0,544974335673333
0,540601458194684
0,544617375735967
0,546041191073368
0,547037436547396
0,549703358185484
0,551366004293522
0,552631284719442
0,553488646964557
0,556808862154821
0,55957401339023
0,559094467590428
0,559003393706252
0,562866974393128
0,556413433631254
0,556845693693264
0,551185930550131
0,556545431915632
0,559204053977913
0,553247118373649
0,554785709373338
0,556171024561407
0,552484050077401
0,550235512785639
0,55304726194469
0,551991102023716
0,549012412079538
0,545687558811542
0,542447486252704
0,54705528893732
0,544515094551233
0,538778318806543
0,543609287326505
0,543369052435246
0,537814947572558
0,536668703572589
0,533784235149381
0,534593285397711
0,532541214212928
0,527712677345491
0,520959353036551
0,524031697378233
0,519693885132604
0,51833431422668
0,514778213326336
0,51235859798721
0,508484924799733
0,503160906985029
0,497714525266294
0,494144783614777
0,4883535263599
0,485405022792324
0,483549514440399
0,4814553588868
0,476544404054118
0,472616717548795
0,471297965355704
0,469312108132571
0,468595587760058
0,466053239373389
0,464666965184418
0,459053700651459
0,460756731394628
0,455073723571195
0,459081308459046
0,458054343153228
0,458395316989309
0,458279267871848
0,459494095906805
0,457707154896915
0,45920429996254
0,452694501769414
0,451706187311536
0,447752629040735
0,448074659810541
0,443427226894416
0,437444441860941
0,433721218138548
0,428642757637967
0,424868578128205
0,417961486630662
0,413245784303838
0,401708101755526
0,398989417573294
0,392770502329153
0,386699360510487
0,380484762626058
0,376474960076422
0,37492719713025
0,373434009689354
0,370202461287098
0,373670046212949
0,375944105080892
0,378474326204512
0,385324709803899
0,390674943591031
0,397816610836176
0,407789990890544
0,420118928744501
0,429624143758663
0,443249475361694
0,461960819515573
0,474348945110931
0,493760833617974
0,510200775242417
0,529075392023743
0,551464666522092
0,576546614613439
0,600589593831769
0,61913187024335
0,649574995858064
0,67910109961704
0,703875784685722
0,739117430270434
0,766620173994683
0,804722119832963
0,833502086267126
0,862846696723277
0,883109852016593
0,920087889830676
0,943688533367986
0,97970732422098
0,999483108043285
1,02187520253814
1,04295822518205
1,04368729112806
1,07122759856181
1,0827296682683
1,08463514133936
1,08764510937335
1,09568323848619
1,08584984502509
1,09846780525821
1,09021968014094
1,07680098877807
1,05873727264482
1,05175435858897
1,03684806239584
1,02713264129757
1,01378505800034
1,00718109657679
1,00905255597856
0,997448719475038
0,992410185480089
0,985207989739638
1,0032564007525
0,989915207719697
0,9782722162524
0,986564260940017
0,98506178071949
0,990716270088235
1,00087675843999
1,00490334079687
1,01694065040107
1,03212343262182
1,04402600536547
1,04801335189713
1,04146182110666
1,06006256717554
1,05768441415755
1,08034332054752
1,0869005003251
1,09661254596075
1,10755679783218
1,12038316158637
1,10657798942967
1,11795236907609
1,12723363521095
1,13904992720226
1,13301434449729
1,13141641572649
1,13554792415055
1,15810096128801
1,15019287068336
1,1579327011008
1,15920432494613
1,16948920159419
1,15461534327154
1,19519258441999
1,18646800757979
1,19879283264046
1,19314043462545
1,20699009338929
1,21330559585465
1,22915365300867
1,22012323152252
1,22498356281452
1,21109464524605
1,22958351409829
1,24349753031207
1,27087803361745
1,26100788694139
1,28473282970555
1,31140400801559
1,34280904144074
1,3408501149446
1,39876795856056
1,43724554122434
1,46677361012111
1,50232304718001
1,52135321915685
1,58104313847076
1,61428709998102
1,63925431242115
1,61018171631905
1,64772188458175
1,73757439552422
1,7596073845011
1,73986563098532
1,76522070232801
1,69354889388771
1,71804317941269
1,73838048257246
1,67857357333291
1,71173174981288
1,65815119612354
1,69933545586087
1,71032347602824
1,68466867365592
1,60235197791379
1,70646388981079
1,67482376467256
1,6522277440551
1,67391097283045
1,69664952736242
1,66845132292329
1,72132547081868
1,72367831914304
1,86133721425584
1,81943016293392
1,78623729572524
1,7559991135108
1,79658348927422
1,80791053928992
1,8477596122375
1,87875511618295
1,89719844444311
1,9107940317741
1,87021213639918
1,8833534391954
1,91258318656291
1,92935297247096
1,98607109853552
2,09824241408419
2,48016601827516
2,26305995051346
2,17860309078755
2,15547625907237
2,19333346214919
2,1969166094948
2,44562249702053
2,38180644183446
2,38705693330765
2,21201650796213
3,06040723507974
2,99499447070545
2,27701894075344
2,21941114918575
5
2,63388094266143
2,86041984238007
2,58651084000666
3,19342658626997
2,78815389675531
2,74992392319431
2,42140112842605
5
2,9473702630074
2,55843499339311
2,74762347162729
2,75975270877989
2,4111747742084
5
2,22742636809741
3,57359004870444
2,43228231574816
5
2,89707433232671
2,52712504543911
2,17321856538046
2,46776009623604
2,18235500317108
2,79059542571703
2,23421544946949
2,4641083427543
2,45833589135917
5
2,18842387131872
2,63491222026741
2,47425459921071
2,23885614294636
2,33001679718819
2,57530473369414
2,17970123907159
2,66827802170703
2,21973627817474
2,20378426498649
2,22788402061913
2,19338060564122
2,22967091447066
2,39446965988435
2,10129289200212
2,16366479746079
1,90503450099564
2,28525415579691
1,78902796510073
2,06157352265986
1,85927924237645
1,8708321897673
1,74745515720713
1,81277066266445
1,65150603599856
1,55004623360547
1,55468741774569
1,48301827941156
1,48242027813698
1,51189885233279
1,41430127325493
1,42039000335707
1,35467049702521
1,36893277056329
1,37432128538347
1,31156566752567
1,25871778543753
1,25797517098427
1,19193554129441
1,19851064630922
1,15228080586554
1,12715567796026
1,09474420093158
1,09353760451692
1,03177446611693
1,03946150123424
0,982329868414425
0,976986245988749
0,940622286180591
0,944871444165038
0,891359125435742
0,900925142812146
0,879118604261757
0,876055814086754
0,865160423696701
0,861378012766659
0,846048747499785
0,850672741526901
0,839967205950044
0,857527819773081
0,862934395304169
0,859215961566821
0,848665978604078
0,860710824057623
0,843891370756623
0,876160108714205
0,881223629436282
0,897825572253957
0,881716570502373
0,89996073896902
0,894062370276778
0,904813624132231
0,901580473457909
0,918220979010921
0,902561858218743
0,907501385613893
0,906549040762174
0,922198482609239
0,879990141496664
0,921792951447065
0,90455579167574
0,918006293087466
0,889503279649916
0,900523711432548
0,910883226356699
0,896461673930434
0,87985458324564
0,884202436622175
0,885114437587516
0,885271068263764
0,859933160974505
0,862189941817668
0,846236828648289
0,850289578819422
0,824697519832622
0,844906059326468
0,7977586105874
0,812429768295891
0,795315413271309
0,806716811404028
0,799749314487345
0,812640721508979
0,790045714138231
0,807322632629686
0,801358871002044
0,825882532192239
0,805429839984859
0,820956170634635
0,809429326342921
0,841879834526829
0,822751508696089
0,85716951104694
0,840049773723505
0,877943029296911
0,8527647117938
0,851943812518195
0,83346900904536
0,883676847439
0,833425964666488
0,863415694734156
0,816356116617769
0,82448487066075
0,802151519621993
0,792069456459967
0,76111804509361
0,781869659755152
0,759977846210671
0,771783031113035
0,742735455201757
0,763120153487624
0,75851692523856
0,765678075788289
0,752788147863437
0,76568574424314
0,759192054320791
0,788670435025278
0,764434443741584
0,782170268088243
0,754210800835992
0,786069051763067
0,763647502826306
0,78109282132745
0,782066654715713
0,818629006875918
0,786029194545296
0,79389229654712
0,786692933394651
0,800585132908564
0,779889616232166
0,802247513650551
0,81625651759895
0,789230514758166
0,808130096402726
0,811001339179003
0,80673323058383
0,826272935793655
0,809707949067272
0,83983826789049
0,792634956369422
0,806424474737387
0,806236343345345
0,784819135813405
0,801668325553528
0,816061873017517
0,788096533393262
0,816398922399394
0,808487432475242
0,777203553384026
0,801453184159427
0,815845117132875
0,782643382795513
0,786447373472267
0,780521239289719
0,788468594076007
0,770812713615189
0,786076376904196
0,763819326334484
0,770425219884571
0,755288503674376
0,738837841463494
0,719581575068563
0,710841775980604
0,72907738757524
0,731583695353941
0,691378792280977
0,716605403927335
0,713808677501431
0,706841477585362
0,682825010608422
0,730563675135698
0,677496046207624
0,719436994078668
0,678869292326834
0,72008826643272
0,709784834544673
0,722795546972181
0,682998144925224
0,737846269596517
0,692577388844785
0,695175528740676
0,693451705435988
0,707822993919978
0,715504128112904
0,717696527726557
0,699419651879401
0,713315754446232
0,709034817201484
0,73746435774268
0,697417952482198
0,740985230908967
0,734278183563928
0,754607184554471
0,728928943621779
0,729855280454572
0,74043483443707
0,774132021885109
0,774042173884443
0,817914804025956
0,823666395624832
0,839008473013145
0,820858336816575
0,850233119260754
0,866933556382513
0,869692471610602
0,890364425363992
0,871818784959392
0,902853995226609
0,920203605299443
0,848259030445506
0,985015660836331
0,886184912469695
0,985809329928305
0,98327205762478
1,03090265479
1,02567211786898
1,01188226825686
0,957205187946427
1,03712015117274
0,97203753970248
1,0730331206388
0,953166106530736
1,07942020603405
1,02780365964571
1,14780403343972
0,963880519372948
0,990127004463192
1,05345583880338
1,14000998656085
0,965386190389805
0,937848131466104
1,11199931225948
1,04700417157273
1,05038306156765
1,13804951545743
1,05197030917083
1,15959728756782
0,984141098021959
1,18724304156122
1,00395712130807
1,07716962442009
1,07049828104425
0,976638281234428
1,08278618971588
1,14480249130464
0,997540211753047
1,08796784393357
1,05387075354747
1,17629987743809
1,05405859630769
1,07137047416198
0,998016747926813
1,05524860792682
0,99922567844047
1,17585678161144
0,892430230853675
0,970855675032219
0,94311706768169
1,14066621432313
0,921967528826349
1,00597216773466
0,967051421190888
0,928483911905638
1,13084929851901
0,914053277041369
1,02162498941515
1,07734445535802
1,02779752873825
1,19420294529241
0,956733593231507
0,895197999283043
0,990064239044059
1,14093733694169
1,08339158348805
1,21425856062528
1,06484916842593
1,09829327794995
1,14340508675885
1,28344761183896
1,06078466819069
1,10168846499877
1,01971922779755
0,954096726139422
1,0435956319632
1,18596256589995
1,08438336042382
0,942650087854655
1,25754414548757
1,19722763274872
1,00976184295638
1,38581946226334
1,0794258897091
1,29488654803679
1,29224059177952
1,51597663794677
1,10406876908157
1,50083567163155
1,23109313411841
1,21324703129695
1,09944708625697
2,04163249361959
1,29431447037586
1,43459195642217
1,13635089768758
1,44087318859204
1,13221709215017
1,26887247370342
1,270072573411
1,82288679885625
1,17386500110205
1,20869688412856
1,39383897027714
1,2216594743888
0,970546292000675
1,3143904107803
1,30994220798216
1,77883392834204
1,31081138224343
1,27756129658799
1,06232649550034
5
1,04604771044038
1,2869522713673
1,11345472477262
1,13342211072303
1,27178296854616
1,65286797681461
1,15322750569816
5
1,39723523048074
1,14481705312758
1,29845272664618
1,28953865545087
1,19719898340051
1,43043528414526
1,77857497469606
5
1,13309244696594
0,967194224542482
0,921521716133018
0,979025474922196
1,41197005175382
5
1,15316498637055
1,97411762219005
1,05096056408108
2,30118372637412
0,829864031637795
2,50028181057557
1,48189670485612
5
1,13861028187357
0,864838359739532
1,93196165453423
5
1,0266498271029
0,884691906876837
1,79854216094956
