3596
4000,36533379555
650,420452594757
1
2
2
0,0369122638640751
0,0344317943075722
0,0335813882404543
0,034432141036477
0,0341494108305226
0,0414870136212346
0,0369764328509202
0,0343142743577209
0,0386459447644317
0,040090850890529
0,0322371819833256
0,039991223474516
0,0394387757445858
0,0353524148829688
0,0372998860017325
0,0304750917544114
0,0434568555449524
0,0385252568539204
0,0294348077370425
0,0338945158990787
0,0373007170555408
0,0352342150102706
0,038379550740802
0,0420498894186298
0,0401627366721001
0,0362951866082734
0,0364892211760988
0,0410920336222011
0,0345997112276919
0,031670335720892
0,0277319367658613
0,0237416283663503
0,0367181178140639
0,0390562850442286
0,0364717930270618
0,0323486371359068
0,0325979532348201
0,0356960972805429
0,0354101586341941
0,0356213972726448
0,0312454060968539
0,0248045161830683
0,0305050875976766
0,030127994125114
0,0330896945260826
0,0351372047937333
0,0341623918427421
0,0340141635083129
0,0343795631689543
0,0329549410010194
0,0333002837145666
0,0327729298942194
0,0381336157241113
0,038596987329527
0,0315034165009356
0,03451278090734
0,03304604630725
0,0263696894269738
0,0264565677093231
0,0376513199385179
0,0382594453632635
0,0288334123860669
0,0259841173281459
0,0346429242937538
0,0346529455544915
0,0276877648585085
0,0326564851246381
0,0355218534008786
0,032319849115343
0,0323719857633666
0,0309892720280799
0,0290472623563668
0,0301017293396929
0,0302991582118787
0,0326855344450108
0,0358948865160039
0,03360357972232
0,0333174145288776
0,0312266060789717
0,0252226493345364
0,0310906734958768
0,0347046732883308
0,0294147725004367
0,0315907714883189
0,0387608443187286
0,0330478024581299
0,0380556899130998
0,0331627153797752
0,0258801849330101
0,0266720350156513
0,0337364491566144
0,0343352841711208
0,0275234123120804
0,021682599887312
0,0381475954027414
0,0381968535018614
0,0245138992898116
0,0274329520861612
0,026582915735496
0,0281886861690258
0,0232225978803164
0,0211135500899272
0,030152334470236
0,0320437105999336
0,033341381537012
0,0266882847724254
0,0341421395387096
0,0383927955849179
0,026756338022062
0,0280045089440847
0,0316162988786659
0,0370448277643131
0,0320059186658309
0,0312538721447544
0,0323257875558092
0,0296229523864373
0,0318686747555292
0,0351703430324474
0,0307367058859864
0,0276193362328232
0,029822669125602
0,0214961808984656
0,0201806970708532
0,0362490478708378
0,0286760373621715
0,026685686152246
0,0310915082818065
0,0179302286299119
0,0229109858399955
0,0248394208534289
0,0297521547885501
0,0285250847702633
0,0279503873528681
0,0264439494963001
0,0242537963930423
0,0328279427543193
0,0232168360616002
0,0215671736537219
0,0204515483713155
0,0133339108149404
0,0230090555959279
0,0207228798372388
0,028211489268125
0,0285156070032577
0,0238546264786145
0,0181938804380299
0,0189522057746762
0,0242220506226658
0,0310084740228645
0,0269720507387104
0,0339752729939889
0,0262454790082292
0,0245736910105025
0,0259970876137159
0,0234546920837188
0,0392466354271342
0,0213262331640293
0,0196194896177875
0,0175622112601011
0,0213053679021782
0,0265619331881821
0,0225495372716574
0,0233739074805248
0,0258031374399433
0,0263835502351479
0,0267541180461802
0,0321137732987442
0,0186760639481853
0,024176302685582
0,0267883295456204
0,0262079871409411
0,0289392579894563
0,0245700624802637
0,030045252461989
0,0242920968951706
0,0312612631670239
0,0277763359290359
0,0301986905096698
0,0276055481371576
0,0356966389075531
0,0356292966267715
0,0219148831028938
0,0274385121980579
0,0291701899822726
0,030904954916618
0,0326369826570988
0,0247490933685168
0,0218834622950176
0,0293272371545399
0,0334424433473718
0,0311538276795346
0,0272130535963902
0,0254608492841163
0,0244568379948987
0,0329857630992311
0,0332578638523127
0,02461797432651
0,027233715125501
0,0274861987612448
0,0202263421863098
0,0192700248483559
0,0224115939563279
0,0293240692613284
0,0281475321593607
0,0299323529502396
0,0311834340437908
0,0366419400537783
0,0268302099585633
0,0244035478638141
0,0275527088477897
0,0317069342196498
0,0237510887546226
0,0335777996046302
0,0223091100610161
0,0292793010557116
0,021891648190518
0,0216127001338944
0,0281208047007536
0,0326418501790317
0,0281361688924273
0,0212417106993607
0,028414095248892
0,0314467976636083
0,0315261543234146
0,0216683196194494
0,0368727628238237
0,0299757814219572
0,0311788047083322
0,0334368394092195
0,0340068210168829
0,024436657110676
0,0279700849669237
0,0374248781459133
0,0344244586224735
0,0375803709575309
0,0349186475775481
0,0222496920911548
0,0287930072641126
0,0272261825070028
0,0263510105496557
0,025484136427508
0,0308107992141514
0,0261790454525431
0,0291974813778473
0,0323604635700695
0,0284545983673722
0,0236141328105519
0,0265906033650299
0,0331872162481775
0,0217067750522077
0,0331717941867199
0,0266683453130997
0,0269487164511001
0,029698576381874
0,037795630648769
0,0299789228146684
0,0229773751959008
0,0256770920489542
0,0199094932930839
0,0263151470863266
0,0198490940492983
0,0327643179053518
0,0328492085779538
0,0328193662480339
0,0338050655780131
0,038708703802443
0,0138595705657528
0,021865080437594
0,0358631969003807
0,0354138313433775
0,0248888348061793
0,0246362002002081
0,0283224867013582
0,0248314527032759
0,0265159857499906
0,0312520647240788
0,0296741980106403
0,0283239549605449
0,030969956634285
0,0298579671710973
0,0337197435677154
0,0291635465128173
0,0264808092057311
0,0141105892371674
0,0315959397616723
0,0270879968194512
0,0379746390449815
0,0284412060338524
0,0327815906756912
0,0326607403308089
0,0308237056842659
0,0289540554649147
0,0234178741500544
0,0357711460899682
0,0316681884458821
0,0336763635108083
0,0298748085674388
0,0334324530173671
0,0324025109573738
0,0390569210906229
0,0332052016117179
0,0363266939114145
0,0295112201230324
0,0276164169106473
0,0329666083505466
0,0338253711670684
0,0388244875415553
0,0291777823507667
0,0359594413356979
0,0334693941961416
0,0328341303576966
0,0300797248319448
0,0305730687194796
0,0317749395871546
0,0390594744594497
0,0342683855138002
0,0388393150009309
0,0345770671559178
0,0377896185452926
0,0373590824625733
0,0315519663758133
0,035226916485662
0,0333080115751585
0,0387087835347256
0,0358645896312328
0,0352687530206963
0,0300294117862703
0,0423667758084248
0,0300132564014622
0,0346120668189292
0,0477686335562776
0,0404894540124838
0,0443657899490204
0,0304231093308029
0,0471051833811115
0,0364950351178221
0,0430133581907499
0,04408006350779
0,0520214150254116
0,0445263366818477
0,0455306633331529
0,0361175877574416
0,0449270330925036
0,0469211706537893
0,0448252831798429
0,0507429808426776
0,0556949275719547
0,0471385553094859
0,0403593892874701
0,0429179797295499
0,0442733760741462
0,0536718944059481
0,0551923268273185
0,0514936255840497
0,0484987303767334
0,0546762098561086
0,0584879094068149
0,0565453569209728
0,0560307951340685
0,0531515752204701
0,0615482803790071
0,0638622088910596
0,0663805271697114
0,0683344399467139
0,059886970639066
0,0707335520213663
0,0706577115532039
0,0664978489271332
0,0687658251428278
0,0725461528995354
0,0741234838925255
0,071915333178551
0,0833743023830743
0,0858304888368992
0,079043364132481
0,0777481599043132
0,0779170000265169
0,0802890156817376
0,080596931759919
0,0823566444675674
0,0806560632647094
0,0879439808868206
0,0885840856733351
0,0890034948469141
0,0919135254697068
0,0986963529521695
0,0910934121910892
0,0962765556268027
0,0969249161352679
0,102897067006754
0,104495801968047
0,105795380345323
0,109126211168421
0,109217667411179
0,118321307251999
0,114827768588054
0,12947888835708
0,131389915005541
0,11123997657937
0,114155855501403
0,116658012983869
0,121711651974099
0,127981707051542
0,129051100865439
0,134796262865582
0,133911072403886
0,138919188654662
0,143347308701026
0,137274626570303
0,128278304563781
0,133428329012469
0,137594707958275
0,148220705184799
0,13680172885916
0,148810579295709
0,150569491640309
0,153411081485383
0,15749159754569
0,170634217618164
0,164554868954937
0,165521430110958
0,156730238662624
0,167736273043418
0,165162932191453
0,174401433612668
0,177391862600657
0,180058585427235
0,176100066015156
0,175153703093923
0,183700062184405
0,184600253975322
0,182383695721662
0,199316354248249
0,19672680239062
0,203712184107887
0,209771884582179
0,205747865313086
0,19813400589789
0,201685655809292
0,210591434472935
0,213655873706649
0,206563708022495
0,218070180251599
0,196640691897042
0,220735788494753
0,221317458748628
0,231558205747161
0,2301248649515
0,235864575353306
0,234119771725701
0,24659166979169
0,241095872517727
0,247994789442458
0,240710119465235
0,257401069357861
0,242500432950326
0,266038500457376
0,253723616526465
0,250769890244165
0,278406619139834
0,268997564898485
0,267380121249797
0,282217299463793
0,258731782479633
0,294518835417254
0,268675036591372
0,287044556701226
0,296816866115817
0,277814416991714
0,282663495286333
0,312767518886002
0,301146408659316
0,306733951201858
0,299985664906604
0,314264243525912
0,302896953294997
0,309814133379113
0,31358689372979
0,33813395031511
0,331756855222732
0,357568133625268
0,319183714739436
0,329518780526009
0,324177676520117
0,361002917992915
0,330792040581676
0,352759509386899
0,361072074453447
0,36252747782781
0,355607632070838
0,378535453838919
0,343412704818513
0,379883432446582
0,371584902735908
0,378278759338482
0,378676477207985
0,381516657387546
0,381125229655273
0,407040792712011
0,388457898209684
0,400901063906817
0,393944639115063
0,422346899863822
0,398868340962505
0,431604485690617
0,391392458729954
0,453501650295437
0,416820783449726
0,436677652989788
0,416351376797707
0,438992110574187
0,41793865074955
0,46950595666462
0,445737525636618
0,469948485369119
0,438283939068838
0,463466549182618
0,451390246079454
0,471370188060734
0,46361693233954
0,488967354096422
0,474426102255221
0,515944787974518
0,475739635823246
0,50885735305131
0,516752405052951
0,527188022063248
0,482408816127613
0,521438522345644
0,483808285782169
0,511431801766914
0,516290579290981
0,540411608946244
0,481240349086995
0,546951555895113
0,526324897313327
0,524005514362887
0,523316664510065
0,567896687805567
0,512768063014829
0,554041301129119
0,526859136398212
0,59309204952788
0,566897084814676
0,578559393758497
0,540527657830018
0,583700303827922
0,57689699471956
0,612533820284408
0,568761444262951
0,62059028966295
0,580342272055758
0,627175794201799
0,589380061568247
0,613949724663964
0,58929776119536
0,587766830631294
0,551550505219932
0,653180935146432
0,607960243013369
0,622137726728009
0,606719283152195
0,658237250726754
0,614709013213563
0,698569208475512
0,622091438535984
0,675910295244872
0,629992136428719
0,671234567036578
0,644623553161189
0,679988820976278
0,624764443113106
0,704515389170418
0,657960700694511
0,722375983025773
0,657971105287009
0,754654006617289
0,66741527126718
0,70556463530124
0,659146027252933
0,749893530393355
0,697253907791358
0,705924495172029
0,69688350838724
0,721595529967919
0,71791108460457
0,765383184785067
0,716046240300347
0,755098984299916
0,702818955490093
0,790954739009938
0,729001205680446
0,796112362593121
0,72536322705185
0,775376633975342
0,737849296962228
0,772855404741333
0,774633337129716
0,821569538975445
0,766736952667867
0,781945266950876
0,749176795699619
0,761557770367323
0,735609093832727
0,811755663865885
0,748576959364836
0,835106968614475
0,806692370703982
0,814713759766616
0,79956488931656
0,83277905694103
0,791781726715945
0,886230445530671
0,79628583315895
0,879856404541576
0,818858068809937
0,8425680516108
0,808463968225765
0,916564058666529
0,837367967057898
0,86999057517385
0,792226053529234
0,898942824723007
0,833671480466109
0,916748831036849
0,850585899513008
0,92614383244377
0,828070446316763
0,889298321890412
0,832252456984728
0,91169510964927
0,808741462736612
0,90942522022401
0,842339659951687
0,893832378427398
0,857869178030887
0,913807505219041
0,847846078762762
0,876435694746418
0,8995839272311
0,936700600728079
0,860310735074856
0,929430580161404
0,913960199188254
0,965735563623242
0,89556112218639
0,978776099333876
0,916878875742785
0,923704442668875
0,948936423710326
0,945786761392339
0,903648874371929
0,986808008434654
0,914073265505375
1,01201882660944
0,929750506561257
0,994525581678484
0,876603982809871
0,97290925557045
0,965736715159264
0,997423854142695
0,943140769982677
0,940009187727431
0,950620303940024
0,98875102420739
0,905706446756162
0,987497553143825
0,913945858963098
0,969488865550945
0,944316567903284
1,03277459324244
0,925045570001889
1,0231869888476
0,96045568227612
0,979978342944444
0,959548960161728
1,02560002869756
0,947689959761362
1,05732495552328
0,955581247130374
1,01125977092914
0,946388045063265
1,03238282029628
1,01938071484612
1,04923709594634
0,970942457431465
1,06171768112611
0,989269147766276
1,01806186280383
0,929443325889611
1,05689445104465
0,970625068561798
1,09191690221713
1,00107295710784
1,07244832497961
0,989717230922143
1,03092439880526
1,02656237080144
1,03585007785082
0,980141268288407
1,09328874045235
1,06923831267961
1,02194557315896
1,00349658406476
1,00730387805098
1,00152689135259
1,06637243718441
1,02011443645388
1,03560634945666
1,02473652321782
1,04661255710988
1,04401550624412
1,11472319690125
1,02792613957198
1,10421417342246
1,00652006261522
1,04187425865206
1,04811890311026
1,13435020963065
1,01678074414962
1,02482175441021
1,01033109794348
1,04711118881771
1,02056754899741
1,05965534639017
1,03756662918654
1,03975812233553
0,982970815771535
1,09568184615825
1,01210963023268
1,11774743011016
1,02646845077995
1,10021344533994
1,02382730267267
1,06995359850762
1,02290410400096
1,0515495834063
0,991095270842907
1,05237433367827
1,0024959068332
1,0297672162138
1,04043791099521
1,06661999463463
1,03636715092484
1,07067791817395
1,06957417237463
1,07204420546609
1,03717743390509
1,06740258349242
1,03209406183215
1,07909432448903
1,02792989481315
1,08135060877542
1,05886043053152
1,01017303540759
1,02015038725911
1,11246998489614
1,02462561380435
1,06492953493089
1,06897209901345
1,0868407468672
1,01963889975576
1,03396284925168
1,03442980845853
1,05792230784929
1,05040646556431
1,06296126882182
1,05554315927789
1,0676978023643
0,98620786739112
1,06156071720548
1,00475445549815
1,03096414584729
1,02419537292555
1,05883429340899
1,02146616149173
1,03951332408485
1,0117417812078
1,04887744523337
0,999209059845054
1,04784930087141
1,01300044795109
1,01728559760094
1,07180585101192
1,05197857507251
0,999836426383255
1,03834028036983
1,00547440479282
1,06299988777706
1,05952796671841
1,05850868192474
1,00945389938475
1,0371362686079
1,00316164013905
1,01321752853879
0,952913900981604
0,982821002535931
0,993443355687365
1,04978660716249
0,97962925431393
1,00952009865507
0,993791780356141
1,01699658484602
0,98602392873562
0,996078832219339
0,980230517575008
0,981060213337998
0,975737381163121
1,01575537737264
0,959170753544935
1,00208400108814
0,986673468321458
0,991931179563757
0,988540843281904
0,980964640275337
0,966374471011224
1,02091127450821
0,973615586754407
0,978408306963364
0,941202475124323
0,988153115444308
0,985341980677491
0,993240335902585
0,977016865958986
0,976155137597453
0,954273240413352
0,96003437596287
0,952093167437575
0,945914358222227
0,942756499765281
0,939554097331544
0,945238540120232
0,975370628325801
0,923245442230173
0,931766294098963
0,943046775387177
0,947154054274125
0,940633689105212
0,937122450404793
0,926838510232314
0,955902718271924
0,909410971166579
0,935353493544244
0,955762619214266
0,943029446188159
0,894827391519102
0,927295159382483
0,907588127698607
0,924107845028435
0,917316281131489
0,907423690151399
0,894555059075773
0,889466542233799
0,873001085000367
0,887403816793752
0,889408648671313
0,902857217929396
0,894318035558911
0,889620055259853
0,8744668984445
0,878834929958342
0,853650651987372
0,881806239419675
0,888994945852574
0,86646801390966
0,86131050589046
0,882020786801174
0,842548519779036
0,849419978172249
0,847691965488081
0,82997124453355
0,850839869649822
0,842731371179213
0,821477804539376
0,838437413982094
0,825857460474412
0,823956979765192
0,813073637258858
0,839337629785116
0,811615773658863
0,820670771267069
0,823848460456311
0,814871892602998
0,792077703195942
0,807193135434169
0,804902366213027
0,791640871015701
0,778315738410994
0,779042067510182
0,773486449601213
0,772872023985679
0,777725908717423
0,783029947115472
0,777059400358926
0,782247953856556
0,773823938874186
0,77012557190508
0,761672694927298
0,743295623845873
0,736230059937255
0,747338502720303
0,75447587008445
0,751861852175555
0,741166270088696
0,733118220553385
0,717186913010438
0,720193275128155
0,712954919132864
0,700325403742232
0,692121127746346
0,701414516218781
0,705560344382737
0,721887440251047
0,72195162186425
0,709518165958093
0,699045245060601
0,704108613975094
0,711548266089084
0,712365028460278
0,689982569666211
0,679387958729302
0,669905202641374
0,669508292014527
0,667466819763672
0,667668519443101
0,659633504181895
0,654298550527841
0,652963785349965
0,650544108728205
0,657321121939584
0,651364385968437
0,637735764784219
0,640894542844107
0,63976218690333
0,628669539259492
0,63823567897899
0,635784837660919
0,624994779799967
0,619073354354081
0,621210850241274
0,626670647756152
0,62146308596075
0,5944722237266
0,592736896312185
0,596310029795185
0,597401252757347
0,600055922938211
0,595835815896625
0,590923855732038
0,584103285192217
0,592353443465299
0,593569295428471
0,582002515894642
0,584418259872878
0,575139280245075
0,560330957860916
0,581462469611599
0,569915031181646
0,551252966160777
0,566208735209699
0,554623795657631
0,550702713411697
0,558563404045811
0,553538037130965
0,553300633986105
0,557517615607999
0,547928459918773
0,553204705207096
0,543470188578305
0,535814447682585
0,541828952338065
0,528024617883604
0,526955444928156
0,531054389262962
0,518424075735054
0,522079772958895
0,523661528564563
0,513919701672209
0,510546418335289
0,506653667008889
0,502651539643675
0,505291165447174
0,502443627578764
0,507295847122871
0,509354491861878
0,501053511731373
0,491314346477423
0,496992830860769
0,480616702385939
0,481130400600466
0,488763411906571
0,486424779625774
0,483382132452187
0,483105581806731
0,478270042568696
0,48022842136291
0,473787212175011
0,474361400400793
0,461791099922275
0,461297855320191
0,463935447522369
0,466300113784842
0,459114621045803
0,454551731191287
0,451417754286
0,455483677440635
0,457236679770307
0,453176342688816
0,443007638726265
0,442438419402724
0,440398485024617
0,440557520458521
0,437326653288064
0,436259984109896
0,430087579944972
0,42959557044022
0,426932505269952
0,43481974978427
0,428065764293893
0,425540044264948
0,418889884956993
0,417014541170089
0,415225404495492
0,418834176408777
0,422657796538733
0,417737685558911
0,409270319001582
0,419138403464659
0,411854210707032
0,410134774339457
0,401697285038304
0,407714141146226
0,398063088553982
0,398847930860665
0,407854295462738
0,400546328027867
0,399424363212842
0,395041941488305
0,386060398327955
0,387167894050477
0,380371757752762
0,394878808464106
0,383293434554869
0,375805426915504
0,376976119023472
0,38241280252545
0,37960539960237
0,377378864047124
0,366100694650401
0,371561667873645
0,371611519263193
0,366430026655625
0,363254851364592
0,367312281149155
0,361449954532315
0,365051419329407
0,361103129660787
0,363904516148855
0,354232375892591
0,357678201066881
0,355488389318321
0,360318932828916
0,35827755532518
0,352803472113821
0,3492582133584
0,353615297175387
0,351646451666066
0,351001927032072
0,349629291451075
0,342612486567576
0,341165663018538
0,348008826256679
0,343583331805331
0,345904328545457
0,335556986077395
0,340156663380635
0,340901781512142
0,344040122740738
0,339913099287111
0,340650152135153
0,344051513018367
0,338994093741984
0,340121279225234
0,345666660770105
0,341713819011464
0,346829559531107
0,343162221205049
0,343268610862409
0,341485944548021
0,343904763056877
0,341233894143732
0,338979269579673
0,340702735874834
0,348185342664461
0,346673098563277
0,347823218583566
0,347931751097017
0,350887811928936
0,344044208434801
0,351118559934633
0,355605836812726
0,355866328838986
0,356916204292356
0,367245786523009
0,353653110560521
0,367357872882127
0,365017412343679
0,365340085358593
0,366859493410692
0,362594036974521
0,36067577974041
0,375451120134468
0,36622610572063
0,375208878734752
0,378394771230144
0,37915315137863
0,366598389207783
0,38012915093543
0,378790846495012
0,388246009372465
0,3870181608368
0,388906464210001
0,379862884591209
0,396653510063467
0,394464237698908
0,396486609086785
0,396358075002306
0,405488839194811
0,406601609278366
0,406606412853396
0,412289234293702
0,418473435343862
0,408181354409734
0,424688929979105
0,43101390733
0,435817424882214
0,427183982282557
0,438832314517209
0,437811010038275
0,436645943735263
0,433105899332596
0,446390598610543
0,443824750316239
0,453833625897063
0,445555065479052
0,44797313032971
0,451162082833761
0,462748886960251
0,454050342850199
0,469484265424006
0,456825797631633
0,458400944248876
0,465571937745172
0,461647115479994
0,470333679564653
0,460586951504603
0,455720532858813
0,465437266448923
0,459979925065619
0,463814517167723
0,455585127061092
0,465820244783065
0,461898576757812
0,467691433502853
0,455369795154366
0,469093347130937
0,456110264495354
0,460023816570683
0,453231093117361
0,457354369619741
0,464028581320616
0,45891785816053
0,453119273900236
0,460455470309986
0,460355615238463
0,462151951595936
0,452896876035124
0,467704906029778
0,455531790007134
0,459196730382879
0,4554923498747
0,468315325971899
0,463100530099169
0,466175846550525
0,466538178086999
0,47675073170934
0,460470648145364
0,463821847331096
0,457088644274042
0,461038026144213
0,452487214881855
0,470869306135277
0,468428076598194
0,462645787583735
0,450230102243546
0,464214332074159
0,460610579953645
0,464759420081431
0,456216454833602
0,466607351366932
0,456145551206015
0,451441720657698
0,450240924781227
0,461500213683927
0,451771225118919
0,456874512810176
0,455881481552622
0,458000821872737
0,438314197524858
0,448565371182753
0,435856339923292
0,441036272020644
0,437672402608122
0,438442360879563
0,431515779319273
0,436070553923363
0,425712920993655
0,424762394249833
0,41519041114765
0,425383060788349
0,423622812084789
0,422027677402659
0,412478237215707
0,416962449346434
0,408126104256808
0,407792756712936
0,406133213321419
0,406091089930171
0,399559826288131
0,399233801684161
0,392683125661327
0,394322690936482
0,392780940631026
0,386855130428927
0,378622474394013
0,384809260137356
0,376927111039134
0,372049231593169
0,366848757264486
0,376896240903246
0,366491899184217
0,368856347665168
0,35952059249797
0,362137505440818
0,35967835112103
0,358738131880227
0,354166732243896
0,35951939645052
0,355284840319938
0,347584206439525
0,3446449933292
0,34770326965112
0,340974199824708
0,344042667178644
0,344096747578005
0,343221212160775
0,337655037554334
0,344882170479629
0,328138361507011
0,332704606118417
0,324335090128534
0,330586454899312
0,325056380859992
0,325055456568595
0,318076962621137
0,322545048976658
0,319038715441142
0,320321522358953
0,31862400852478
0,317827357755719
0,312880167468283
0,317491806784999
0,314292692714626
0,311904699393214
0,306910721839617
0,312523919198624
0,310393290852359
0,313089632352252
0,299844167174178
0,304039980599028
0,310755344579113
0,305128146352944
0,308218930000241
0,305246307986601
0,294392128549089
0,304815176195446
0,29604532265846
0,296404072799065
0,294126016698134
0,294335697428387
0,295055698164615
0,295666684602161
0,288595100436818
0,296535881626392
0,287235222140691
0,290829509687346
0,290987039647809
0,284781516276546
0,286100375951122
0,28723545255759
0,280044474733508
0,284540976126371
0,28708579296222
0,283850227225118
0,27640168963916
0,276345898145043
0,270777250154541
0,279397707156488
0,278783398494878
0,279266016223527
0,27107412244349
0,27323856162318
0,274944195051359
0,277245489631899
0,273507631832774
0,272493171084602
0,269748008939739
0,275180724686124
0,261578113316593
0,271875598233393
0,264569077712413
0,267372131507504
0,269470704027629
0,270484243691391
0,261918147005164
0,265236792978934
0,259716329994616
0,260315616113128
0,258278406473178
0,262474996726771
0,257587785951497
0,259276641503052
0,257168801121527
0,262539798800658
0,259023450751162
0,262207203324321
0,261403518665988
0,257616076920564
0,253628615201398
0,255282081659859
0,256033737402496
0,258284089180764
0,253915605347769
0,258773003803259
0,249046365370992
0,255011994119223
0,247982853597983
0,251322246666717
0,242888054603945
0,245514859668474
0,247469497641587
0,249164950504861
0,248728486157199
0,251200958332289
0,253118813120926
0,252544591905393
0,244393699077722
0,254410346680235
0,247113148853395
0,250920585052234
0,240048895815491
0,248553942557085
0,241138621067593
0,242766096456939
0,246337763395913
0,25157279108663
0,242658992655038
0,245497314267028
0,240118030420494
0,240446004221717
0,240918907618955
0,24088038324239
0,242723640909026
0,240041521207653
0,23720997221456
0,240515652912317
0,23765149777336
0,242247055658117
0,233160687073998
0,234045870075652
0,233947060246902
0,238488407027491
0,238287800596026
0,236566946620118
0,238520721963322
0,237451056048596
0,232593058990481
0,23210238798729
0,236004429811773
0,232694655520508
0,233994171121135
0,235585411881957
0,22998089263801
0,235345414994542
0,22940461197705
0,2286603504145
0,2269476335604
0,226511751960505
0,226965469929226
0,226147074952881
0,224106540552535
0,224253435637263
0,216697619025814
0,225028331645586
0,221769045535332
0,219959147905561
0,225953828558778
0,229869479693789
0,218880770634662
0,222235676804727
0,222998822357568
0,21915361297101
0,223451044026067
0,219744493205061
0,215270003669215
0,220966759957393
0,216426280247885
0,216934225177068
0,216098152785772
0,219231864780375
0,212271149907877
0,210017892063176
0,214831591088243
0,212179599527321
0,211769923705236
0,212797944324199
0,213091223607086
0,208238134180047
0,206167163097827
0,209109928086808
0,206728606397625
0,209014980862311
0,203829812582867
0,209522816660218
0,201605943440977
0,203573761488488
0,201445884533197
0,206590530647359
0,197348361146551
0,1969190717631
0,197846069590747
0,200110475923073
0,199815350406293
0,199819217782868
0,194641567858798
0,199801371640086
0,19447830872944
0,192793519080156
0,190626367938189
0,195122678213249
0,190877191750326
0,194797897222611
0,190462013948423
0,190892264406302
0,192760425706243
0,191042578967082
0,185701279929573
0,18860515454959
0,185182906185453
0,187642990782009
0,183590916034403
0,1848414031702
0,182024857752645
0,182098291617572
0,180445737971573
0,18342019634469
0,178728358672886
0,178865103965405
0,177894162821214
0,181064419090181
0,177049790345817
0,178826364215375
0,173611802521117
0,172445272385984
0,17042850766078
0,174096661054748
0,171822740658341
0,171500918268234
0,172189859123447
0,171802596798902
0,170442491156287
0,173401546070004
0,166979228679446
0,170114618900915
0,163789916823365
0,164135604487161
0,16713063254582
0,163304857171592
0,163852143922287
0,163313588502648
0,162845057344481
0,162854226618912
0,161577684949695
0,160827457860197
0,159715409462312
0,16057883470354
0,162105536469472
0,15697238001308
0,157742272273948
0,159046846776317
0,153033996446284
0,154976721098777
0,154118802553445
0,15442492661045
0,153076503157508
0,15029961820873
0,150378674671686
0,156181848099546
0,148785655966708
0,150069236770293
0,148180566573326
0,150911203920345
0,149708831727565
0,148559115017147
0,149187913727572
0,148427472912728
0,14630036243098
0,148242561382428
0,150295287874917
0,146134960459842
0,142233615281693
0,147847708226987
0,146176749952555
0,144183226183202
0,141368079673732
0,145706083465159
0,141170209838765
0,147071042054989
0,141784857165076
0,141123831560694
0,138781668925255
0,141601476746102
0,14091837930809
0,138788068436479
0,140003619844876
0,143592128379636
0,139793589478011
0,140176129682301
0,138756547571613
0,137376279515471
0,139386987246065
0,139569334800107
0,14011462997684
0,138976233345589
0,138655935165518
0,136224024672239
0,137986358101281
0,137455118304332
0,131996887824915
0,138480927847889
0,135841854669385
0,133756944667431
0,13565765100341
0,133616316879281
0,134749910402234
0,135385058984491
0,13164147588448
0,133889609710671
0,129003898088204
0,13340024700361
0,132725995135968
0,13226834566502
0,133583117184298
0,133553389084607
0,12865556234506
0,129274973996662
0,128745662556765
0,132220588476196
0,125500411120778
0,130064576615774
0,12966370892951
0,129759674755038
0,125824688314459
0,126622482004429
0,126145572532735
0,126393262149397
0,128128737480697
0,127486321412327
0,128998954124477
0,12542706853849
0,125939220230978
0,124619672209582
0,124667284170028
0,122131053059526
0,12464397552632
0,123955049009485
0,12405558738851
0,122927918189103
0,121496484425815
0,121816346472195
0,122108022043208
0,123021918872075
0,120569742977008
0,125092207590903
0,122814170663539
0,125366935491643
0,119760353693379
0,120328728024818
0,121821160327734
0,120057952151468
0,12054470189415
0,120158007384073
0,120162307686286
0,120792224079264
0,114395908463402
0,119714302131134
0,120130025066698
0,117927613338592
0,114383832157904
0,118305205229775
0,115197302084482
0,115827738395111
0,11134582327964
0,115654088345588
0,115747330237035
0,114697496169158
0,113815416890115
0,114980790083117
0,114992258358632
0,113708887342665
0,112601991323874
0,109428486315864
0,11042426158878
0,112528089009435
0,114624390575595
0,113720569148886
0,109474717165756
0,108174569030604
0,110721545455619
0,108747766610283
0,108428167927537
0,109257370989233
0,108009367195156
0,110253260099433
0,106215363441847
0,106627644802298
0,106601794777085
0,108430946948529
0,105319923804571
0,10572297460617
0,104777854973769
0,10161527445361
0,105107925213678
0,104393672224672
0,101562561647349
0,101816793338734
0,102084432416196
0,103962872415837
0,101618913971606
0,0987127074627542
0,0971573429808738
0,0999150415846555
0,100369305373693
0,0989695238282721
0,0995120072641534
0,0992057829289051
0,096794206926344
0,0980677497038976
0,0950497112396222
0,0964701811373799
0,0991944534667905
0,0942280990850839
0,0941056363023376
0,0942236591154755
0,0952791988023623
0,0950154819587018
0,0938043120129424
0,0931853067877023
0,09041572713899
0,0942482951738921
0,0934431992551638
0,0943132522060929
0,0901303603519328
0,0894008743572925
0,0909890817439099
0,088779555557946
0,0889113450684281
0,086745192085024
0,0875441278845567
0,0893563841466637
0,0857834556547411
0,0881181290022623
0,0859192756912521
0,0863684724790048
0,0872721768273543
0,0865247968640974
0,0876110895298979
0,0855707330969662
0,0869812333478976
0,0860055603954693
0,0836903658237878
0,0849398534503567
0,0843743780995121
0,0857395803417943
0,0848455033554348
0,0842434186094284
0,0832060225513024
0,0817329618854934
0,0806065630726054
0,0810159705208542
0,0804974823870469
0,080455813351368
0,0805636642221948
0,0790586152956473
0,0815089380437184
0,0814958939902038
0,0810234135909872
0,0785254684544053
0,0800776393508515
0,0794033050238959
0,0784444947124318
0,0761521396032521
0,078224487948493
0,0781751958486147
0,076746072270027
0,0773091860876297
0,0767710970028763
0,0772690795292655
0,0766295010248577
0,0729941153508535
0,0760881531683411
0,0747741351297867
0,0747023681068116
0,0747695606685681
0,0776898188594407
0,0746122385453456
0,0723074639316906
0,0733228582521079
0,0753177494643692
0,0754802312721109
0,0739732956777445
0,0744802248424031
0,0720213309441853
0,0711066716000479
0,0730146014206357
0,0751250651604288
0,0741612771745356
0,0728322535972696
0,0739235239080751
0,0755148492288995
0,0742415503907795
0,0712280070271858
0,0709903783519484
0,0727857641353268
0,0732537737899751
0,07603873760629
0,0728538033743695
0,0712056647996099
0,0752993325896482
0,0759453271480728
0,0746277078252216
0,0730133396558258
0,0728909931799038
0,0721937853229179
0,0699370228738325
0,0752857162797463
0,0735605300135499
0,0707542970588816
0,0720022672167479
0,0763920522285514
0,0728642099439804
0,0771506384144905
0,0741981166115952
0,0722282960513605
0,073938267247342
0,0702060237853394
0,0717448509170437
0,073815846650702
0,0716003829958547
0,0669286571860532
0,0686709392135074
0,0685813030781906
0,0671124355756879
0,0713161227730934
0,0713354151105915
0,0699775174966815
0,0687595092306555
0,0713047195659185
0,0713949364345271
0,0675746465515539
0,0692286991368773
0,0689663419817202
0,0695422736235407
0,0671381283258562
0,0678280759506166
0,0709031139637957
0,0705303963103154
0,072252833822827
0,0684742842988741
0,0702997544344523
0,068004813917375
0,0679895757750836
0,0650778963327765
0,0685134425951535
0,0671639557284094
0,0641720263131092
0,0668526669564922
0,0647683486053894
0,0674854265795759
0,0696396448927312
0,0664211236809044
0,0664804286067836
0,0638576936424677
0,0663679741640788
0,0677386499964385
0,064783984257086
0,0657297387952394
0,0679833185718745
0,067779736996324
0,0639649263145804
0,0644823920246857
0,0648776467361602
0,0623389737147783
0,0638485483914689
0,0654476984630405
0,0622429641706473
0,0624352523992498
0,0634156301167655
0,0622128540479841
0,061751676197683
0,062117503921355
0,0610781282911605
0,0604140913416306
0,0628902194919767
0,063200318760945
0,0632719307112889
0,064332090104082
0,0625158705637771
0,0608241034181668
0,0599859460707443
0,0629238466752474
0,0645161547857756
0,0619332403988781
0,060575036691469
0,0612806819775434
0,0614004672659189
0,0628975527853053
0,0632751923095922
0,0627741104804482
0,0612760473761424
0,0621949718263643
0,0628737555445821
0,0600238597277558
0,0622310564457789
0,0642309123226745
0,062097162860672
0,0626428770157802
0,0613262151598222
0,0615224004611292
0,0623729597920724
0,0627415105133814
0,0616432739311912
0,0607120209635061
0,0636424843614879
0,0629913712199735
0,0625948838947448
0,0625752369112733
0,0593289459082922
0,061020918037755
0,0628869905055284
0,0629100465821126
0,0619107932034634
0,0625376590796785
0,0616211387967821
0,0603414459056624
0,063581426316139
0,0614847215003821
0,0632307001129514
0,0629387719765137
0,0610752664342135
0,06141353186324
0,0616101407308105
0,061917188804386
0,0615059208231377
0,0635547319431127
0,0628639844677314
0,0621097745710852
0,0629513018164824
0,0631804715376534
0,061526189095613
0,0628483366375661
0,0603671272082482
0,0601576385958835
0,0621671219430909
0,0623876137862268
0,0616457176889742
0,0618150973660127
0,063282381092054
0,0641084903928296
0,0628174491801737
0,0616254007337465
0,0633180116592303
0,0622592761325716
0,0653176235865274
0,0644574118741559
0,0632712413645542
0,0636111437952646
0,0624646307891092
0,0648145093162438
0,0633340798160978
0,063112575092958
0,0636717928789678
0,0628158912678193
0,063293399453093
0,0636399470438
0,0650926105995937
0,0655387505789783
0,062932365187263
0,0609520845674627
0,0617187759043151
0,0636171112357733
0,0638879963120515
0,065133990779913
0,06607522135045
0,0646620413114407
0,0660055342584468
0,0639943267483052
0,063125268027302
0,0638332365209852
0,0622761694508289
0,0657215098448085
0,066432840367749
0,0648134491674318
0,0625846861244759
0,0644150043218391
0,0664137525877441
0,0656061845265087
0,065794392305719
0,0659486290900947
0,0676760460914331
0,0666048686275526
0,06521659453388
0,0668258283211556
0,06493868838394
0,0647736897719684
0,065854828209607
0,06745377461082
0,0676221651436584
0,0650630834505738
0,0652943720207624
0,067028873399968
0,067889612221857
0,0666588769376424
0,0655560031922082
0,0646658757765296
0,0649126843272698
0,0668357550902984
0,0675422986471915
0,0680343273495624
0,0688768051956557
0,0666381960113797
0,0673761970745659
0,0690265479622295
0,0674160075595694
0,0692855644862745
0,0710107552380543
0,0690617975211806
0,067394952610525
0,0682285484678851
0,0668225586478749
0,0682606424354631
0,0688712724831983
0,0665712090329634
0,0705844012752556
0,0696612766680136
0,0692352194739462
0,0720704255047521
0,0682516444603532
0,0683911185785038
0,0674506486174336
0,0677139684730327
0,0704056861495842
0,0703398189349597
0,07161133996075
0,0701148479202483
0,0713651079877737
0,0728085281060977
0,0708797771072625
0,0704709198702505
0,0718332234103892
0,0707785972447302
0,0716274416914966
0,0711654150479583
0,0702622246988252
0,0700783565357355
0,0710221885811762
0,0723837698499743
0,0710817091026724
0,0717554704050456
0,0691807611391165
0,0699189473329642
0,0727160061123271
0,0718178222459153
0,0701966184374961
0,0708273860128883
0,0697482920422321
0,0681730161095783
0,0688820590742385
0,0698949562393544
0,0695633434219614
0,0684674564150325
0,0667178732466121
0,0687312112154865
0,0665379216904742
0,0681538695530893
0,0699831616106957
0,0688167387091586
0,0686308446784113
0,0693634692524771
0,069001591236968
0,0695142476007564
0,0697442352981887
0,0671245271758659
0,0674968912028998
0,0680650890680897
0,0706937935713719
0,0669479768579739
0,0668210892529667
0,0681288869616929
0,0669635567889578
0,0680776023339756
0,0675106231899131
0,0670635575975305
0,0663112585924706
0,0656980976231259
0,0668357097998258
0,0689494590254485
0,0675555406811819
0,0655038990792591
0,0664157454735894
0,063585060688123
0,0653471438652927
0,0670282109321118
0,0666517182900141
0,0669198341596194
0,066916254242074
0,0673761014493374
0,0675050336289056
0,0645378583080887
0,0647481281722033
0,0661673723954508
0,0643762072218838
0,068074704392818
0,0661739884451419
0,0648266399479744
0,0678546886254091
0,0642552978151019
0,0627884407727018
0,0642187149183275
0,0638319238616889
0,0661314871455608
0,0646908778032171
0,06573100316051
0,066268293365629
0,0664665475912653
0,0662394527527446
0,0634759879135469
0,0651451872311424
0,0660420564334719
0,0639000902778846
0,0649195674550754
0,0640898756911558
0,0648328502033851
0,0665621028116851
0,065462070784973
0,0646864647820825
0,0636276820989441
0,0660561520814336
0,0670490628932505
0,0630137589734112
0,0653819849760459
0,066256239885629
0,0655421657696038
0,0655139066550692
0,0649628668171755
0,0667509321495306
0,0649741815107085
0,0644955812046762
0,0636817568379585
0,0638143823457029
0,0633644472627266
0,0658047887800444
0,0632019611550121
0,0633437110150624
0,0629870537300692
0,0657693204134932
0,063815124408923
0,0634256774412037
0,0642370642650464
0,0627765538252994
0,0641102276345687
0,0653841157163985
0,0661287365076983
0,0646582060765441
0,0629786587515591
0,0639265526918973
0,0629668982424461
0,0611990628091321
0,0642365564551271
0,0640767956005421
0,0613547465020521
0,0616347195792999
0,0604706332302677
0,062131833020206
0,0615735973769454
0,0608079126570457
0,0614361568679766
0,0603263839889185
0,0600724073744655
0,0621442161629053
0,0622218247135668
0,0591699717382283
0,0602140424654561
0,060915766826706
0,0622860976400576
0,0616129444754142
0,0594716805542541
0,0614254082299329
0,0598380860415503
0,0599617012282308
0,0603810517589836
0,0576861318173693
0,0586724132697984
0,060812841577251
0,0562344993066221
0,0580512725212106
0,0610517452559324
0,0593323023976355
0,0568033164207295
0,0560214310322316
0,0566229037559944
0,0564830920720456
0,0584846069979256
0,0584864080859889
0,0563470978061282
0,0585463760864612
0,0569942311332678
0,0560974380572106
0,0559688049057709
0,0568800881324476
0,0554680392750427
0,0542361851702128
0,0538768693385888
0,0539534923662936
0,055670619822566
0,0540871635129905
0,0544197715496901
0,0530135242076655
0,053569912272762
0,0561009510430987
0,0555537217580701
0,0550262039878117
0,055984500257167
0,0524826453203142
0,0530797358357623
0,0559871919055243
0,0519774617557937
0,0539269291100821
0,0517351361762551
0,0551509003833732
0,0525664338226789
0,0532843721824353
0,0523526140469633
0,0509547320366557
0,0517434278246549
0,0535131426522376
0,0532380862862524
0,0543743258202871
0,0528460735248924
0,0515480083557247
0,0519576365269871
0,05406628005147
0,0527303122214976
0,0528512476159208
0,052759267114349
0,0552721009427105
0,053157600291024
0,051890575962323
0,0510365329025503
0,0520166584358949
0,0524023435303207
0,0514472255324893
0,0499390358034523
0,0532867376940894
0,0529598191134357
0,0530504300337374
0,0515272336723036
0,0514825769843858
0,0509933564341505
0,0512854921221919
0,051096655177368
0,0527771236990825
0,0532969371475685
0,0503540470506183
0,0493148090081293
0,0499996784294778
0,0496280856406329
0,0509194628771156
0,0507884141180856
0,0499801155593353
0,050172904945733
0,0497571142516696
0,0502765693817906
0,05175748354608
0,0505531839224469
0,048984222148424
0,0505123572081714
0,0532843503759452
0,0527168891189497
0,0484561998069418
0,0486739282508475
0,0495233678680231
0,0484544668018643
0,0509514423376797
0,0481779267597738
0,0487976672019046
0,0505168304270419
0,050091106639306
0,0495745760643793
0,0489343232715337
0,0509374812479853
0,0504120163548501
0,0486683052133936
0,0492656463287812
0,0477506878206289
0,0506489849367999
0,0510246415248525
0,0472166572021641
0,0456419948457141
0,0498731148776619
0,0494636092592372
0,0489223774138094
0,0479918784170543
0,0478603836085114
0,0472155789491329
0,0494128659050233
0,0500395980072426
0,0465956179592242
0,0485535165681266
0,0496575315375249
0,0496046094729539
0,0500571517711896
0,0486333191016682
0,0489714194508362
0,0486928653817601
0,0491203448203351
0,0510334523462385
0,0478648454176437
0,0484394022055217
0,0482793695977728
0,0491965355060021
0,0493343476028205
0,0500816222437913
0,0490789104612125
0,0504292887876662
0,048288743497685
0,0480776155310779
0,0476656160532081
0,0501294164118026
0,0474872658046879
0,0489435563088582
0,0476861588528675
0,0476125584724891
0,0492149354705383
0,0474141047417481
0,0487034002972154
0,0463845695566609
0,0485482725144773
0,046834351157619
0,0487655145123004
0,0501846120501262
0,0480517326931087
0,049188988670003
0,0482858795659126
0,0473743229301613
0,0475227584015475
0,0497994822933096
0,0501637050848181
0,0490065857634879
0,0473830832431525
0,0490900959775981
0,0472018734047495
0,0477079417043196
0,0474345135837323
0,0500966682156361
0,0472929528730926
0,0499932590361428
0,0482237714274477
0,0490142671930801
0,0489521286911736
0,0488302926779347
0,0473314363716067
0,0481020502603379
0,0476771511885045
0,0481629103725475
0,0491914004454663
0,0457088864592889
0,0485307181008336
0,0479761331926645
0,0483077330025494
0,0470550542598662
0,0491255569574747
0,047464850911228
0,0485437016683794
0,0482362635409395
0,0476137609921692
0,0471400790518863
0,0502106705595593
0,0471315279899694
0,0497308969153354
0,046851600778064
0,0476487197995581
0,0499774753539127
0,0526771011004336
0,0486443619293543
0,0478871580509347
0,0502296534462411
0,0490487793507552
0,0505896582288022
0,0503426126299844
0,0491939780234537
0,0504596016943228
0,0470962286000227
0,0528463479619848
0,0494094358938796
0,0494624090298399
0,0488558154656898
0,0502055925636565
0,0487748101575695
0,0515661668600871
0,0501468644406937
0,0505313010243028
0,0509928626441693
0,0510845650912635
0,049054300877738
0,0505513209713
0,0516600334530282
0,0505265988274566
0,0525546023425599
0,0521015673126185
0,0530485109447642
0,0520916004119382
0,0523277431576896
0,0515046747535945
0,0522448518644345
0,050541281097821
0,0515022671279615
0,0517368098884786
0,0538850845271184
0,0523550785780602
0,0531866313676906
0,0533060632194279
0,0518451595630833
0,0520374798950623
0,0527310861503319
0,0536154525748763
0,0533621011454517
0,0523072821079305
0,0540875055167389
0,0520503094222902
0,0507555489720962
0,0527326989562146
0,0537337372040923
0,0539841667073553
0,0538832473067582
0,0573412443659978
0,0546839935162938
0,0542886398372087
0,0527497848298667
0,0550627755820893
0,0542366656074356
0,0552944498121824
0,0559966104803086
0,0563704584946678
0,0575096125204434
0,055271581521282
0,0573105629802883
0,0582476269636174
0,0558885393992079
0,0558218310548206
0,0589086380371922
0,0575139952275331
0,0591784990147579
0,0588305468979666
0,0574514631647155
0,0573807872418136
0,0590376801531794
0,0585558128422553
0,0602785245733881
0,0618850754003316
0,0607303507659185
0,0594136998357573
0,0609129899715767
0,0585197755277222
0,0607789128197568
0,063229468313975
0,0611939676421439
0,0616521468348336
0,0606127522012145
0,0580064590751582
0,0618131730899734
0,0636029198042411
0,0626900089254546
0,0624038060897359
0,0623957602794463
0,0612641338255231
0,0648219627409052
0,066213408650155
0,065413420112343
0,0666093191236025
0,0683893020893061
0,0668276376374465
0,0670506965456858
0,0688084928637241
0,0663361732535036
0,0703978310353734
0,0639847006291761
0,0675361188341754
0,0718233942294039
0,0698239829511836
0,0736638056457284
0,0719381120914765
0,0723792927472813
0,0710565981421879
0,073876466492492
0,080970845529927
0,0748855378040302
0,076347661197217
0,0779454129037612
0,0769628098149278
0,0802149051699978
0,0831602935739182
0,0878517619848312
0,0815662509710022
0,0796025993315036
0,0857797096417045
0,0860032035230277
0,0854542706816652
0,0887789364103222
0,0896065341135788
0,0887505436955656
0,0900642798442929
0,090412016882042
0,0943319337966862
0,0927842725452351
0,0943897463877813
0,0941021734854299
0,0972541523774645
0,100956922372582
0,0939153330734426
0,0932098022968463
0,0981240422380205
0,105619897668399
0,100751232314938
0,102156153445572
0,104657627341091
0,104287643566333
0,110833535089066
0,1043871363524
0,109377673132368
0,108054395564887
0,111580736171813
0,10990142143661
0,119306649412033
0,119548357304851
0,117257304538235
0,120488613668051
0,125700208926901
0,133773131235791
0,122261499846309
0,127848457924869
0,131588595932932
0,136852415119011
0,140144620875781
0,137703106000415
0,1438842045485
0,148910896882365
0,153081731512053
0,156404262873404
0,161052027063783
0,165266407882213
0,171307080925108
0,170324607432232
0,174529585738356
0,188413537824241
0,18722836440677
0,192454746045205
0,192517353604589
0,19706055658959
0,21017174454494
0,213096781594331
0,21442509846361
0,219651129684163
0,223895158477068
0,238680060086367
0,248443549090828
0,243439045315556
0,251471161541494
0,256820736187524
0,262527315212814
0,262099966103349
0,28159635950403
0,27773791518882
0,282235952261734
0,290663126197481
0,28973031848821
0,29736804116801
0,302604646889439
0,320892138429527
0,307638563000611
0,310153315198642
0,312548071387571
0,324975341842616
0,326773514687904
0,330689831265114
0,336440787126721
0,339984067814007
0,34557131363857
0,370597537794813
0,354498171280738
0,342105089982985
0,338359269409006
0,34296437600407
0,347978511129833
0,363090168112469
0,348688750385327
0,358694247110322
0,356401829595033
0,352631346567772
0,360674185273508
0,360249915641332
0,352697237656671
0,357358346734105
0,359297390678607
0,362163944420166
0,362643863211117
0,360783040451898
0,36870041956423
0,37863409989651
0,352547949655325
0,359867323982141
0,355868948793321
0,36658980465676
0,356848906204855
0,352330348892595
0,356370622876914
0,356405224171477
0,346728695567084
0,359031320591481
0,344201711210629
0,351586042314981
0,353458809359503
0,336212806286911
0,333056193860102
0,336218847228754
0,330172390891802
0,335628422240775
0,341437716942129
0,35293780138233
0,326492219084946
0,328393852438876
0,316798115188447
0,318033512936214
0,31630877337639
0,314283093439475
0,316930995678011
0,317437829824798
0,308358611723148
0,311574555698369
0,311513692685543
0,309532329519561
0,311157144100163
0,311254441804843
0,305569743898516
0,306667124383318
0,304525792738758
0,303377555526714
0,300362965234444
0,301879867242965
0,302713230550908
0,300470237882821
0,301928309496424
0,302397043913637
0,295625081540957
0,298950214508275
0,295338571029895
0,295274830632322
0,294507948423789
0,300486900725167
0,294254685505837
0,290927105903688
0,286579155497211
0,295240670066185
0,285113636608835
0,285308709984631
0,288392119537534
0,288303572649387
0,283747666438287
0,288883330925067
0,275933992812746
0,291163162244468
0,290090122551059
0,273991066931753
0,276737668761075
0,276110014721476
0,271631267528723
0,271584435276909
0,268170301633965
0,272505662828592
0,266850892004266
0,259929408694206
0,260519520179002
0,262254696057894
0,259674788299245
0,256102472180591
0,251340057635691
0,251181651699639
0,247385051282505
0,267261416236606
0,261514203849983
0,252568326372599
0,25533469844218
0,239233430974057
0,235052628716637
0,241033812256088
0,234810196858893
0,231896154083361
0,235791288220801
0,235765283770575
0,235618597800553
0,229734696631144
0,228958778675094
0,227120129781678
0,226708921689326
0,23259943979657
0,230813888427668
0,223075078926445
0,227916385596117
0,225037283212361
0,225176866906228
0,22249510477798
0,232160544685226
0,213350336325337
0,211772883348613
0,215109666043865
0,208917816777734
0,217025848841463
0,217396758569965
0,206651584000285
0,2058973273437
0,204472535482728
0,202065714852397
0,202416337250088
0,201107688555263
0,198022922950102
0,199855210422001
0,197238829995079
0,188252832854316
0,19237470001091
0,200672921252419
0,201933999767915
0,195071600780641
0,192793537470832
0,194135640151261
0,192554581935054
0,192241328525377
0,186179729075056
0,189324293252123
0,188324827286678
0,186999150496223
0,186714926969818
0,187220329164478
0,186040805454022
0,184570914741062
0,183100449704707
0,182918163839416
0,19375069625073
0,18477669257519
0,176884895434799
0,17800102088144
0,184438936587129
0,184553027886184
0,183818723184742
0,1841885587207
0,185922786430018
0,183829792466827
0,190914123332065
0,197267651299231
0,188654104499065
0,189252512434208
0,190366448492131
0,194917816980173
0,198159916249911
0,200276831647056
0,203861974835854
0,202873113950576
0,209295514155798
0,21498835683487
0,21388305884354
0,214991218847227
0,216785693134174
0,220772811290649
0,224143928646839
0,234280056718249
0,234878019985778
0,23799714886217
0,24517752509144
0,251330474959506
0,256014818739823
0,260874105224913
0,259870739625998
0,273549126078387
0,27699786318621
0,282749605454968
0,285320897373231
0,287053624065835
0,294112756005013
0,302718719952803
0,307594250281707
0,310184456414577
0,318499965776712
0,325465920574252
0,322603522868682
0,324863170522497
0,325218333824549
0,334154758943281
0,340014531198007
0,346752720032966
0,347279915719453
0,361119703207613
0,357578638347478
0,350251100881667
0,351972569549852
0,3509036789679
0,360013180206618
0,360938688254231
0,361593771742854
0,363223258942196
0,364639256496997
0,368446267436807
0,370950375400488
0,366454369786765
0,371592015037127
0,370264193955394
0,376840540599053
0,381541505341054
0,380331094400995
0,385161668893608
0,38701304788177
0,385976143612151
0,392575197651897
0,400897719794385
0,399358765481827
0,401827465769284
0,401620415675904
0,407967526352401
0,410150162472419
0,410395110024431
0,419873238572352
0,420839420041867
0,422602574033499
0,426498921881839
0,426407233357159
0,427166980896663
0,43833265338423
0,448510730393632
0,437027286918396
0,437697592848233
0,444437894854918
0,45778364017684
0,463242774942858
0,452818182290912
0,455057676342715
0,456991448875158
0,458391820759463
0,45995927597428
0,463477193862257
0,464753075670878
0,464856171773484
0,458284481553103
0,463103058216071
0,463220835060527
0,465074763833339
0,464186651782503
0,45619592132063
0,467138507990735
0,463067384072384
0,456397879729794
0,463957066992965
0,462296335755431
0,466814162774761
0,47141524781983
0,461955311167227
0,463416170457022
0,458795689485234
0,459078475123239
0,470676674611937
0,456343850233718
0,454214172594396
0,458432476032538
0,461467664987672
0,466500972967983
0,464218641977408
0,465787740527241
0,468382686765978
0,468704023067685
0,47295932742219
0,472936908155724
0,477118387979798
0,481688719208381
0,485327763526327
0,485367869560065
0,482903776015267
0,484677005648673
0,493127690991221
0,493216541872981
0,491277347053736
0,499669453581881
0,503818559384231
0,49851686626834
0,497250624570795
0,491908966495575
0,49299117320199
0,494714883048992
0,490930258211425
0,485559139925589
0,485553160743666
0,480966444785983
0,478105898909366
0,483380665704963
0,48371568017251
0,468177510055594
0,466590875577701
0,458738163475119
0,455345686475684
0,459842969563965
0,45751561386462
0,452917227059047
0,452446962249411
0,449819846300728
0,443197107407453
0,43849114680664
0,439381330925098
0,441424680467355
0,439114406179268
0,437048902864786
0,437684390140033
0,435486093480696
0,430653005334279
0,432762386842767
0,435340801813406
0,433394870374094
0,433753555664741
0,432561499566597
0,431052599202663
0,434510983032758
0,435840749575842
0,428132859656283
0,432453619171017
0,435121074898725
0,432669877594797
0,431526662811096
0,430496634135299
0,431571722875155
0,430227615201657
0,428051712610365
0,427829261490856
0,428618733802846
0,427760366385756
0,429815798349637
0,428051245207879
0,428593032817962
0,425622844293143
0,426209648683628
0,425043976805261
0,421434038972921
0,421069674303632
0,423041962650645
0,425515662211171
0,425673467087585
0,422900737343219
0,423802084632862
0,426023394446453
0,422318814472737
0,424678646774221
0,422407624045923
0,421910057531611
0,421683153953146
0,424482790389431
0,420173424637188
0,417124271922814
0,423105964864883
0,417656250584869
0,41596610373585
0,417825847283648
0,414157173296725
0,411236612455354
0,407687660256753
0,402514421381706
0,39992234605842
0,399427528645054
0,395664878526416
0,389537454045574
0,387910460692628
0,38496335498166
0,383542283388338
0,382597664108417
0,374574409309962
0,372533147908893
0,373861839873424
0,372067556280776
0,369711700495687
0,367821145966351
0,36572361022594
0,364580233426681
0,365563616954855
0,361040059786101
0,361482037228853
0,362919187632305
0,359980460172379
0,361152187019146
0,360540250771062
0,360305459566322
0,36240396316598
0,362205818088461
0,363599184291232
0,36330545258857
0,36439947620881
0,3646597584944
0,367799095387963
0,367702827417764
0,369449433840173
0,371926055651346
0,374609692815222
0,376519266802409
0,379659205506192
0,379199074412819
0,378282739774559
0,382823820866838
0,380650710542283
0,378861365193755
0,383135660671791
0,382833830797605
0,384381030004136
0,385512560086622
0,384585352384267
0,380951537999483
0,378961297394008
0,378869094842393
0,382017826350158
0,379569901451235
0,378316047304519
0,380210940769734
0,378587126062221
0,379484253398781
0,378162375077018
0,377288870902194
0,374561018422879
0,375188167209131
0,371747594696487
0,36650456071372
0,366708558605714
0,366345432295612
0,366862115678531
0,36529027841819
0,363595857780032
0,361792098805243
0,364346188046211
0,363007587188728
0,358225626980812
0,358557082102176
0,359236395778503
0,356831036937871
0,358587954391488
0,355708211199098
0,35510589754512
0,354549850958625
0,351783453584165
0,350584564353776
0,350704348281585
0,349112878487309
0,345527954251538
0,344110388605358
0,344926784386446
0,343332266034548
0,340922553236807
0,334650247810266
0,334836572189382
0,333595854500487
0,332467481913957
0,329837025913357
0,324801324302305
0,323636335055988
0,322669327967503
0,319833620323021
0,320375717077616
0,316487499262612
0,313679440653556
0,314367258529145
0,312044377119584
0,311631013432301
0,310647199897927
0,311015574065522
0,310708582078018
0,309359843657143
0,309972938013484
0,307785920832842
0,305635478670242
0,303219430816217
0,300333361392236
0,296740117271336
0,295117722637155
0,288720469239458
0,288080887958006
0,28340738276356
0,279779587395112
0,279314517506883
0,272727245134767
0,27206501820911
0,269257669038349
0,26898963031377
0,270324967246053
0,270771084391257
0,273156280980958
0,278001029597983
0,279265237036827
0,287167119148411
0,294787237100708
0,304227486315886
0,314032371009772
0,32239659266683
0,334013918374741
0,347899115708665
0,361202333311288
0,373202844288651
0,386631615675879
0,400392823449738
0,415369483156462
0,425966030415962
0,44127981730382
0,453298575433341
0,46698040914288
0,481535137311903
0,497142758222041
0,509540717857124
0,525754594129296
0,531207635396071
0,547499950174977
0,558784738592814
0,569239566514747
0,582217396650819
0,593508012604551
0,604896717043777
0,61123887670072
0,617885240749608
0,627454994585536
0,630638270584166
0,640285313498111
0,644464194373697
0,643920330979463
0,647803452342339
0,650945744567357
0,647394361293723
0,651273696857558
0,648938351378127
0,65070348235668
0,64885083564889
0,650114204679302
0,651113098616186
0,64909051882627
0,647195380933107
0,647788382055571
0,654175410582164
0,65772449338373
0,658385490290148
0,657690505996926
0,664111166234262
0,668593633557727
0,675438594810601
0,676666959823709
0,680994559535362
0,685653147143309
0,691552387238082
0,698499014680006
0,709083981705632
0,717483549593424
0,728937806061666
0,739283076465259
0,743840632756531
0,756022400123242
0,763604462539361
0,773622723415546
0,786576421026372
0,782840961040267
0,794036683519203
0,80124233153361
0,803280436548606
0,802200084814819
0,798318946068439
0,796670850217585
0,795694004726105
0,798049047660434
0,804120666781629
0,800470714361364
0,799131554947305
0,795297680264591
0,795820014618517
0,797678372713296
0,810794404810558
0,812846322090609
0,818491113988686
0,823912497313264
0,83865162842284
0,849410161614482
0,868582951446267
0,877678086180896
0,887400683895171
0,89872051932416
0,896613709666983
0,918229799417877
0,941678434239098
0,952120723772843
0,960845009385242
0,966856875303481
0,978741098666998
0,997219077425671
1,00743383446393
1,03870765023587
1,06121773534966
1,076378232697
1,08537490407794
1,11138501400671
1,12297326256002
1,15889989977329
1,15892987059386
1,20002148325904
1,22540000860084
1,24070268768084
1,23655560294442
1,27559009462132
1,30523135627846
1,29577235560555
1,3000590312304
1,34060596481719
1,34682539228767
1,3487359358985
1,35285225899844
1,35929893463638
1,33540142623733
1,34631835611279
1,39215324638625
1,34464274551799
1,35523807228374
1,36117754681259
1,36878467741115
1,32988330870913
1,35461883221475
1,36176308762765
1,32760829645868
1,35096033240945
1,38674310323156
1,35321290001648
1,37900061296621
1,40617587016138
1,42527012176762
1,40566116412826
1,44318746381736
1,43718804606783
1,44979971796732
1,46685757430396
1,53420555254919
1,52243414263321
1,58070361149325
1,54723228368003
1,61233227468177
1,58547647690289
1,59952476566812
1,58376615710939
1,61131725258916
1,58426086133229
1,63308645101097
1,61382675161049
1,69086525628707
1,69695246328613
1,74103093791108
1,74478666051404
1,80226458517261
1,67365903844242
1,72668917294803
1,7816659553473
1,83937688783567
1,76712270860053
1,89219803546203
1,80232539446473
1,92201481684567
1,90338791952521
1,74517408878509
1,74000081833104
1,99010628747507
1,8529412186925
1,93371401449854
2,03909715819851
1,87894577958592
1,94726077003437
1,82851390148436
1,79831924384298
1,74395886027079
1,69021996617062
1,7423987144736
1,67899029409067
1,66974061751161
1,58452512532248
1,53034723552976
1,47796743025387
1,45623261737144
1,3702260067926
1,36435699805117
1,29699196680316
1,30160390129552
1,27710860018051
1,26982460622843
1,27052382561227
1,24714143486653
1,21282762147602
1,23246080896425
1,22554538770764
1,21746338142502
1,17127185576224
1,1480096959199
1,13960331901976
1,14242751920448
1,09722264326596
1,1258024432868
1,06994525580053
1,0627679935323
1,01552573948447
1,00087160092531
0,959820437540663
0,930916531646887
0,894263809764253
0,854744867300531
0,831067232520486
0,8022588843707
0,766822841126914
0,734215303326452
0,691390111496478
0,664341559718555
0,635905081578944
0,606805217567815
0,569285744182869
0,547567901637735
0,51781319603261
0,504818161330313
0,480961714559934
0,470021097925295
0,44926670930066
0,437440231450592
0,412059906097306
0,407664499200262
0,399660918233151
0,388413798404668
0,376716544709523
0,372247352821955
0,367253341455223
0,364925826880813
0,358926791138849
0,35617767609519
0,354464954650477
0,35470984262366
0,353077519170995
0,354208562559138
0,356976916770292
0,355934999006305
0,354088309609896
0,360718080410537
0,356395086301549
0,357951311817908
0,358037749753265
0,361685911035925
0,360169776609971
0,361725617718337
0,362527193387822
0,354971259775236
0,352112912740508
0,357645019595303
0,350775575023849
0,358928467434356
0,348659203505711
0,351535609410964
0,344572201579351
0,348323596144137
0,33916679311691
0,348426525981505
0,341989968534749
0,344739960669686
0,344514529845459
0,348326972554355
0,347684695276807
0,356347672243097
0,349919963649862
0,35609328771443
0,356559300803987
0,367425918043395
0,355927929409058
0,366549727529876
0,368103449946402
0,365605753165841
0,370522690625727
0,368820741623472
0,368481740291368
0,369655725663883
0,372630695871937
0,376182047528818
0,36605840270765
0,373608313820368
0,375049766254115
0,37922466583441
0,374639917876242
0,378215296597183
0,379933817684353
0,383132137071951
0,389925995949735
0,389290669483728
0,399754535662508
0,399039124483378
0,417890611721944
0,418146346419858
0,429955462185944
0,441255396713426
0,4395730766149
0,46609364032032
0,466304116945361
0,469857190191496
0,481435194506936
0,487643971189805
0,486128373090142
0,485029588053416
0,48461037782273
0,483692644935742
0,472532362856755
0,476169364155819
0,446655266559554
0,44839233832418
0,44123239749407
0,428595859538618
0,427746885828419
0,420104735790463
0,426539670632363
0,432197764824032
0,426664611246333
0,438724299578762
0,433919809766315
0,435393737987692
0,433328797023534
0,427094711522217
0,423199779603514
0,43587493856795
0,420816936547276
0,423370007137967
0,403944917663182
0,414329340264123
0,40581107465913
0,411085453008034
0,392341275482017
0,403801391484106
0,385725259171295
0,39403570809909
0,374733130527532
0,379869967412443
0,384107038275371
0,39249744115163
0,369795005842561
0,376969699430006
0,382727501833041
0,377381123694181
0,373914205881995
0,373302021342961
0,369119179146686
0,366253690004057
0,359034430357215
0,373928408217925
0,360809327579581
0,373641327380963
0,34721860131733
0,349278776123557
0,354957348694158
0,351159097489512
0,366040360343667
0,350292682894411
0,354064924896687
0,33916968480299
0,344200528141672
0,353676274406454
0,336738061614735
0,335103536708016
0,3258765434545
0,338518903455407
0,329357252959012
0,326625245449826
0,324721077163685
0,321990614032243
0,317016478352282
0,31297736790281
0,319773915080249
0,314561916162496
0,322915902373823
0,3290408803348
0,320872365227967
0,322313988553034
0,319515178083173
0,327883502779251
0,319821488861201
0,331530263292554
0,331122695643055
0,327557945314686
0,324303011584701
0,329696499720415
0,33511120431423
0,339675894908627
0,335898055227917
0,337179775866363
0,335394204091947
0,351608476869328
0,324115615542083
0,346515603149769
0,352011668830378
0,347702845093302
0,351578713343457
0,376482569692285
0,363558225336075
0,370038960445415
0,378783378209893
0,390565642486868
0,399064804535656
0,397264474327505
0,404371878305956
0,397221443344775
0,414380050245613
0,416985203366495
0,428797180846574
0,456980837467632
0,467624518929686
0,494195114729849
0,482256920263269
0,504755500520855
0,524335280300801
0,548049787969044
0,514971463383103
0,553778129252453
0,554567830776848
0,585733027032358
0,567152576587871
0,578058419373288
0,559145570414659
0,580531236026901
0,574082530061872
0,577456787816778
0,565292818508172
0,590055094026262
0,541060269678847
0,5524357167585
0,558832005083638
0,551389825060007
0,571099931188355
0,569972487779037
0,557904416183332
0,573045081616519
0,555851797584445
0,570485373239118
0,532111017999509
0,557821094646398
0,536679608616119
0,533138410241334
0,542639673558626
0,538384589616573
0,536860826797038
0,538874875592337
0,517788354829604
0,50835742519084
0,50748553086492
0,536128579021278
0,490957891691774
0,511080533909113
0,49426923401162
0,497592344931136
0,526020836897641
0,490074258638189
0,499440124948684
0,467371506594616
0,51102571625162
0,492253089059268
0,517602435487949
0,528107764996565
0,492602408378611
0,497837754448732
0,513430433669957
0,533309902959497
0,515689859634173
0,505364349532333
0,493669675286914
0,51961657904405
0,489548413495217
0,500036901531987
0,510233713278662
0,567586399503495
0,499555726810745
0,522200502206521
0,528661548722526
0,540041769364745
0,459279170236033
0,522433953990459
0,532644888466721
0,546774261064198
0,513287649460594
0,526510590228636
0,532098501652319
0,584996801059483
0,554471933957402
0,635725943032412
0,559042676366669
0,604983681356293
0,569839978415144
0,573520860663248
0,594644985797262
0,627428729440116
0,615547835073429
0,661051903707294
0,589144939886156
0,616264446561039
0,605502806267309
0,642123907010595
0,67994913582818
0,683385794050734
0,720381526870177
0,761658627959452
0,682569518951671
0,781892557168547
0,700090241468531
0,813379341538441
0,678263839939263
0,889545744788317
0,658586472767861
0,812575263477969
0,650359562085847
0,749585436842066
0,639269181688066
0,802467821439476
0,664371572499779
0,709414785200839
0,653398354720126
0,670313627216883
0,605536264281683
0,733543059307528
0,605370221174022
0,752968141329054
0,721536561638577
0,693888240019343
0,598268297183165
0,721824649987309
0,649935795424936
0,728468721035592
0,778290200694617
0,682780688057413
0,743733703666373
0,74101532763227
0,674612079475734
0,796412221363279
0,719632596892456
0,81844353926831
0,576745447390036
0,832427794286875
0,535502894672912
0,753252016345147
0,658601183868053
0,867965475182229
0,628245063804986
2,29297444078023
0,606645627097932
0,672476723149195
0,630021222012095
1,37278140828569
0,673960187423774
1,08803653999544
0,733177061721777
0,806822019554702
0,621943351102393
0,648024926885046
0,605390019061204
1,08047342752499
0,447705200892767
1,04283985109893
1,36793717124476
1,43381637674113
0,856188987369931
5
0,895716044191525
