3596
4000,36533379555
650,420452594757
1
2
2
0,0463731606896896
0,0483198256715505
0,0465894622998216
0,0502474796691131
0,0497406518319452
0,054031295404912
0,0523177097320448
0,0467452375887467
0,0506876921955564
0,0582353634560631
0,0459421620697617
0,0450147521327542
0,052626978426719
0,0525919648205071
0,0485219211434611
0,0478381226397025
0,0515165078269375
0,0527405025354845
0,0505122870252575
0,0517166009861384
0,0402184527244717
0,0449577604290873
0,0496702652770179
0,0538356724615011
0,0486034611633315
0,0450227815807703
0,0514034461635294
0,0572094098440145
0,0505783360384154
0,0529094449689349
0,0468097238402436
0,0434053549650483
0,0448483697917557
0,05410988788324
0,0484621503269951
0,0403014034455999
0,0468533101763519
0,0506349390467318
0,049629206476969
0,0536042027979747
0,0422100885701736
0,0411602675163315
0,0505153890247163
0,0412616602932883
0,0411141343437356
0,0554295756983488
0,0493778054764505
0,0494147910142905
0,0472689484658837
0,0451004562310702
0,0473508148844977
0,0454258836940266
0,0474487824985776
0,0526727038979634
0,0438094925189176
0,0456001682714264
0,0427114569652871
0,0459629942696208
0,0451403242399229
0,0452814342672907
0,0484880218813152
0,044921798304033
0,040956725822772
0,0459879086388681
0,0449247050157458
0,0442458637063634
0,0403492966350454
0,0446565930172946
0,037620339095592
0,0431476245235483
0,037409012412595
0,0417755659675911
0,057201049351363
0,0421624452015553
0,0343074420698487
0,0445015733115843
0,0429808066660145
0,0433814708367569
0,0418134116715072
0,0430642309370468
0,0443534863955187
0,0469811068914853
0,0414486127881274
0,0472772536324011
0,0457192788774839
0,0440214759223145
0,0473572143201667
0,0492690819625167
0,0446625068591179
0,0407628266508134
0,0430148057632748
0,0420008290651253
0,0361023087459829
0,0395421374855293
0,0440575251008335
0,0460983330105108
0,0419506211108522
0,0415853589699186
0,0421344728968616
0,035740798010628
0,0361817387382221
0,0263186553852288
0,0411262196643066
0,0415536687217159
0,0422877279243216
0,0399796650536931
0,0344178934107308
0,04108419529495
0,04189502073051
0,0454086528252366
0,0384650312136649
0,0358636332434393
0,0389168946755001
0,0442637359846253
0,0426774749016569
0,0508539672045857
0,0475220770524092
0,0412301918260205
0,0437023527013187
0,0396481340524128
0,0348249501931588
0,0353219157780445
0,0413405097222915
0,0496738977719987
0,0478172292380394
0,0377405303424994
0,0344769266366632
0,0357579980099858
0,040400359835716
0,0351758774161
0,035133882944869
0,0392415651819718
0,0385759789763285
0,0397359612631837
0,0364271330860729
0,0452428094019901
0,0375656215651307
0,0340354298276424
0,0318178615878026
0,0279413151440109
0,0417837553373255
0,037655891899783
0,0383152503110974
0,0496442791384731
0,0330895794007992
0,0302988279976909
0,0357350818637381
0,0384260645551922
0,0402713830193878
0,037991400143629
0,0393462574721635
0,0388115117225071
0,0375500261576564
0,0368133710332482
0,0331587812592402
0,0415445037536107
0,0242190566240449
0,0292655457522451
0,0462622884664787
0,0423720921155846
0,0292680128963282
0,035239376605382
0,0306816060677203
0,0325732122522991
0,0368529007299254
0,0351837024627375
0,0421297419436197
0,0336159935359186
0,0428942348732844
0,036818476889152
0,0307160229024461
0,0381120657673675
0,0407828549713863
0,0522721055646733
0,0382613101354794
0,0402682321890932
0,0434086912633017
0,0442943585915003
0,0368092978378062
0,0413875484703587
0,0497122344768772
0,0332585133258534
0,0346266611536842
0,0383983749055513
0,0442208615647766
0,0530129067441177
0,0421548818928592
0,0391594795975631
0,0390224739273866
0,0391176552857007
0,0455522456798549
0,0258607141817648
0,0259663611062526
0,0376117798096305
0,0389841197603041
0,0354241180492006
0,0294653266259126
0,0425898480404904
0,0385279640102915
0,0336445364365771
0,0375633096058824
0,0334087502593433
0,0395285719567726
0,0377395428916496
0,040746500285159
0,0388503903124352
0,0443691408255985
0,045610780055515
0,036500838136924
0,0371572010801708
0,039237538456237
0,0423720007116333
0,0445269398863159
0,0423240149710617
0,0363285575123034
0,0388402500752088
0,0410416524373449
0,0406671812217583
0,0451272646925459
0,0336562535686269
0,0291518964743879
0,0383612039087074
0,0460512517827013
0,0412081860163554
0,0327961053932912
0,0453599085171584
0,0376339255738932
0,035343439598168
0,0435111631578955
0,0402605778148852
0,0388096916812481
0,0372099432903442
0,0418845439449509
0,0426587422693917
0,0417133218339278
0,0439526884722621
0,0433088525596347
0,0417742463247378
0,0398381410791798
0,0344086320662619
0,0389373351247895
0,0433895959199488
0,0375659880908025
0,0428877985617782
0,0409948273567461
0,0426366175927286
0,0365078541243337
0,0305217336890137
0,0435887226283887
0,0410483842932569
0,0488075149015435
0,0338218880001788
0,0421977750334594
0,0420641051706108
0,050113502139221
0,0389500280764135
0,029300565783922
0,0487936027981832
0,0320725718278389
0,0370234680922775
0,0413313858180038
0,0463161963840339
0,0402216189312014
0,043318439773328
0,0425966593142342
0,0437651494522276
0,0212007112108556
0,0403954065462083
0,0431758527006063
0,0477052981096989
0,0328970546538747
0,0338123381364656
0,0258325189576205
0,0473853491043304
0,0426103441496276
0,0390116716040139
0,0385029937452937
0,0453144981362699
0,0454348988440817
0,0377271558087456
0,0470977133703327
0,0490449558089583
0,0393175503099673
0,0347884420452737
0,0490839987623874
0,0473361302286179
0,0328498795138396
0,0479804775956729
0,0442965874273617
0,0381691774231879
0,042397432600451
0,0358028934234661
0,0342482096905062
0,0478988978258219
0,0529381939579006
0,038647198621431
0,0398419908548212
0,0474242683745944
0,0487305515180957
0,0405417918469661
0,0426851249665507
0,0514015091756998
0,0483835627719039
0,0423113177118661
0,039028681810502
0,0454956883361156
0,0465669157957357
0,0481117404450505
0,0495281352386531
0,0473680525515113
0,0467394850123214
0,0494722991812018
0,0552364626622525
0,0456248089643747
0,0490090084475858
0,0505065971402903
0,0522334237405543
0,0507511296048233
0,0530579912583365
0,0619411528301022
0,0515878090181089
0,0507369185563545
0,053869805886178
0,0562241255699295
0,0536271998369864
0,0600277783071289
0,0487303560745566
0,0602299485007507
0,0535868995260395
0,0533989710507671
0,0609294326951617
0,060456776193174
0,0652169547679942
0,0567457045817606
0,0651953017827864
0,0643602518516225
0,0586655234611366
0,0647292493418553
0,0643097231755284
0,0652375162722582
0,0667699524574848
0,0673465728730217
0,0677088711584412
0,0729914235659751
0,0648093204318308
0,0749133341545439
0,0735427006217453
0,0846490416287943
0,0825578659376798
0,0615706597849865
0,0713251379161203
0,0799532078760626
0,0695161342902288
0,0793226776137645
0,0835251013434722
0,0819903876898063
0,087146944363199
0,0852837636107047
0,0863982550403741
0,0857295823726042
0,0930051630071102
0,0939525181828336
0,09836230479405
0,0935076280048117
0,101901766444667
0,100814027007861
0,102160972353692
0,110278456304596
0,104224942861982
0,106238848080575
0,107552838058911
0,104606099462475
0,126385542760745
0,108351807274923
0,114370367429489
0,133023927227458
0,113805139199282
0,115635697342032
0,131333845913024
0,116776103344342
0,128524460682561
0,131117036003087
0,134789469283609
0,131661236167077
0,149972551366726
0,14626103671838
0,143259696972075
0,146951065987288
0,146627812505552
0,148951217275946
0,153228286164967
0,158954059378877
0,16232518518456
0,157610272322131
0,161642965850909
0,167837340949443
0,188247270771752
0,21106773572234
0,184799304850317
0,172464716127086
0,181874914520746
0,180952626849948
0,186578941114412
0,182474910429992
0,194924182832748
0,191442838973321
0,212720947352354
0,197648682342894
0,2030155662234
0,18635258256932
0,200436408619488
0,216904740213197
0,230929398065371
0,223646279219663
0,214447632705548
0,227415712712846
0,228144417042974
0,248676847083012
0,244321883163929
0,23373964901086
0,241090736968664
0,234539399310693
0,246786261505342
0,249742582040312
0,269349671578968
0,256392914715845
0,272718256551662
0,25546192509203
0,269630030757456
0,278381290408266
0,275632822703856
0,264613731671797
0,289618277684459
0,265936338922935
0,289389464882162
0,298542853538026
0,303800909186151
0,297370107274424
0,313836509193661
0,309432376325437
0,32460283503071
0,31973818727343
0,325133707545624
0,326103812649178
0,340007598435299
0,32264210685555
0,331733091732868
0,326387104439651
0,366863423910113
0,36401039931853
0,351202064894716
0,355189778588264
0,398447218993305
0,363123172065536
0,380239778345798
0,359968829993768
0,381774832471303
0,37133070106553
0,384356529093679
0,401362483401009
0,403868470300609
0,397346685400767
0,42736080670976
0,406680679535679
0,453180273614811
0,39820716425063
0,433123366441806
0,416816331031478
0,43019327220326
0,431469059978111
0,450681857202432
0,437287218955252
0,456191357280405
0,451526729135556
0,484432135588371
0,458082382506823
0,475172026925794
0,486054380985917
0,503983235349627
0,494593534208543
0,496657819866401
0,479403743304848
0,496678443422179
0,477992637613205
0,535425013081133
0,500642480591115
0,547136551432498
0,503356855576953
0,555581209662247
0,513001001225357
0,549663725850215
0,546885295122226
0,581023894547231
0,534284523048934
0,595092457184318
0,547827224834561
0,588734959216763
0,572235895155911
0,595089341994084
0,562791561599452
0,615367896282955
0,596322093305244
0,625944282489837
0,624641753060498
0,63336630253873
0,556254198095155
0,656445431117544
0,601435716177796
0,640001461811338
0,604014050349252
0,684798970582799
0,638663193855369
0,652029151962865
0,629130843882177
0,6835616936513
0,655787092386964
0,697183346269385
0,659594874773919
0,720866492990519
0,63929809828388
0,720363054043592
0,661795303862153
0,7664442650842
0,714095891389134
0,757648929236594
0,703158457706808
0,77167720843944
0,721615200781814
0,782954321725329
0,657086796707425
0,800946901905793
0,720861061587888
0,799265311878409
0,729290929051901
0,79961081942378
0,772191857797339
0,784715833626041
0,762062144928124
0,811568112959159
0,791960352477675
0,869162576207908
0,782196092590666
0,862435896095802
0,782572174153992
0,900449256239269
0,778823392586396
0,884575048315543
0,819382478296541
0,900028919641445
0,861842820930609
0,914783282472038
0,833563255860899
0,929836979501025
0,833261190161493
0,900853413548221
0,804242475931488
0,928049785837693
0,855863333076955
0,933416559300252
0,844528487876163
1,01026686892829
0,857564196313678
1,00486946680897
0,894919940815244
0,982617329567798
0,908890076081804
0,964039192825482
0,881267916535648
1,00888317169018
0,894886440570082
0,958159594313665
0,949870825187447
1,038696429967
0,936908182457553
1,1350185754088
0,951477398034442
1,09289745379256
0,943606089963885
1,08440983841088
1,01843953421745
1,10923829980783
0,936060190057655
1,19666400740921
1,02879703948718
1,14115007028852
0,987635957417075
1,11210813611267
0,970302992359343
1,07921797400886
1,08478297239098
1,2126711748901
0,984504000565618
1,24587013756827
1,06364408208021
1,14434503972942
1,02512209290193
1,12410177302706
1,03247949953145
1,14231832971178
1,02865564557668
1,12731150487045
1,10893778711248
1,23006990639424
1,07471197487704
1,22593353825305
1,07733939217042
1,22184565348491
1,2047758276307
1,17093569897876
1,18642250328047
1,31608300376928
1,11263610996668
1,23341537806537
1,07036738045875
1,40513269849605
1,1275333422315
1,43379489718213
1,26458203701591
1,27372578808372
1,1046787185401
1,35831741819402
1,22262469406713
1,4062850599182
1,1844942097775
1,35135775871667
1,23562502659567
1,41844776011294
1,26984610452542
1,32059280736283
1,20799475761744
1,43503804630825
1,19630261598185
1,30630557890314
1,07744778970125
1,5138828475148
1,29081613072525
1,3123966617806
1,27021882070812
1,35401678829679
1,12562444167669
1,26629732676133
1,13331823373638
1,38005859816584
1,21313359797315
1,72850706747274
1,18670535186003
1,7858897577067
1,2573498212949
1,29894050910687
1,26348230737834
1,4184221408013
1,37288433794123
1,70819657360017
1,35582092192045
1,67777076560094
1,33717007142124
1,80509289314973
1,27426009332375
1,41364375287518
1,21556964889153
1,5401188718269
1,40874220943828
1,44217048651606
1,35850446778118
1,39953489196748
1,37730833780097
1,57330670893633
1,26253945503577
1,4725724684337
1,22915888235107
1,43518668532667
1,33623197152995
1,54253691529128
1,24497572555775
1,48183074428113
1,27329388025414
1,54188153104754
1,34070259631116
1,81861235375062
1,39896930107865
1,87072823673161
1,45037235966686
1,68096344308932
1,47556625821268
1,66217481652613
1,31021295071122
1,62671588746907
1,36343046787979
1,53653664709219
1,40587973860472
1,5912303451483
1,41547899091663
1,60118677287928
1,3259287277699
1,73503891388078
1,36061365015147
1,44520996926032
1,41801604751869
1,78292813059751
1,48457908410704
1,65152704665966
1,40958777325023
1,63070213423152
1,34650287375027
1,61352017892674
1,55552069789643
1,80594943162163
1,3814527444206
1,54888436234227
1,43409915138641
1,68775160342335
1,54084240430027
1,63195212253344
1,46038018155339
1,69051189622679
1,50288214689104
1,69280660684696
1,46110508328611
1,59129449844905
1,39013320781424
1,51077959934909
1,44138559450349
1,71257077047495
1,34129154705535
1,55319828196733
1,42305478675734
1,6142528323305
1,52996986019985
1,57934722658702
1,44359569948173
1,54677272348123
1,57241928698795
1,49187416187923
1,51190475214933
1,60550055369382
1,48818210550392
1,57053387453201
1,50991294102226
1,5337705440382
1,3945519812327
1,68785952881016
1,54048113461848
1,65128896995334
1,42894690479911
1,55481239378693
1,37257279408285
1,86710361809548
1,4886977323643
1,51448675330305
1,40118313129319
1,68495615994858
1,57038222639528
1,58692950376441
1,40712745400466
1,60795484413673
1,39803087414082
1,55789919887439
1,48410191176911
1,56504409868423
1,4450062214559
1,67129661497437
1,62573353824597
1,56729179596755
1,5327439903031
1,52106122346656
1,44565181653603
1,56777720549876
1,49689544776479
1,63876399198727
1,47511640486351
1,62570118255474
1,38064741304021
1,57262676599528
1,53312851206542
1,73676728602434
1,45581742572653
1,56446198337385
1,35852605737943
1,48559141924842
1,51765064221732
1,56274789256539
1,38104497931924
1,48564340791285
1,59456748233386
1,5627094966944
1,41196505098022
1,49927033235844
1,6476194975536
1,5853203628119
1,60482501043702
1,64938911875166
1,41729923508728
1,58886322566048
1,47629305148036
1,64356476291044
1,431350724272
1,47343192282223
1,46253641163457
1,60334582036329
1,57542323004121
1,53891644021936
1,43016506666513
1,56833587028386
1,38142792787556
1,42622703486483
1,38804208305029
1,44523300984907
1,3642555672205
1,56896367557393
1,48301378483202
1,49351067970719
1,39295130732757
1,46857967300989
1,34615789678374
1,45354060062494
1,42812870227988
1,46661283768354
1,42574061049507
1,55577522715715
1,33466347690923
1,4355493634164
1,46116618996604
1,413838973558
1,40121944463246
1,48505266816335
1,3545746407485
1,42725368523962
1,40608952741412
1,4516138561072
1,40881533828341
1,50147451399009
1,36819711244698
1,4101595031668
1,332239194054
1,42386512947423
1,29536302877777
1,29171835558668
1,39581742366726
1,40988798990728
1,34439872600891
1,42652018413286
1,26841568482577
1,45303187962656
1,41058024688966
1,31904654041671
1,34697683675263
1,41230859585441
1,37832287510269
1,38788866533059
1,26578673401298
1,3531835873792
1,25508082296715
1,28756006454928
1,31904536860617
1,30314883525053
1,28231799272347
1,26922197661584
1,22952669427124
1,27229874937211
1,27825713829492
1,41593733294084
1,26789090783398
1,31105788977903
1,32488278925296
1,30543577501471
1,25464963860331
1,28197953553273
1,21605792796052
1,21751672563361
1,281752110279
1,27232071185214
1,18659692272627
1,23556932417236
1,19821947049276
1,18918739264736
1,20120557575857
1,20899098993746
1,14072080732254
1,17370486727282
1,2015681168116
1,18090264363642
1,14128046799064
1,17860618701201
1,13701721213008
1,16026574427477
1,18698258940405
1,17884724938306
1,13720497759725
1,17344873299791
1,12236776354741
1,13518293404722
1,07884681629157
1,13443878374125
1,14106688065785
1,1162781532893
1,09001934268248
1,09799936504377
1,06080751054341
1,09019972253394
1,08896105497437
1,07976099788284
1,09487152042538
1,05249463341537
1,07588079153059
1,08467777893927
1,02843104991311
1,03452405695431
1,00101043424144
1,00833993556083
0,986717441724304
1,01666454034699
0,989010991532393
0,997325931128824
1,00913576684915
1,03285173219701
0,995493524289617
0,961954381679574
0,974376616835714
0,992937561247866
0,975942667614072
0,948789368725244
0,955533139063252
0,978899010003309
0,962803587138288
0,947441977350541
0,929107719055114
0,945747604148787
0,964431623432594
0,921643467743509
0,917279669921198
0,936781053247082
0,910802938172355
0,910237742624434
0,908276700003032
0,886664337878909
0,883222967581279
0,885748538142694
0,893376622980636
0,906493652095607
0,87062735344409
0,861048615072199
0,858249854088744
0,861964204245997
0,852467007159663
0,871605166114397
0,858363066806181
0,855110426088287
0,842867804937588
0,823291505590261
0,844950216348374
0,825082382575728
0,815740339148053
0,829624377187373
0,819639297030759
0,811639624564069
0,798856584512378
0,799404565914497
0,80279989314103
0,809906668270992
0,784595489719734
0,791707247751946
0,785784113200886
0,768956336292499
0,783880668549728
0,760724363890655
0,756129936387086
0,759131281710176
0,756500357841215
0,763213618931152
0,761131220115157
0,759954487849788
0,736802564530889
0,727004064222419
0,730717643341524
0,727650195483265
0,72672886045853
0,72336809895143
0,7306405885618
0,717186332735106
0,700184098865398
0,709709960143486
0,699532941031091
0,692987763784914
0,701980372734567
0,700849234700591
0,697187409060541
0,688123294911148
0,673122860542174
0,681182351722058
0,689126743442848
0,66665020253504
0,669099802532515
0,665715336042936
0,663324349209824
0,661674080110651
0,666510531474612
0,656844653723266
0,644639872390517
0,645594198732791
0,639255648737686
0,628373007884155
0,633807688492817
0,647111602799898
0,636900986686659
0,619643368757502
0,622455024909503
0,621919839604745
0,620301198252195
0,616204910296716
0,608731917182832
0,604411094788813
0,602759956309916
0,594123856229266
0,594684110555674
0,596898904966622
0,593222266374866
0,583560751997731
0,585766228771901
0,578315828603745
0,582734259483792
0,585730142776423
0,573141858229134
0,562663877055932
0,556588012448125
0,55833025308557
0,564086954634415
0,548350698422674
0,552653673337277
0,546146708456887
0,54211259815146
0,54343465566139
0,546690640172889
0,542409840568701
0,539792198337016
0,532134084537627
0,533497181470641
0,541579928495803
0,531529572667825
0,524169317720803
0,531911372480972
0,520992313487065
0,515890865196112
0,509328376416279
0,512566920394529
0,519265205257394
0,514203141825919
0,500662768009395
0,502961553341956
0,503690646833185
0,497019505440222
0,491579911647795
0,495216381368369
0,48893187177187
0,497029768491476
0,490563017189839
0,482372034248555
0,483236294487737
0,483285730002253
0,476807558951279
0,475951932374098
0,472107266700666
0,479726620493165
0,48043177289834
0,473553561363077
0,469895331820808
0,466901939846942
0,463231119853276
0,466892585909471
0,464592754962996
0,469730462185048
0,467043322625751
0,456286198645771
0,452549536557355
0,455638713290095
0,459403230190104
0,456443737578918
0,451228412231009
0,45247617903902
0,462590719677664
0,460697216259215
0,453605441864862
0,463814936483038
0,457448950301426
0,460708871552085
0,455310567797091
0,463847633792578
0,457303722797737
0,453291247920031
0,454524960557099
0,463129918170822
0,45991216935061
0,461185878846835
0,467160580588268
0,476455469813711
0,4749433255526
0,473293423060163
0,46572842313925
0,479583223845759
0,483484512689879
0,485835791960254
0,484592424119853
0,483806256859137
0,477187419796495
0,499611665693229
0,480067698704424
0,488574225237441
0,492880883937645
0,499628457205032
0,496618090612296
0,497544076902764
0,500194448927255
0,504113760877688
0,508938845919954
0,518044550324892
0,515883519295494
0,509175380801696
0,521310389572395
0,530076227792607
0,531980702951741
0,528013971627977
0,537995709652291
0,539891482168786
0,535480821817671
0,546294441471057
0,530108311796324
0,545731996043
0,541893691675535
0,563070459709237
0,567668226556798
0,578629295533214
0,569321699046768
0,583522682053097
0,580218839244537
0,592886056348237
0,604776246372447
0,605301903343582
0,594356498094244
0,617090127798837
0,608521189864533
0,624065112762047
0,627424649867149
0,640828944204649
0,629711137282231
0,63796381095181
0,621760350245048
0,635690412022444
0,637234163034557
0,649281197117874
0,63726795938459
0,647864576315522
0,64800357663382
0,655218390141176
0,647392835193513
0,643288835344236
0,650912475620297
0,664291438890705
0,649804898011106
0,651066377799644
0,641323740158107
0,647500812308239
0,639929533552566
0,652231722700293
0,652067416157177
0,649790700918425
0,626787633548192
0,636390829650465
0,635391223949434
0,629183087405483
0,609977839273981
0,635894231074078
0,620219880408149
0,625471538044696
0,631811075659045
0,636788580825861
0,636392878152756
0,646377501786042
0,634665532423507
0,639367655659644
0,642898827129979
0,633975917022169
0,624378881329504
0,6374597407733
0,618903402437714
0,641448116520088
0,617891128574165
0,625849827211643
0,623005844940054
0,637826088124753
0,630130257637691
0,639081564228351
0,622998144272122
0,624038608032625
0,625021586958382
0,632055346042065
0,616282484637034
0,635710083905535
0,615166871168384
0,627612124147231
0,616787692976283
0,613624257048535
0,620877249598188
0,608817265260855
0,606965046768628
0,615176961274893
0,618286627535393
0,612134761427863
0,597135701932349
0,602338679968694
0,591057760262134
0,590529949126313
0,601041936054783
0,595327149634465
0,575346432196587
0,590184702761162
0,578744483643183
0,574325354668744
0,571552458114289
0,574440405843804
0,560468394401895
0,564682926042275
0,558584902827745
0,558804308427362
0,537891449378059
0,548447078640968
0,531842133443591
0,54086841155742
0,528843125101314
0,532603516719682
0,525085397713959
0,529906099057279
0,511028036830312
0,518843288025364
0,511417151491029
0,51458436876244
0,502662654974798
0,504432322635824
0,491164469935501
0,499198491232789
0,482693522389686
0,487792758912317
0,474607014184217
0,480597897026256
0,468188009908355
0,473338521245465
0,466546402841147
0,469489603697924
0,463226692880753
0,464580427036669
0,454919182679059
0,452271614644134
0,45682116194085
0,457193509987912
0,443575904557458
0,454291872161275
0,447243916635411
0,44295031458925
0,432644748062176
0,442153250567094
0,440671724021041
0,437225122761817
0,4247722311905
0,437320062165242
0,422910183675785
0,424008100944591
0,412799276238318
0,425795464104072
0,422103449530363
0,412133271347629
0,405922360423153
0,419000451386452
0,402612692017067
0,408391106387944
0,405661747713599
0,40947602611629
0,396117543852726
0,402078929620525
0,40446072709401
0,398075618021582
0,393285240818252
0,405847351276096
0,404711523603015
0,390629392294829
0,388320800711173
0,399028425255224
0,385636378959717
0,390851450415901
0,383986417945119
0,388395650648337
0,381892389673469
0,388614051864469
0,369859551117794
0,377872199524387
0,373164923023956
0,378369307305011
0,373732810133866
0,376653910118154
0,369273396048266
0,373814934655607
0,367187055494373
0,372586243490159
0,362913331023611
0,371516615997004
0,361829362538924
0,36826393311155
0,359249601711665
0,365588849685158
0,352224516896145
0,363969182361326
0,36244711152281
0,365901863082404
0,355904658130228
0,354429751547186
0,352429614689081
0,353833599789334
0,351414981027458
0,35441859305067
0,340855752301083
0,344425137626023
0,345198176549705
0,347632225087221
0,345046575191932
0,35000327108495
0,341388547694443
0,346411052529497
0,344558531204948
0,344831169241952
0,335506014898251
0,340581395487644
0,342103539523299
0,338024024085688
0,335063338303908
0,33749325847711
0,331768558891186
0,338155111908547
0,326068196933538
0,33819974025547
0,337106321579732
0,334466023476042
0,328334321146939
0,333483836357517
0,326409891036533
0,338111383679822
0,326937825212332
0,337526491100364
0,320209851276793
0,326251407810681
0,323048341384159
0,33206859527085
0,317146583600041
0,322974765559959
0,320380354910301
0,330441059447912
0,320570975616912
0,327672687496507
0,323784506547831
0,317984623058113
0,313825624728887
0,324466058090205
0,317971832336356
0,321739839958172
0,316409584068473
0,323560553581705
0,315790391035941
0,319272391317596
0,319379658108466
0,322351467051794
0,317741850496041
0,312732407378454
0,305894271811093
0,317859080570484
0,319713640659916
0,309061593798868
0,30933087982458
0,310815680868992
0,30969671029284
0,315917237614776
0,311411721951254
0,31329294598904
0,305984903956322
0,308254682533691
0,30484327310793
0,302207296870986
0,308476178830227
0,30900248988473
0,306304462516922
0,305819981902422
0,300485116770223
0,302225565289637
0,307662760573413
0,299988201760173
0,298202140077177
0,299798988452193
0,293537734316875
0,304941476865111
0,299193071294672
0,302551140781356
0,293608548520348
0,294049820659297
0,288835037261099
0,296709050581543
0,29132353534903
0,291176699351896
0,291878458404132
0,293866806978295
0,28714170418345
0,285077764087061
0,289741526418171
0,293659094478289
0,287933646064336
0,291480994588017
0,285056629256595
0,282489325608382
0,283937078598845
0,289006453401704
0,285047289605475
0,2879630344449
0,281362268059403
0,283128080608104
0,278902541265426
0,280513840470528
0,279158076266172
0,280323210537461
0,270835341776109
0,271061611595351
0,276375783636924
0,268635954505021
0,277812810040638
0,276522440200173
0,264965829579505
0,272204618354606
0,268258104554125
0,267777714543491
0,266500452799666
0,269332486247426
0,261571140840011
0,262464336761117
0,261417889927217
0,268238736998444
0,26512951717232
0,258322214476758
0,257289808927138
0,260638362529464
0,257216084985074
0,259257432820076
0,253185875892021
0,25393304049441
0,248375828163093
0,247709009766731
0,254473024226291
0,252097036985281
0,243668698386142
0,248106971090487
0,24641425596476
0,250367754074417
0,244750870050038
0,243278248489516
0,246407563203489
0,245048841824865
0,236881001822093
0,243220953651144
0,23882481015383
0,238058820871192
0,232312694022657
0,238497550381538
0,231486545584929
0,236477239348308
0,229957950725404
0,231852004153982
0,229342783308973
0,233791315390977
0,227750439926757
0,227772948620385
0,226728654654213
0,224329259867152
0,227856098328924
0,224630948445353
0,223796546617012
0,220967440493198
0,217524944020692
0,2216039889636
0,21926260398159
0,224747757296996
0,220566023310958
0,219526021049133
0,2165598212534
0,212237374940859
0,214665579147689
0,213318794957294
0,213395690006484
0,211104706266649
0,211937228573111
0,211866897081819
0,211037182936527
0,212838776434599
0,207444242317089
0,208466081357836
0,207810173962845
0,203968161028208
0,205484700960274
0,210175342653595
0,19979431872865
0,200521095279859
0,203249433768287
0,205797680022507
0,204548197967404
0,20193877238866
0,197124242632962
0,201211590757376
0,191113207057951
0,197139507807359
0,197040710658549
0,198307404385903
0,194652526954924
0,196263817778161
0,195968033386103
0,198162969064569
0,191372989345715
0,195381091747883
0,193738720974532
0,191202579260237
0,187750671565384
0,193779948935421
0,191292741372788
0,188856846803708
0,190959137215711
0,187486693238213
0,185975319144489
0,18700843917121
0,187240288939383
0,189353733359069
0,187284782638196
0,190073724167363
0,184072274312589
0,187545163770279
0,185994855631043
0,186947537176462
0,180437837817628
0,187467193270079
0,18142363794378
0,184709429756663
0,182064789231071
0,182464125857906
0,182757409241527
0,179346855141038
0,180349458490947
0,178735256161448
0,178920969273356
0,178080478561968
0,177907026752703
0,183100384715074
0,179954007965123
0,174836323693881
0,17775187008658
0,178877355164658
0,172070101435554
0,176623530773153
0,17537280156715
0,17642455468156
0,174357036146998
0,174728308192089
0,173131035343721
0,177512378672196
0,173960190752977
0,173347798494786
0,175100818034278
0,170297275357002
0,169099550871755
0,171681717396624
0,169014699327658
0,167532213884604
0,168257615807834
0,17177232645956
0,166069069308807
0,168525860651546
0,168564271895636
0,167201864826187
0,167124947930738
0,169033913984027
0,16742804300524
0,167363558231466
0,168141022286601
0,166187312087962
0,161476336778427
0,162524421321214
0,163702766824134
0,165413956120756
0,163706886969198
0,164073494894219
0,161367052835747
0,160268015725554
0,161592642686875
0,162826335296431
0,15978316807669
0,161421856877487
0,158561790169187
0,160359747555713
0,15999998138595
0,158952902739207
0,158467601055074
0,160279233446165
0,162192789869043
0,160949367471311
0,154745328748594
0,159450195482525
0,156263941806113
0,156008736329403
0,154850978690749
0,158135445706505
0,152577864432509
0,156325437702769
0,153191812231125
0,150688929892495
0,152231798365295
0,151373866012715
0,151950113890667
0,152451746662656
0,154853943234609
0,156599093810711
0,149972066966822
0,147745906981752
0,150365446306716
0,148083745625991
0,147878278439712
0,1506930663713
0,151596076604817
0,148851018565497
0,145098032763767
0,147876318570978
0,146200073557747
0,144805992202034
0,139892191301686
0,145096243605594
0,145133720040598
0,14611246003129
0,1436372651655
0,142706935630133
0,142652403919474
0,139699988034179
0,141732653491939
0,143752258898355
0,140966244781791
0,138159559176453
0,138622530966045
0,139898765282934
0,138567755532262
0,140257877316611
0,138178663031689
0,136874246601328
0,136465798985374
0,137078517580631
0,134079181259725
0,135397205758634
0,135218752438523
0,135960428264166
0,131279858506472
0,129460049200533
0,13045744776143
0,133137096873287
0,129916388693454
0,129088417780578
0,128874248145223
0,125403572726349
0,126814402406405
0,129370865670859
0,127391228159807
0,125696726606088
0,124577427606539
0,127303182523697
0,126099756202296
0,126490990223968
0,123782641872959
0,124574492177241
0,123919041779041
0,121339649485106
0,121927239326566
0,120737797204199
0,119768698540705
0,118892347382785
0,116489033812208
0,119985638946207
0,119504088253087
0,118792807181133
0,116934939042986
0,117232232995829
0,117812961358952
0,118575996864745
0,116640747469723
0,118935514344928
0,114108396105783
0,115399426044746
0,113530370240424
0,114388030656615
0,113520388060874
0,112906638314414
0,113223248114855
0,113291326737718
0,113405336352045
0,112232817427523
0,110102096276805
0,110102824870709
0,110404819770711
0,107189916032888
0,10816403798887
0,112367427083054
0,111421369668584
0,109426517171561
0,107753384423294
0,10576013546187
0,105528490605534
0,105008104637796
0,102895162422988
0,103471445371899
0,10418672525126
0,107179706015743
0,106819947586284
0,105213813475921
0,102268117004253
0,101786006795682
0,101644906666536
0,100393837195405
0,104236664439066
0,101760983333377
0,100284176005796
0,102690324324023
0,102764811671277
0,102171909877299
0,0986970566784795
0,100555717190069
0,100312742571138
0,101064260639037
0,100023544711995
0,101218925269485
0,0973563261351692
0,0990168099532801
0,100276205593898
0,0992358131353566
0,0984479465583257
0,0981907907930167
0,0973552025522661
0,0973530755071791
0,0997816495388687
0,0992792535661161
0,0946386919457133
0,0979835513344889
0,0959676183767168
0,101932284363688
0,0987365605104417
0,0965035555350548
0,0976237090903862
0,0992854605956173
0,0980467360140275
0,102529453332208
0,0997700505062146
0,0961412103772098
0,0934871477860873
0,0951595547875626
0,0981422156709191
0,0979075579569543
0,0992560406017516
0,097932497876919
0,0952180944156009
0,100931216110224
0,092807638664267
0,0971137723294831
0,0967148595606131
0,0947098541229998
0,0960520436094534
0,0965551954718231
0,0934153961167747
0,09406737974912
0,093078414159127
0,0919634110126632
0,0909792672131537
0,0945469951423485
0,0954369163228721
0,0937272239482266
0,0918021769331118
0,0937544948575628
0,0924323188849926
0,0933634191475735
0,0894741957119684
0,0917959091006742
0,0915848812437676
0,0907418994638012
0,0902970511032058
0,0913474857935448
0,0897573952824803
0,096094682093195
0,0891116513941334
0,0926302055660822
0,0875521107632296
0,090680865445464
0,0872057630737566
0,0890783274205082
0,0888362374312147
0,0925923997971009
0,0886867942058645
0,0898983224206137
0,0884865084537909
0,0906325214831416
0,0885069525823868
0,0873574471579796
0,087263969086385
0,0872690622670871
0,0885145635993469
0,0858366140448714
0,0865995893299711
0,0855182891730532
0,0909118845092654
0,0874870771838019
0,0904012486158525
0,086736838707208
0,0881306361284035
0,0837511194770453
0,0875365787260742
0,085113465730295
0,0848517480362344
0,0869325835297026
0,0860767934913081
0,087270058950483
0,0842973858701526
0,0827037033645865
0,0846537642836967
0,0836482196673462
0,0842011625614951
0,0855640045080538
0,0866857627159413
0,08448521088431
0,0841148126202453
0,0821000141790877
0,0862416970891375
0,0862035373849415
0,0852212584455806
0,0842379470956301
0,0846705115134756
0,0837861913002626
0,0859716006931158
0,0866428352406572
0,0848473135355782
0,0841284372379461
0,0858204191359547
0,0871455870828108
0,0844160003131744
0,0843009392878604
0,0864479285249408
0,0860533619704823
0,086136193208634
0,0843728848010852
0,0838175001384062
0,0850040973230465
0,0835285700512579
0,0843179749380643
0,0862478492670025
0,0857420276365643
0,0864786103326466
0,0859822777805421
0,0871626772985811
0,0848065160043004
0,0825150528572782
0,0862581331918486
0,0865163221050895
0,0861436107009078
0,0866529888143374
0,0860119755618855
0,0859949350224696
0,0865136902478453
0,0869993482487139
0,0853401121266431
0,0839139723716077
0,0842368300536856
0,086428189474633
0,0834146531868786
0,0839164932228361
0,0868124296851299
0,0878705999427709
0,0873194587854875
0,0874102466540688
0,0877351289089452
0,0862068641734833
0,0860169993869231
0,0874994492466281
0,0858351574251308
0,0865673069263859
0,0864753134507587
0,0846487097304917
0,0843591169963416
0,0862489130598373
0,0886284891191593
0,0868797330971278
0,0874617574536013
0,0885084174926519
0,0873305851228919
0,0887374783133578
0,086965962038291
0,0857867266688203
0,0877791364293093
0,0873004724685963
0,0872771283803601
0,0886003100963183
0,0881734857319853
0,0880983391691674
0,0899562459811309
0,0883992404307248
0,0885909678334289
0,0895525098484788
0,0879869515237945
0,0881077214858709
0,0890017593456846
0,0887835844848871
0,089743006545719
0,0894706776744049
0,0885930690054812
0,0903369936502163
0,0896331498464744
0,0883309392862623
0,0897854096137001
0,0873796616868862
0,0896123500221957
0,091826318428067
0,0893525983294374
0,0915172150382616
0,0919464564463247
0,08996285869964
0,0901046528470074
0,0915974677370075
0,0920983917492129
0,0913005597072745
0,0916763587132513
0,091533012182249
0,0923267075061603
0,0930513803226409
0,0932885432127126
0,0917184290581837
0,091476780920595
0,0928901169556131
0,093256200924799
0,0939248824792882
0,0924002973624781
0,0935011221141095
0,0948560190987077
0,0945696617592336
0,0941133333263021
0,0932878882280087
0,0913100746966714
0,0912035761472163
0,0934305971923456
0,0930634087455727
0,0947361394296438
0,0959741357816934
0,0957164942606486
0,0957341847240271
0,0956135542814993
0,0978136444237721
0,0971723675135269
0,0968120402141751
0,0994305671521332
0,0965850263369616
0,0952250752067094
0,0964037785019782
0,0966825810146291
0,097585344120329
0,0961780200426391
0,0952056787753813
0,098070533439664
0,0990633930259133
0,0989844692942922
0,0993515418788137
0,0981627863969778
0,0985608190309261
0,0975065420928182
0,0970798508688449
0,0994919223201171
0,102252693381281
0,100394035746997
0,0990889406841532
0,102498012083175
0,100831575103028
0,099487600660467
0,101631784560022
0,10139048894537
0,0999634218053105
0,101153271040861
0,0997616863055068
0,100174950722757
0,100845027811757
0,101265952887925
0,100809359554354
0,101169379089728
0,102085151604261
0,100110162475828
0,0996463175914209
0,0988368414513761
0,0996955774741144
0,100243721812461
0,0994560121534999
0,10007244487375
0,100566708520331
0,0987854325602858
0,100085579272325
0,0993947716311864
0,0979559908421237
0,0978049423688128
0,097601086993511
0,0961255849205125
0,09873298227403
0,100029158781501
0,0989577913845791
0,0992207314905134
0,0986708420935066
0,0971828242169451
0,098418216701832
0,0976232299847638
0,0967991653328084
0,0991964759144408
0,0985335252882049
0,0968478561570828
0,0962263490557047
0,0977735742547687
0,0976145460434338
0,0967183643042336
0,0971849451620971
0,0963046173592577
0,0970102372610276
0,097019619706646
0,0964330089012443
0,0973188875822726
0,0963209123767832
0,0968457357311878
0,0953532328445885
0,095782449246246
0,0969141740943893
0,0948965953685926
0,0961840760215723
0,0951317929942904
0,0949968290303833
0,0952366842671254
0,0957945264933818
0,095749072638937
0,0931715613594059
0,0954439526342944
0,0979352817102292
0,0961439572699086
0,0963902095985876
0,0953641247695922
0,091640501082245
0,0949742703746421
0,0942604904351859
0,0940330037833055
0,0947615030544487
0,096392031352619
0,094797775400393
0,0947365472060127
0,0947110306420109
0,0940090002159833
0,0956450305982718
0,0943723124168499
0,0924134813442846
0,0937031081931458
0,0933052442111784
0,0932976862066868
0,0943379401777422
0,09312137729526
0,0954382156417834
0,0945989043355491
0,0938554955324729
0,0945065443598542
0,0913397737786572
0,0957726637321536
0,0953323166054959
0,0934726006622348
0,0936976254626204
0,0923650565839674
0,0936192021648399
0,0947270566069135
0,0941370010999606
0,096187083256793
0,0921156104416293
0,0935688337531742
0,0937582192070707
0,09303360359939
0,0930812672903032
0,0917001462084097
0,0926389654109957
0,0919301868381599
0,0903289956312095
0,0929002597394951
0,0919577930269712
0,0915877321357922
0,0945906268403772
0,0934798212937929
0,0928725282606944
0,0918007544833604
0,0935742854262932
0,092122501404004
0,0908109439376105
0,0907211653835588
0,0913782869966432
0,0903594090943278
0,0922536965382535
0,0930589442290177
0,0909221453750568
0,0909151688403961
0,0922188990061446
0,0906251773330844
0,0881296538426232
0,0884877743095224
0,0887964327360914
0,0864816136718147
0,0868413402296614
0,0875820812702373
0,0877337707764837
0,0876752496749105
0,0867869499592939
0,0871866127980358
0,0899934860224965
0,0885697311602199
0,0851551317340612
0,0860673815802173
0,0862494008581537
0,0867333757841304
0,0856756236181972
0,0822955863742506
0,0828700040442614
0,0847230810050609
0,0824573398127655
0,0836775070873602
0,0858093931587058
0,0828265759507398
0,0821956703839663
0,0818498636706873
0,0837484568025468
0,0791819009673947
0,0808030442918419
0,0825540927142627
0,0819714955924405
0,0813103928679276
0,0820518319017984
0,0819543741724026
0,0808882835487812
0,0800333872484507
0,0810927538787751
0,0779490253722516
0,0796215806902699
0,0779560664164582
0,0791596299845243
0,0769408260796235
0,0789419047288363
0,0788758296238904
0,077062424205943
0,0779820285748928
0,078869701726376
0,0764153477472489
0,0770814952120942
0,073704436032933
0,076572374335654
0,0786256773973504
0,0767577509514398
0,0777922014869213
0,0759089499595064
0,0771241281665711
0,0730652637423427
0,0734985566075691
0,0774618058267783
0,0758444691227616
0,0741902723941697
0,0760281767993362
0,0749430843108776
0,0741256807418624
0,0753276552464379
0,0736076268745008
0,0747094948076965
0,0776516260068291
0,0741177526390117
0,0747188321535889
0,0743030951762762
0,077172057458119
0,0757542001696296
0,0744112045038189
0,0739169652823446
0,0733865632870845
0,0732054505486233
0,072683878207019
0,0736171918485168
0,075989449116373
0,0758907831716466
0,0759395441928223
0,0764265193450376
0,0748608557302019
0,0738451371035831
0,0717499172790426
0,073276826956934
0,0738889702493192
0,0744042937217093
0,0721661710094176
0,0709918281595556
0,0725386605454087
0,0708184583627105
0,0735866696315693
0,0730922793195509
0,0720972630435831
0,0723497612357486
0,0727794676730393
0,0749492283651336
0,0726376829453342
0,0701950279172926
0,0704191282628177
0,0708447775636188
0,0714958593598675
0,0746297085470488
0,0699467856365076
0,0697625860007937
0,0711773316272293
0,0698456090647489
0,0696659147686137
0,0686382513355657
0,0718643926870527
0,070105118300717
0,0715237970403838
0,0713514381663063
0,0710385387781182
0,0715226529764612
0,0722099926071081
0,0694488693441255
0,0711397748633578
0,0706408573897039
0,0709704769936146
0,0706558160562825
0,0687477249795938
0,0687159119001908
0,0707795579514147
0,0716103089247597
0,0710503246388485
0,068949520428188
0,0680811411393317
0,0702162431507025
0,0733313347096703
0,0689293402226402
0,068191341600614
0,0700790362132163
0,0689644456202895
0,0703251677791676
0,0689231783541666
0,0689036332190103
0,0705468190266036
0,0692273587174609
0,0709255133787732
0,0704593537802968
0,0706167449241827
0,0700117336310545
0,0684930775225548
0,0704861800769664
0,0685652309387053
0,0716624864597847
0,0683797010900663
0,07029418975987
0,0688234493317889
0,0676358454156836
0,0697010823220963
0,0707805939886527
0,0705086409311224
0,069370536779485
0,0698578423241886
0,0675462291908309
0,0691025249251862
0,0680621476775008
0,0709874061957603
0,068645957443339
0,0692215228789224
0,0687841718120191
0,0701589305138599
0,0721853466475396
0,0708616354914133
0,0693407852489164
0,0709439538304288
0,0687036002831865
0,0696778219589366
0,0690188297251345
0,0710004338581254
0,068928197750471
0,0669934492388626
0,0669549653121953
0,0699426133410809
0,0701663135146316
0,0662254471544657
0,0709396122502153
0,0676857051789472
0,0717247029188923
0,0689433358580881
0,0705211355088418
0,0700899715009692
0,0697956906826672
0,0716910537619426
0,069822176305523
0,0690596523149363
0,0673395521645458
0,0711399337044289
0,0692427087072871
0,0688843901972693
0,0690861442058501
0,0687766039915379
0,0688298142619924
0,0695878981808855
0,0696598169605585
0,0691776788649811
0,0697673222520266
0,0682932306832145
0,0682338285849068
0,0723928302680504
0,0699642423680754
0,0700425452918179
0,0663013378129087
0,0701712690683761
0,0692634860315828
0,069075537728107
0,0731040084663494
0,0674419685008909
0,0705775598410537
0,0712496401127554
0,0704454530441355
0,0707674622447889
0,0701634398879923
0,0723824997530421
0,0700144404179952
0,0729944990262036
0,0689281533881029
0,0710244070969355
0,0709452181074389
0,0691337196600756
0,0681844188855255
0,0744757578395322
0,0706862536243164
0,0739120989837725
0,0707975852879253
0,0706243785624531
0,0721464110366686
0,0726577261174291
0,0731464692364077
0,0725344047431002
0,0724227712811285
0,0722377989950715
0,0734256460477172
0,0735649090676098
0,0734352649958396
0,0727734846583094
0,0744784545313485
0,075415985833785
0,0733208939200674
0,0746579225022103
0,0762615064476847
0,0753262559894994
0,0766637143985215
0,074874444789535
0,0745745157305431
0,0744268287295566
0,0749418424735278
0,0749811832614769
0,0761242200672552
0,0719005607686289
0,0779838120796433
0,0754209583351831
0,0747834964814253
0,0748106132239023
0,0797270457321589
0,0771041100930521
0,0772902788605592
0,0792927056573514
0,0807918314952169
0,0767315572154286
0,0737337399517223
0,0823948487809614
0,0793380210734162
0,0803139529698131
0,0794849880694871
0,0779721172060194
0,0821200958465886
0,0808948806419296
0,0828728992899477
0,0822481055240995
0,0811618316997664
0,0816009213136533
0,0823588080570584
0,0796758406311293
0,0854381352644946
0,0835675205940306
0,0834984137506886
0,0833979464544031
0,081568217038811
0,0832210631231252
0,0855901674163219
0,0848112521939533
0,0841497718754287
0,0866940271518825
0,0890277568635307
0,0830171913520258
0,0865768011114968
0,0924134697871617
0,0892522608409719
0,0901030956509452
0,0876133409336289
0,0868485806614209
0,0883867276767077
0,0883360828469097
0,0942131031909293
0,0916988699494385
0,0897032088105279
0,0906134025054126
0,0940284049484848
0,0920483944602911
0,0914496569242551
0,0950196189995379
0,0953368702595451
0,0969542442878693
0,0945174313542463
0,10063182587164
0,0984148163011421
0,102318218875308
0,0974630807191064
0,096925602326834
0,102258177103998
0,102078989531186
0,105563124741238
0,101804893252323
0,108662815408051
0,108624645206681
0,104421305767413
0,110935664561344
0,110949388850703
0,111248542539362
0,112353525258946
0,109065043643834
0,113177100125727
0,117017754564835
0,116091095602989
0,121411603329451
0,118844864108978
0,121530931161889
0,124068654186293
0,124935826726551
0,128558499461637
0,127750067648417
0,127534533383337
0,12877481326935
0,127100827666069
0,133429192778149
0,130453439160792
0,135898598561319
0,135355920256131
0,137364564134034
0,134312946234616
0,137877390748346
0,142276677975388
0,142415815916437
0,145216106322855
0,146726382032991
0,149324703836362
0,150579675003006
0,150503138291071
0,153777031209723
0,155439679889584
0,157532534270856
0,153290028856673
0,165308652215928
0,161666322507759
0,171662619140382
0,169543613733206
0,167776563296653
0,169727104745665
0,177402539961146
0,209871864984142
0,184335495357184
0,187179621051355
0,19201974314024
0,198329017323069
0,20992058447004
0,213758832349124
0,214295276669846
0,22106740624813
0,226420707376218
0,230657554906343
0,24357113633414
0,248084619170008
0,257258118435888
0,257690030221794
0,257494655136797
0,272978367520252
0,288178794980255
0,288523840816032
0,296138083838485
0,294860038971683
0,311889638811293
0,318592544821372
0,320014911579168
0,331209572644983
0,33990294811381
0,340730701849845
0,368098935336157
0,363736188717118
0,372754507817331
0,381190948502814
0,394587367267923
0,392704820382325
0,413791267500251
0,424638777440551
0,421369337887151
0,428404586015016
0,426913167085854
0,442294081048563
0,438579502709475
0,468900733672066
0,460239984028763
0,466818163128091
0,477706973058017
0,485290470892135
0,48829025881459
0,497923555065576
0,501942850248908
0,492437471890191
0,521076057521158
0,517924092032994
0,528911746521438
0,524796186970006
0,511280081358158
0,525106717488937
0,513299691634134
0,537751390900501
0,526124801540449
0,527780905752109
0,522924427352434
0,525899479175746
0,531465433721858
0,530789624189791
0,535421567920735
0,538364379589794
0,529086238375145
0,530692159511397
0,541297198361299
0,53577729506742
0,513305208140067
0,573125785241017
0,534247757407686
0,5363052268406
0,522903649673506
0,52757801208562
0,526974482076394
0,521631817441542
0,523446135158749
0,529996281723933
0,508818775036362
0,512464513257491
0,50372582022154
0,501665343646731
0,496987926957037
0,482810092385709
0,479585927342981
0,480806019003149
0,467510797948378
0,465702807475197
0,456915182892167
0,49335317302003
0,458661404394139
0,450478484311277
0,446222763199023
0,45305727673034
0,443020194988521
0,436268831442049
0,439269577789645
0,442709797248045
0,427915331224292
0,433732820904821
0,433759884217579
0,425582187833793
0,418639801000907
0,417154526233488
0,415382962096253
0,416487077261317
0,411419929230064
0,412168070668397
0,413744864356632
0,414593309038318
0,406186251929559
0,414334269632156
0,408281143054734
0,409039870752682
0,404119793602118
0,399170903691145
0,402819988396625
0,400853100668502
0,399323050203036
0,396505787124561
0,398063129898747
0,393340141283136
0,390960537653984
0,392379044787677
0,392802461740256
0,386158735080507
0,3868134136513
0,384161531447717
0,385310798045221
0,388385214042916
0,382661749396153
0,37809506087865
0,397583138129556
0,380983430330608
0,36769529566717
0,372940173901586
0,374512961251342
0,372763343985204
0,36376207109757
0,366872986112353
0,365876610564063
0,359069743695091
0,364038415193448
0,355696229406151
0,356100845652738
0,364792111450122
0,349315433699744
0,350087672691394
0,339571282826436
0,350850693736991
0,353542319464107
0,366940487512679
0,363010969861655
0,335018124951809
0,329936816080917
0,335843741746879
0,335834874550886
0,331186062068261
0,335131649109068
0,33565892111671
0,338126383305111
0,33549872258354
0,328411531808103
0,323260432521712
0,319947201804492
0,32475697904474
0,32757991352629
0,314525817362257
0,308882808651976
0,321950707798111
0,319759121895701
0,321334275740036
0,336711116093558
0,314563098551372
0,306993909283297
0,30861068266605
0,299413921791905
0,306102675188353
0,315351715278056
0,301442717770419
0,300887834189395
0,298428555941629
0,286358576459283
0,286419004879354
0,286986069033673
0,290211516696178
0,287043022731749
0,29477952135165
0,276246711635281
0,284184850075542
0,279653071281707
0,285794026226829
0,283868747045351
0,282463539660684
0,27437030773728
0,270862811937357
0,27772919224447
0,274910898807724
0,271492233901638
0,268370097635181
0,269611869988723
0,275269721812281
0,265904987650429
0,270136079285283
0,266622060212425
0,260875663047379
0,26646284489392
0,266813862607636
0,271950896458853
0,266403930203867
0,261222853793442
0,262387211991185
0,262303385025772
0,260080290030405
0,261757306968717
0,273992189148162
0,268842576818782
0,26046296445363
0,27517490169262
0,273998649480969
0,271352633862925
0,278582787654132
0,279385911891101
0,278096902489978
0,281241820099905
0,294793337094991
0,289458338672221
0,293947491634523
0,307892576575302
0,303547266829721
0,305944178247461
0,310523390913547
0,321602555470261
0,321688428342083
0,328176450931724
0,336093072740722
0,341430386610767
0,346596205504008
0,350598544163901
0,359897843353042
0,375749801770382
0,373015452370106
0,385178751654944
0,386177556335845
0,40397672757497
0,410790207070878
0,417196627713156
0,431058332422007
0,432565605638424
0,442144820205434
0,447455882293939
0,452509366530117
0,470601946596975
0,46391300653134
0,473916147142123
0,47916979386409
0,4811301143114
0,490404587329613
0,507651762481393
0,506252897323055
0,532656651802716
0,518970825181668
0,506253344869664
0,524221645345731
0,514929505847904
0,520537897855157
0,525690659032727
0,528464251019992
0,52402341594816
0,524086811978943
0,544006929373226
0,544250002459528
0,539917072428091
0,540907362405064
0,539868825616451
0,545318847812672
0,553208156694604
0,550937398328768
0,55164781961208
0,55787806560766
0,560411900614962
0,558186742506853
0,569149083348943
0,576884982376702
0,575339331901075
0,57655096568591
0,584766469070695
0,587648249762595
0,585159878019398
0,599809973912149
0,602051694298289
0,605740518671801
0,613866357937681
0,613417376279148
0,611241302181195
0,620217160426432
0,634842421606134
0,628504656529132
0,632668204502941
0,633784387130052
0,641977632260319
0,664417231764664
0,655284333949732
0,656157236637415
0,650757439722315
0,653329838083136
0,648250180385665
0,650708627639483
0,662420165405846
0,658076535264459
0,651536651435237
0,658859380400454
0,662248610791334
0,660678053720497
0,654321306464601
0,64893623328276
0,669920889259764
0,660481997626551
0,659377766072428
0,661662974253939
0,657640413786427
0,652328214775171
0,659103982332053
0,653484460475074
0,649866716659171
0,6576791830819
0,650758963093069
0,654391441359077
0,652021907342723
0,645910611080849
0,650932740721381
0,650784436334874
0,647721815745668
0,645831204746412
0,648552289317639
0,666833182188327
0,662159114185828
0,661252434142343
0,670294919679669
0,669921903466793
0,671388268284766
0,680965802145303
0,683050784936269
0,684029572865067
0,681584325942408
0,687623802633993
0,692415522046223
0,690394850313848
0,69545290226991
0,696890993100198
0,711009485691407
0,700914166408515
0,696463671414732
0,701333494949131
0,695436474814455
0,704033918299423
0,704873773241483
0,697972600308086
0,69108451774035
0,692079562638963
0,68535137543292
0,691801492313037
0,681431366735947
0,671213728031629
0,672065032418088
0,670038276799347
0,664306796680648
0,661497001375846
0,65583233427216
0,653995363660013
0,655637711799996
0,648558377340339
0,641686931826915
0,642739740330646
0,648040625423917
0,641345643101098
0,633636217083144
0,63839839916511
0,639914792527954
0,636484695218795
0,634095027580966
0,635012770886633
0,635376315762291
0,633734583335846
0,634870901090583
0,63836085417555
0,636777314725412
0,632346542451101
0,631260884177553
0,629349870697563
0,630927542881895
0,628350090809337
0,629272810644828
0,628853360580587
0,630243421040693
0,631511976410186
0,623948915836247
0,621994670541314
0,624765451197456
0,623685630537172
0,614908204640295
0,618361265185936
0,618799913376384
0,610744366095527
0,611102608445382
0,60836247974053
0,612683279651597
0,611271448313858
0,604708923665265
0,607295204830243
0,607371315595203
0,602314373972035
0,600996323643926
0,598074946890795
0,596424108675852
0,601571708178148
0,605834763493829
0,604349647837983
0,597947188774224
0,596769044422982
0,598082014009138
0,594827584192824
0,591457164910674
0,588260069179942
0,590797542462672
0,591328817872101
0,587933383537581
0,586943098426361
0,584181205658607
0,576570914689097
0,569887257990346
0,563040040624171
0,561734145101458
0,557760880490806
0,550426209518826
0,553387099972344
0,547549740684094
0,537179474324263
0,540326011878722
0,540472928431134
0,531862978001682
0,526284719299484
0,525715943714385
0,525334802718882
0,520789318322067
0,520077103435527
0,520019050119672
0,514577215367836
0,513327229751033
0,512530045777656
0,512430412531571
0,515060218357329
0,513820301143386
0,515760523511885
0,517701750513115
0,514064550757856
0,519401480361875
0,521510219908801
0,522439315094209
0,521963832224935
0,524312844448254
0,526656621729759
0,524963092770228
0,526122983381014
0,533268299910033
0,533043661758173
0,532390032149426
0,540305089571988
0,540939829194571
0,536718836811878
0,538956711096296
0,542806318038115
0,542218572866947
0,545276419488354
0,544265160521232
0,539021803465493
0,543407914468052
0,537160184625324
0,53825234809026
0,542431092299147
0,539117461530601
0,538251224837372
0,537146019558236
0,537133059224057
0,535844463339832
0,534614100496841
0,535436798160744
0,532759936941633
0,530028726288433
0,531657500173145
0,531720648987461
0,528559730237741
0,525652909420736
0,522117749961428
0,522500505622277
0,522151753139519
0,515603876470225
0,518689844139094
0,517823033172431
0,515461725048225
0,512687029952956
0,512135413963622
0,512107114754564
0,505832018728496
0,505805387356359
0,504600542577061
0,506866909668105
0,501890584626619
0,496662869466361
0,496784198953443
0,496103305844023
0,490998932274652
0,489114833170707
0,483908559605334
0,481397986583587
0,477329691265136
0,473782299644945
0,474078646301744
0,471677757570847
0,46860356397364
0,46810185791195
0,46242376296825
0,457372594247079
0,458630042137427
0,454624571775227
0,453178851503409
0,452212346397761
0,448489356774148
0,447210366337095
0,447004599425891
0,446534956404928
0,446489710863215
0,443595117750069
0,443493827068803
0,441229291742877
0,440702365510206
0,440923949478409
0,436408457029265
0,436979194277982
0,429930458014138
0,428167331922917
0,423214053007184
0,418444390618995
0,410814007392393
0,405016180603385
0,400154958651269
0,392597506758496
0,389560436180691
0,383696761782662
0,381973410344181
0,379391619367052
0,376668753796972
0,376878051967272
0,377487857406624
0,3810852424963
0,386589559994584
0,389265494509741
0,398632107425649
0,408714552570094
0,420407727637733
0,431186268033341
0,44218634916867
0,459388515009511
0,47619990242549
0,493947592450367
0,511123594661813
0,526837788099998
0,552906993808941
0,570135566569037
0,586839912412413
0,610782600009744
0,626486666779878
0,651764933060412
0,678809022409293
0,700996928982836
0,725969833710325
0,750251567678766
0,773483588238867
0,793646047608539
0,820302364853636
0,840853092167914
0,864075615261404
0,888930544178745
0,904833379307726
0,93416889997844
0,957583809622667
0,952267881824244
0,968391826382064
0,977903009647904
0,981555343251617
0,980347313097269
0,995481212783632
1,00171447395596
1,00222622341261
1,00339297543577
1,00482458196377
0,990371158625138
0,990836822414141
0,991355163702173
0,980793232727366
0,96613987719601
0,974595435743867
0,967428022815253
0,963889096233305
0,961453254294407
0,970499456731126
0,969166811756624
0,965791115402624
0,966158164903409
0,973054961759579
0,983108445224281
0,976445881089078
0,977405193179096
0,998906709977175
1,00265553418856
1,00749527431487
1,02221150392643
1,04188914773086
1,05021162186511
1,06526495239525
1,06696480893976
1,08334071663905
1,10141437350381
1,10846864695905
1,11221930617582
1,10878211066733
1,12196526509876
1,13583582757965
1,1419097012763
1,14908498432612
1,13849477129232
1,13755875837515
1,14288160370491
1,13701519079443
1,14265422323461
1,1315901582281
1,13558865920083
1,13539220092613
1,15142131022065
1,16634760887296
1,17694023728936
1,17599381888795
1,17783002134667
1,21444139407883
1,19208649583717
1,21810943460999
1,21996165170841
1,24303357495171
1,2268259980259
1,27275472914778
1,27667362090174
1,30063241117305
1,30447092683786
1,33647805044624
1,33617196476284
1,35137629816527
1,3667986948411
1,4281044496339
1,42253558055112
1,48689658344777
1,50647832306087
1,53973199034509
1,5217311146727
1,55980484744098
1,63217716172193
1,73200401892727
1,64690019498647
1,75352179941372
1,78008620063137
1,72963035050891
1,69476530912487
1,73139721717086
1,80951799660819
1,84750183452036
1,80486095307907
1,83869955248694
1,85550188445778
1,77615955326416
1,74773596643693
1,83358187858881
1,74894006231821
1,81286638955704
1,77897874699252
1,80073554779295
1,804871033714
1,7979526862773
1,73894208286803
1,85372474337065
1,76339913966725
1,93238202127522
1,85916859981468
1,95714951283494
1,81873408347411
1,92953113742593
1,84900474918169
1,90368089476261
2,0512945097436
1,95446122018404
2,03621605528573
2,18990546855041
1,93997243049868
2,05570623827252
1,98362608685071
2,37216149331516
2,13806495963508
2,27046569629032
2,15096775955529
2,09750760971096
2,24459138488735
2,3610590044162
2,24668842462254
2,51711085167135
2,47988638493252
2,25890061101913
2,21129921899373
3,12526917864752
2,66541642629057
2,31705174010412
2,57278061758654
2,70980379696213
2,45438921867371
2,40405054631628
2,6221942761501
2,66560633420225
2,44442983722133
2,51683915375154
2,65943600097871
3,38652998054103
2,32967080858131
2,82637894375223
2,28339124803273
2,93159428684557
2,11110039084443
2,30666174818028
2,50459071628626
2,51530605534421
2,95261396619679
2,57507535106229
2,96455407337588
2,30555318841679
2,11555431234386
2,61427906803135
2,35145465519154
2,50797763616965
2,63030211271841
2,3255553687805
2,00631743271779
2,0850518896469
2,04188262046518
1,98311919420271
2,07044548584995
2,54680060690105
2,15980354995021
2,14923790915839
2,08366923950159
2,18426519438572
1,93590766749978
2,23684877517836
1,92854151047047
1,95702729255065
1,83678457958065
1,85146814608759
1,83576049286588
1,73282894935552
1,76977253654748
1,82528785384255
1,60342568930961
1,63362010366978
1,51359627066801
1,5059072894883
1,45860389979854
1,39338296724706
1,31129754417039
1,2761194455876
1,18259476222707
1,15595417639682
1,10003868382606
1,03206890370377
0,988177077679296
0,951568583488418
0,888183578180695
0,869109088315996
0,814748493789272
0,793687750076886
0,747820057030098
0,72232861205232
0,692779344145197
0,677917993619217
0,658991745108002
0,64185550041279
0,611992542552235
0,605465153522532
0,591457919207462
0,577307689038534
0,559954530904428
0,561621098750246
0,556503810826056
0,550429686994419
0,541995930932981
0,537657799328561
0,547655942343327
0,547912401357313
0,541628460483758
0,550392029633892
0,539312114820654
0,545272086068868
0,542217178121681
0,559701640178347
0,549666551637831
0,561285133886346
0,55875272574818
0,569117774676631
0,566113289911741
0,572160674526322
0,571492893277912
0,576297536394223
0,57759243764363
0,582586648348707
0,572578221927516
0,592009488000568
0,574914506015676
0,576650018911414
0,573463357426635
0,580157997611264
0,584897155419185
0,58164713688758
0,591433312573317
0,587197729780034
0,588220787600393
0,591356027410053
0,596382023147912
0,598250670002338
0,596337295841384
0,59395222905873
0,589541464398639
0,59209369167208
0,592802903048206
0,595970724259036
0,593805425990259
0,588442694641931
0,587793154699872
0,580866663327
0,582331692696986
0,594195584860887
0,583379709930752
0,589113163308007
0,574228143121824
0,578309350561458
0,572788529261241
0,579592853560543
0,582089367402253
0,584606831118718
0,584566002445843
0,600329084609172
0,603471957354855
0,610686525484923
0,612277122681205
0,634992846131425
0,632185126567271
0,650924250637766
0,66859916894927
0,665972928871368
0,691548972515462
0,690987601396198
0,707272203006726
0,704817993174901
0,705538891913206
0,698643294655461
0,672452268223294
0,707806188747941
0,667249398471665
0,661078786265282
0,648989110064005
0,652024866620804
0,619469902136548
0,635565863149721
0,612841794675515
0,618110440203644
0,605309027299965
0,618073554369785
0,622817539893603
0,629624693314616
0,634161284874514
0,637818307809122
0,626117908604306
0,624583058878309
0,628961809674042
0,628837293588597
0,618087158095232
0,609412489518034
0,61579473119452
0,614528781822214
0,603308343788499
0,618243140863053
0,623916002112397
0,612362272786012
0,619783289791593
0,617894200463731
0,587227806951114
0,598239662422943
0,601018548126496
0,612002857417793
0,597186907269529
0,624557033289965
0,603439472706474
0,600961195637627
0,610148386582696
0,59677460475853
0,595616442994293
0,591672667676203
0,584902914312446
0,599827509946451
0,603113905473629
0,594260022234454
0,572282789286577
0,594899891280915
0,576821953665089
0,612348006890477
0,57188187881612
0,571234774882104
0,570308810623525
0,565399132558904
0,566041764185708
0,557641853725711
0,54231860250826
0,557354909038067
0,539891317450893
0,537781424793479
0,531173363978955
0,541757999634425
0,528133270708547
0,534645509512299
0,519559609850661
0,531867702288531
0,519264642880728
0,515464054741378
0,514852094878312
0,529457711722745
0,521395267450588
0,527736016336501
0,524227023410859
0,538081927828227
0,552778686954575
0,542864423282577
0,528499721744623
0,534808601217137
0,532364362177934
0,550517284299346
0,542144321960515
0,540589561264204
0,533163553861163
0,542184038369369
0,537305747520708
0,554603171707399
0,549165343025012
0,548969101971195
0,543927778807354
0,558430526498368
0,5733864838203
0,594481939060415
0,587604011786616
0,59873556047298
0,607226852980654
0,610317638020766
0,642133572759035
0,653798094611756
0,60513537798654
0,645323529693481
0,651783875716571
0,698989304723265
0,683693263860535
0,705057278108849
0,720207359955646
0,752392302234239
0,733050396013757
0,787054715469764
0,791439823006759
0,816572573686333
0,777005654792137
0,863654566425326
0,831440173902721
0,833137795699386
0,848280993708098
0,862568129451582
0,882906314381636
0,891325820171896
0,82815286635141
0,878460890397089
0,883941076250887
0,902739059071022
0,824136339556162
0,883671290393163
0,832090928257641
0,853699421385386
0,821212791071361
0,963781106548475
0,879003486058876
0,89494478004816
0,807234000784651
0,942713942027009
0,87845860777553
0,918946925134323
0,891084624189073
0,935588193686363
0,843104398213169
0,946571257979545
0,825920032306757
0,856886322498229
0,858576870242733
0,820904849256165
0,843444428954357
0,863946321821209
0,799971183306187
0,840382917515572
0,881563682287716
0,884998236259343
0,863468314284914
0,861714166624524
0,769312897285247
0,801631383900367
0,775139661148248
0,840358787080433
0,738744835660425
0,857257645204667
0,751110946272281
0,828900522533997
0,700577420405653
0,861735754198668
0,810498100652732
0,849460670653238
0,862760824743517
0,827811754858826
0,78990403380697
0,883410557733999
0,78345951713588
0,833538322722457
0,820178925715027
0,851959492283336
0,772386525920228
0,955351114993976
0,82006068760728
0,975221252826749
0,806206985519623
0,891256481883357
0,878549608836748
0,846166426207556
0,769254622425057
0,864201576300817
0,829204422595675
0,891081120619754
0,799080733982653
0,89483485739455
0,910498053901819
1,04990726972382
0,929714592495892
1,01190321590961
1,04070375693269
0,933001669061499
1,07239153404193
1,05436323724764
1,12468166930788
1,07589844239155
0,935972991748497
1,08745427938311
1,10594256997658
1,0593908325783
1,01322129471788
1,70658536132184
1,15143413444658
1,26439862587335
1,02776268869715
1,00914819280705
0,865254566530575
1,15763633872309
0,972117616048547
1,0709341187006
0,860256304428685
1,35389871214196
1,18276811612824
1,14575628699928
0,993227149952113
1,1870674291746
0,915998847985401
1,13214906038263
0,819814618529352
1,4837990226965
1,04464303683961
1,20296429598496
0,75842859856884
0,867065188192446
0,958637252942672
1,82411864646541
0,888522098761162
1,20447820813269
0,910139975120311
1,63610340751949
1,09978751143909
5
0,920134436427394
0,916143033462492
0,740750136038093
1,40515035404548
1,19503103016196
0,997364409956554
0,846371005987172
1,30700772318713
1,72051266472204
5
0,994460312564436
1,39562680832239
0,926993465644228
1,05464307146444
0,826719445153328
1,21655960917286
1,37293795800301
5
1,16505298232088
1,60110873912997
0,787102518463848
2,20515109893204
1,54003878037279
1,09075638518667
0,981154409595375
1,77431776205257
0,612671155480369
5
0,757318232549224
