3596
4000,36533379555
650,420452594757
1
2
2
0,0385877396148288
0,0473767587319122
0,0457196299497033
0,036678642563766
0,0374092096710658
0,046082512912028
0,043848810688482
0,0365280882091428
0,0395245994064531
0,0434146199809867
0,0341972038195459
0,0429887786602071
0,0470472561396533
0,0406370573552908
0,0324829427772681
0,0346841743478412
0,0416143539153437
0,050405089999502
0,0327582969470505
0,03878802765411
0,0425874842337822
0,0423651713980663
0,0425655833002407
0,0446983129466186
0,0390277986239219
0,039679664552124
0,0408843960060171
0,0482418362695701
0,0391112248237425
0,0401348739274381
0,0307525158935637
0,0355500315056159
0,0453854852223369
0,0458565906308172
0,0400698271598992
0,042779512135242
0,0448892412780092
0,0474462489735464
0,0298906647245266
0,033383626543754
0,0385467514979532
0,0348336709717983
0,0380768195618947
0,0443999672245603
0,039631384479617
0,0413626370718691
0,0411418575872897
0,0508943710574124
0,0439582259572534
0,0415248725964777
0,0401871292323759
0,0316625176900375
0,0362529888330241
0,0453763192270663
0,0365585712085175
0,0425418108251663
0,0441138984434358
0,0412187331964605
0,0350238209590135
0,035605629914468
0,0348850964104699
0,0435399164718644
0,0382989283198219
0,0418549491221114
0,0375719631755441
0,0432517459329628
0,0374952108813675
0,0389398490443014
0,028266313636752
0,0379929881986614
0,0359283310976102
0,0416622490309726
0,0477737043184143
0,0348925386592116
0,0345478867404521
0,0467512264532558
0,0357172175894055
0,0396653377101531
0,0311274940636643
0,0390644278351134
0,0404345960304491
0,0430784189680229
0,0391079439970543
0,0366362939248722
0,0378567741728169
0,0480441913507653
0,04305251591611
0,0361385527262568
0,0386498379452228
0,0424234111777751
0,0387018174321532
0,0355132813332038
0,0345106855435327
0,0385118279572582
0,0451705282964039
0,0423795348122556
0,0341994184595472
0,0399998122131176
0,0340147593263096
0,030034130968671
0,0285363763893841
0,0191976529965447
0,0448582628994761
0,0393276875599149
0,0461826934199945
0,0389848362016513
0,0212754269696926
0,0416908950207515
0,0335912628394256
0,0331348764652582
0,0342250016949085
0,036424757333028
0,0333351852273287
0,0437556551402338
0,0367746535778706
0,0383667952257932
0,0344783694857523
0,0352068781435502
0,040180523964108
0,0368983005430246
0,0250225660653614
0,0399580431349808
0,0450845327511877
0,0446839456519767
0,0435439095300259
0,0328117839970655
0,0322242519586253
0,0250838315945968
0,031121100215829
0,0325682592340877
0,0315674666824749
0,0366508615454409
0,0356340202133055
0,0297549012643495
0,0364595425745848
0,0356749530946681
0,0267503525356908
0,0271044775973463
0,0266779897791496
0,0404263975703807
0,0380791467654992
0,033157145513744
0,0293212318735144
0,0259180834910233
0,0380564267960044
0,0307629201192487
0,0219806374153605
0,0284186481993222
0,0341274392143765
0,0336832385268513
0,0332619814445398
0,0266478527408672
0,0341115475928024
0,0411484054503045
0,020321600643106
0,032865738106757
0,0380632770606967
0,0220401289793623
0,0402481996249496
0,0305575837621105
0,0276772814385935
0,0328646825905241
0,0251951050157008
0,0277168117146916
0,0346942617351681
0,033297732949461
0,02874497134846
0,0337622962628558
0,0377909275391295
0,0389713572617277
0,0335052272802982
0,0367463708672509
0,0311826832891039
0,0457171398453547
0,0319963739362567
0,034317981175676
0,0312686757971602
0,042511029208801
0,0289892605702364
0,0340360792222654
0,0494271521285663
0,0300126516945222
0,0353456180467897
0,0386510308903101
0,0332896468020466
0,0463542761830905
0,0399328103279757
0,0325803878636113
0,0341512236125322
0,0245658271108446
0,036423007119798
0,0336731891554952
0,0311013128580995
0,0370601843310953
0,0347031434869973
0,0290368304990861
0,0416101419871433
0,0430685962357807
0,0294520394148402
0,0321735855873877
0,0303898223138027
0,026536111300292
0,0320724911277408
0,0411023008969407
0,0352794309587235
0,0310709671596375
0,0439961118852615
0,0445653222908703
0,0312872829650959
0,0328948115846902
0,0273971335376298
0,031695370928757
0,0433685285870576
0,0439991589965987
0,0351555313809832
0,0329825759184474
0,0286016466155717
0,0356906331481644
0,036366842246579
0,0257064938668303
0,0284502137238171
0,0322620537118722
0,0371873591668608
0,0364616183896307
0,0285724679882344
0,0441762189798266
0,0343875564568735
0,0364734510335254
0,0355281192363845
0,0376552238007717
0,0415104953601287
0,0313215651159932
0,032580970528075
0,0354035773853686
0,0374052583868926
0,0441363958940578
0,0386759445687316
0,0342425906499642
0,0324504580166642
0,028491579008014
0,0283488030828032
0,039023762201665
0,0326486974686253
0,0382789162420488
0,0395122568977098
0,0368046644721847
0,0395430059040547
0,0355091834377431
0,0387363105065617
0,0309963333635026
0,0366020588518258
0,0382650103940639
0,0272406531765489
0,0369210923860641
0,042924682112182
0,0324650213947856
0,0267739469428011
0,0459790368979863
0,0365985017630726
0,0348785497372228
0,0206125841896028
0,0464093025626665
0,0267067268266791
0,0363706195949895
0,0156565048639802
0,0446442554639734
0,0295433005397965
0,022057018631852
0,0395615156179032
0,0529582824874048
0,0302326471726643
0,0270335988674725
0,0234330774862154
0,06194536477301
0,0416935443593169
0,0397347777815519
0,0320323981104402
0,0430512683299207
0,0341785729937348
0,0307037700290788
0,0364311867751816
0,0410629039694006
0,0405415182171823
0,0221745217738661
0,0409168134573262
0,0374049603829288
0,0401135196622332
0,0465401521094492
0,0375648602423564
0,0384714241254729
0,0400411342112892
0,0301653864811525
0,0312968218773684
0,0460608226534915
0,0453964628087054
0,042264993761226
0,0308335647282908
0,0417559243403591
0,0397331153593257
0,0396102454907639
0,0388566701705077
0,0442573388912802
0,0411610056090719
0,0438813051631773
0,0399559832779458
0,0392047472970588
0,0422623128742235
0,0377821831419636
0,044390886413734
0,0461949244208728
0,0357382251173294
0,0511098936111211
0,0454201678340575
0,0419368910643772
0,0393757586458034
0,0476888481103611
0,0427385196928013
0,0436210263919258
0,0432664520644843
0,0531342685024691
0,0495530401689504
0,0492058912726829
0,0436835466957193
0,0491659839909206
0,0445458830429926
0,0454104994992467
0,03999398919256
0,0501035650614949
0,0408397808650124
0,043293572188279
0,0451947989849491
0,0599125890634332
0,0493875849170731
0,0471278445825293
0,0610870242044095
0,0471782976555431
0,0517427873322862
0,0482639846387786
0,0498602283788431
0,047141709557936
0,0593174139239404
0,0535056615841533
0,0541135811219101
0,0570187083111011
0,057433291213606
0,0571916671099353
0,0676340845782179
0,0722150357317875
0,073288611979564
0,0491494626508871
0,0574660617866826
0,0529187139417504
0,0715456945848154
0,0723385799448051
0,0779278717028375
0,0711836090004465
0,0694754465094272
0,0649266549443388
0,0704315161605936
0,0714653791346477
0,0723212629248706
0,0773019931128598
0,0825582742151786
0,0770106712076523
0,0721377153241503
0,0853175586236005
0,0786468953792199
0,0791141293358035
0,0828054997251833
0,0871754487608336
0,0892632282195024
0,0911500225041152
0,0897629195695864
0,0934898799116501
0,0937270665474238
0,105594416058833
0,0965269893249114
0,10863392113771
0,115704832232342
0,102517469519438
0,0994193590233672
0,108688779141591
0,110505484629732
0,104581617019921
0,118915247532256
0,120006983998602
0,118123242493244
0,123459646672706
0,12511656438843
0,126435138353661
0,119160619606053
0,131910192464834
0,137599096610288
0,142551303450352
0,126894863843849
0,13676748093686
0,150333699706634
0,169396253841403
0,148739341378923
0,135094309871615
0,134147694198718
0,153502764172177
0,156130334761676
0,15419385929375
0,155853241012105
0,154450957355687
0,173215210525402
0,162385470703767
0,165036277958067
0,157972442151527
0,174615877149985
0,170023751936015
0,176137419454122
0,171899758364002
0,179755591561283
0,185187770230644
0,183891901984089
0,180884777018247
0,200439211987581
0,200851612361636
0,197391168615672
0,203598872770192
0,20424683453556
0,205310284933113
0,212457004053233
0,207238458830503
0,217508897489032
0,207504656862439
0,215688849152421
0,21930734599875
0,235324669122409
0,210548000495357
0,227982570397392
0,24020564679898
0,233153954673183
0,235794022730553
0,245834984095834
0,240812235516104
0,24273997276517
0,261775411210527
0,280841284735584
0,267576838889611
0,2691010628878
0,255671522237769
0,271543938110853
0,260733857911318
0,272361981244798
0,262290439003909
0,293093063184877
0,290412835421271
0,294568330999514
0,291708132277404
0,299723274821854
0,289048537804693
0,304425628653573
0,290310421521733
0,310491669305055
0,298143754060083
0,29946615577036
0,308515764472342
0,326383774986334
0,315633471828472
0,351382393571663
0,343013508341889
0,357092015706353
0,318407280082434
0,346269566137566
0,332143366420788
0,343315995397874
0,349171430737778
0,376002511612607
0,34834506967427
0,364179974817274
0,360270657895773
0,406007186798516
0,365643783769589
0,380826459746076
0,375963734880989
0,407362027340134
0,386699348868547
0,423602919883582
0,395134784529121
0,413089887158368
0,38259152202911
0,421003368654098
0,413098902642855
0,421505406771964
0,40308191095687
0,439713550762888
0,423745674096697
0,447854568794249
0,425727435009441
0,458219631482014
0,43884969463707
0,441130082796868
0,470968219507608
0,482388863851653
0,464698871292284
0,511518519720918
0,470419055076971
0,475530453875997
0,477841928668769
0,48743792240634
0,502974752054268
0,527012979830234
0,482113493455644
0,504238506413009
0,501746858166994
0,515981918610304
0,477256829183635
0,525542500570054
0,539187914931217
0,524470488161359
0,530522137809277
0,545772744737861
0,515522595355638
0,550101021053527
0,505584183785106
0,569061728276751
0,545733077753584
0,574999900881801
0,552274028572391
0,616095371428369
0,577395966226128
0,616293730157258
0,610838627846139
0,634416964860469
0,563108467073257
0,651321100419644
0,584327739289852
0,642132845414244
0,595797777560145
0,633415200862668
0,60536785906213
0,676963788611939
0,594403790040364
0,645639974390182
0,622344500986153
0,680473517935568
0,619496723859178
0,691479589324491
0,653646437419186
0,716445175381305
0,652107339511932
0,691112305765794
0,68791639879876
0,692030857911346
0,652729984248087
0,68116503650541
0,644540870392555
0,735455184675291
0,65698555912635
0,746114706346752
0,70000892237864
0,749548666310445
0,725983362038078
0,707310423173273
0,700030425274927
0,7316974612211
0,759880653801903
0,808366328725167
0,704330374537236
0,794473746769323
0,721290884556836
0,780019232142294
0,75747858089435
0,791004522983914
0,737903426928904
0,783320676274495
0,736726618186045
0,875258464332248
0,725485451751173
0,887747419292947
0,838221893833682
0,825913264443802
0,802616815858274
0,869465582032652
0,790597650260398
0,879735658840621
0,824874324338674
0,859492044442108
0,827279923892041
0,80147064479516
0,807978321739267
0,899752836031432
0,85045977972271
0,885506540994019
0,803486850856816
0,914551334618955
0,854971319417281
0,928533829658962
0,836107464586588
0,966100536130168
0,851922820248112
1,01931640967947
0,907540103192919
1,0077267964642
0,886378325710455
0,911817937600664
0,894089974578705
0,964052406809648
0,790470697402417
0,935494421906541
0,872806352024675
0,925459279012525
0,936461304408409
0,980550177044361
0,901024872154874
1,00369846738671
0,945479886354679
0,993667224689219
0,994866342467391
1,01456341746585
0,935959967248671
1,06304386334216
0,930207227257722
1,04703943741442
0,994548827356134
1,04696373096162
0,954784790931413
1,01387775013594
0,999323458974301
1,0358747926586
0,946966201199256
1,15336655633355
0,952590318825869
1,06583844560619
1,01961871016107
1,12496811367681
0,990085005416534
1,02390433132631
0,961260863991333
1,13454751544974
0,923083703446099
1,12207042810154
1,00056226521808
1,05426026386477
1,06040326192778
1,08373847496797
1,05413787296509
1,10419180412767
1,02206094627658
1,07693988370188
0,997733320118774
1,12758920273032
1,07363175006202
1,20099240117603
1,04752629029508
1,19750430214333
1,07192617632879
1,12842753215211
1,07461143275704
1,10569532086826
1,03435012013975
1,20996595057273
1,14244196756356
1,23162114234968
1,07496746403523
1,35562350826202
1,08892790900365
1,09008651764407
1,09108285651335
1,23303963587912
1,10632802749886
1,20444928491803
1,15596230922854
1,17688296257438
1,16563572649118
1,30191250328923
1,07963086942804
1,22101068460218
1,07006523972503
1,22348886921202
1,12072347066875
1,098879155155
1,15887578909226
1,25969102162555
1,08399857616785
1,23213056263698
1,12229324648138
1,29211954221803
1,16227679036841
1,16557895776439
1,14358627221223
1,2246592772168
1,16300439521656
1,29573141028186
1,15200530709416
1,20032084457876
1,13730681690578
1,24927436084179
1,20880110888552
1,28682842268585
1,15256543746944
1,32826459452828
1,1604975889347
1,2117426089976
1,16924774746123
1,25438926452302
1,17509764090782
1,19697417267559
1,21194978532312
1,21927433876872
1,1964430618246
1,29155798204551
1,22801438498651
1,26563495751754
1,19526387600991
1,29643783239566
1,22969089149495
1,31659793833546
1,16631417806343
1,31936177286923
1,22683597450667
1,26603371770408
1,19006392821473
1,1991381929982
1,20348708542084
1,16601650887357
1,11428928025713
1,32036782664666
1,26547388027222
1,26188366344854
1,23969523873734
1,30064099068924
1,19035592812174
1,38165099305426
1,20366133132196
1,29170382130119
1,15281125765847
1,31482827310327
1,18948866939252
1,22607180030509
1,2372069499732
1,4120251921099
1,20594545143723
1,36156631078305
1,17377913994846
1,33252474137582
1,2697412989363
1,2324746368381
1,24437830296904
1,26084038194368
1,22117198915865
1,36458106332162
1,1927950405173
1,22486797184195
1,191872057549
1,289502825622
1,2831446489872
1,44071871659036
1,17232116572209
1,22384668777742
1,210990193952
1,27513428676549
1,1837151893675
1,23922323590579
1,22572868353038
1,29491649495342
1,21812480942678
1,33252704081539
1,20962827547201
1,30558693140725
1,21211035847379
1,30486631500724
1,21273612519837
1,28935631429035
1,25363532341081
1,28879698413046
1,14290788764488
1,27811801505001
1,22488328935577
1,21209518868655
1,18436699623253
1,36274975154096
1,23925222067995
1,28518096305213
1,20399036031087
1,18514173052543
1,14694953366545
1,20745096199892
1,27887359135597
1,30622138128913
1,23352859257635
1,24609840183944
1,24792183999881
1,27354929825622
1,2189816890071
1,21430823955509
1,21724364700359
1,28093230312845
1,1794060743447
1,1845856677745
1,16626068080057
1,27430885078965
1,23572336527258
1,264222770322
1,20797177660174
1,23101032813954
1,16214019885429
1,25206578540494
1,19554451032249
1,29304751695176
1,20038986282239
1,18462216245984
1,18716755139628
1,20526391109418
1,13055062555555
1,21197665297235
1,11749867144353
1,23843532902291
1,14725230917553
1,197052084096
1,16565089786736
1,18932048095129
1,13847785559354
1,25754073504126
1,14268639242961
1,15754874791082
1,17706527868692
1,23188867694432
1,13136684246979
1,20932688301005
1,09756012726847
1,18053869647324
1,12228097479965
1,12493461245113
1,1445819660528
1,17785427446735
1,11478124977964
1,17366169332915
1,16161983055307
1,11142186115778
1,11991070678412
1,17852216657749
1,10859417920944
1,10806146215386
1,06930592874243
1,17519648378351
1,11737324346768
1,12259380842529
1,06403802922445
1,10111951226463
1,08199212483933
1,11991176078828
1,09509168716775
1,08801222861006
1,05580343576924
1,12090011235259
1,06509812034065
1,11183822482436
1,06470135857846
1,07812794644237
1,04800051513507
1,12399606609262
1,04554816227112
1,07404039611777
1,03983860922299
1,07448917165347
1,0373756622235
1,0500243877806
1,00931712600164
1,02814474000031
1,02919744653264
1,02667931584381
0,979812318800982
1,01706811924536
1,01563467555688
1,00042943850842
1,00835412929191
1,00682854177306
1,01432456381726
1,01633201113685
0,977856990768917
1,00620833503175
0,98729038307865
0,992085849978374
0,984057688604503
0,986307314373853
1,00478226887434
0,994456591259954
0,946247719638714
0,972373612693064
0,968450827166696
0,955118666767515
0,924744047605898
0,966643922982365
0,945007905969309
0,940955148602731
0,913767890586003
0,914621589666092
0,890618978810159
0,935139377279819
0,908512628045045
0,900346238998928
0,901846799039602
0,901372971965243
0,896647242636524
0,913391927713166
0,890442156203441
0,907365332465603
0,883190224513896
0,869123411093704
0,881268200386598
0,894777936634587
0,869221712602618
0,873892933634986
0,848540485277137
0,845684396031537
0,825306121402909
0,864892375269494
0,853994215967726
0,857232035563737
0,835166213894262
0,824321221753684
0,817997947830593
0,811865041041838
0,816857246010394
0,82819297715117
0,807815684890334
0,827586380777335
0,798742830307871
0,786859495932146
0,79467355591651
0,798520294166902
0,79012480615643
0,801800640228656
0,793188371159248
0,783197259797863
0,763029202910865
0,76889698572172
0,758590876289835
0,757131945076473
0,756151922051388
0,750424546510298
0,746644293269091
0,736292368788455
0,740100270266671
0,728196008657689
0,711012288587088
0,721247583309352
0,703631934811291
0,720932749133071
0,709553946104759
0,721408922739303
0,712208220893687
0,700216301299728
0,702779791882861
0,703857176010952
0,692483083638318
0,676455716290411
0,671313397517541
0,684802698550641
0,677708372552366
0,683497263348266
0,673303415656046
0,67383582101812
0,673552445369391
0,658515694716306
0,653013873361049
0,65682260514199
0,664435887735091
0,663769992446605
0,647338081598542
0,653259335626851
0,6403365168728
0,642814552764318
0,63964284163338
0,627885826553141
0,627422301094231
0,634471031096949
0,631679047710557
0,621629620150667
0,612340876747816
0,605328969163432
0,60039437463624
0,605095647637529
0,600222814821389
0,604579888733195
0,593477835778929
0,595033556209088
0,588074360802809
0,581206172278533
0,60161446934048
0,588375859482765
0,573927726262731
0,571600437767487
0,574907720138285
0,575473724880502
0,566092130028741
0,567822751451579
0,566115450563628
0,563123740283086
0,555444199911449
0,552405006154472
0,545268806869378
0,550693878311074
0,558221425601843
0,549042047476711
0,531569035910482
0,530928483961398
0,534956101780395
0,52857203676032
0,523607088901993
0,524230423354841
0,515306803125761
0,530011418772051
0,525319301533129
0,515279022137644
0,507567514558715
0,506539463957573
0,513444907119088
0,504040388932517
0,504358445670839
0,507824379483682
0,502806413928325
0,504678340023935
0,498176646147243
0,481096230815331
0,491506256710526
0,490939839167681
0,476671642040154
0,478569228988551
0,477445660984952
0,475221533774119
0,473239827002865
0,468863342865966
0,473534558867696
0,465853917518509
0,465270507051171
0,468029365356116
0,464142928514171
0,457748063180188
0,461347761648128
0,447841500668385
0,445026209834312
0,456919154617269
0,445358895237955
0,435803831188848
0,433910058972136
0,441526607280438
0,439298035691218
0,431732878804803
0,442326890024799
0,437817908667981
0,430564899654368
0,421533111250101
0,422194371809295
0,424132194628182
0,419685277740291
0,418132357297414
0,41342194739921
0,42231662016992
0,410051832124504
0,400611685792751
0,419281444002383
0,40906759739165
0,407606562784981
0,40066541231951
0,405577220133355
0,402427925899914
0,402105418176668
0,397082927916527
0,397245783460488
0,402158869818013
0,39229959151949
0,393716048277959
0,391979992218615
0,396226210307889
0,396050775123865
0,388960347526482
0,38968460023161
0,38723671863738
0,387945710252117
0,387642127813201
0,387761228422401
0,380421396964064
0,384985322154376
0,389643728114799
0,380518917869547
0,381326030002432
0,38736378553145
0,382433303421096
0,383559227951946
0,387196660337044
0,390919885016765
0,390333893604744
0,386660191483712
0,385613614584656
0,393468732084314
0,394902172571559
0,385735621055755
0,380551963938265
0,393522420164216
0,392260727408748
0,38987864842324
0,39067349920538
0,399445392936093
0,390419261446701
0,395334421320047
0,406126614013347
0,41204973834308
0,403120008681861
0,401963254916607
0,402401474964435
0,409970915590595
0,414732873450004
0,410297992088951
0,41041747333369
0,423226310452855
0,414152391106326
0,418772379951708
0,424076128242728
0,431415751660275
0,430065359835914
0,43606615037928
0,436028392884621
0,434341891129537
0,436890626259325
0,43856025075728
0,441539253516287
0,447833376241994
0,450851321037471
0,458950927338472
0,442435756259138
0,456320466849234
0,457353008432539
0,469105603081415
0,46731460662706
0,467760559326466
0,47958784589432
0,475491670760721
0,485820611836598
0,497675097960524
0,488858047693015
0,497748598459138
0,491778092288144
0,501189898066143
0,50014791328648
0,515254624080701
0,508535883045417
0,506643491199395
0,505308129849669
0,518518098893587
0,514384512583394
0,520214069348206
0,524922764306364
0,53573526020614
0,5337612315374
0,52669090717148
0,523268344360995
0,533671392161759
0,516579100523113
0,519786557102611
0,522789879427905
0,536923742641208
0,527023108335465
0,529492591513976
0,524721960774849
0,54254630917307
0,533310098750884
0,526285866788803
0,534096931772022
0,53073369116185
0,526738273677001
0,531535317796407
0,524811987360502
0,528809975913246
0,52205000462134
0,52826110164429
0,520645713737715
0,534888551987244
0,522764192273194
0,520332422801102
0,529014978794998
0,525407471617748
0,532008012072849
0,535991624544408
0,518549709390115
0,52307129148116
0,523749817048199
0,533880966406319
0,519027793417109
0,524739310051664
0,529280380999349
0,519285573937271
0,522386975304697
0,532331242957415
0,529581946862576
0,541262649518635
0,530782828614798
0,52894948835879
0,524924174510344
0,529573024435114
0,520965739421797
0,524737669464489
0,532587681455688
0,518432698211155
0,519618138396205
0,515365692928815
0,518887507446019
0,52857108117756
0,51253732465656
0,519462403449132
0,514869006936141
0,521483119480795
0,518898595935685
0,51851409689032
0,499600322151117
0,500157172616966
0,501266367205678
0,503861584523809
0,499167538458116
0,50015250702779
0,493852504352403
0,497310750311413
0,484694078334152
0,486363841188209
0,476508435201995
0,477830658991245
0,477104953176865
0,4893095904866
0,471423795295374
0,467832127721293
0,464140113500644
0,455065736212417
0,449962721320525
0,453506697190215
0,445280218172552
0,43734663956037
0,441942050353683
0,435250511065764
0,433161104505052
0,43669023128472
0,42593768622152
0,429209390697498
0,413292584608721
0,422164441294401
0,417014762268385
0,414896815165261
0,411840512792068
0,417622762012617
0,399896041090175
0,409922233344528
0,398510711623909
0,396406516176982
0,389884445039022
0,395239118018354
0,394091366743178
0,388787701183031
0,38527619763703
0,387288178395163
0,380108032365701
0,383044340243902
0,380592708562346
0,377856624521166
0,37567111793135
0,378186079741901
0,368986806515145
0,374146395819877
0,361301187362877
0,369009939289448
0,359655817837317
0,360186672685772
0,355748688017209
0,358233566439367
0,354403658453775
0,354355106194725
0,35483777366053
0,353107159397201
0,347263642562353
0,348995791617526
0,341715169209797
0,345246348049788
0,3486458717395
0,345689953573661
0,33642645268733
0,337406113445509
0,335068918525166
0,331626792993939
0,333847615549638
0,331927899484728
0,328241482229148
0,332902415643141
0,330519967243412
0,329308313340944
0,321219157808275
0,327178921153226
0,325650809752161
0,328931363166092
0,319835409984717
0,325757058830959
0,312729051667933
0,322496004817972
0,317123830564047
0,31700178772416
0,318192715434803
0,315704634991127
0,309205712507273
0,313186160233073
0,306710979607224
0,307950548788865
0,306909697537062
0,309814653171035
0,303974718551109
0,306587963885113
0,302087614008471
0,307296410546917
0,299231720604843
0,30024889594796
0,295803766770157
0,305278465880333
0,304256507908328
0,297318013266035
0,295676093361246
0,29707216332412
0,297281053159658
0,293485469090638
0,284677085254026
0,29311122194711
0,295117935113474
0,28879987608576
0,290115310715208
0,293056346358408
0,289069941660601
0,2955748751168
0,285223863991797
0,286289432876795
0,281949343181401
0,289400019584481
0,283603268044577
0,291889068754747
0,281161320785919
0,280168288673267
0,287209262005284
0,283559075878836
0,282292201547873
0,278181313053558
0,273463114769424
0,275718295401724
0,279417855238266
0,279984790234799
0,278102550017035
0,277426274237119
0,271619062651585
0,276817956207643
0,272081485824168
0,276380577100456
0,267658815555907
0,275105911159144
0,27163374632953
0,271310701594194
0,272877960420365
0,272330548517934
0,266440089206614
0,273057936095888
0,262675472149033
0,270808889682718
0,267589040965448
0,273030737755002
0,265417795622922
0,266998324128762
0,26486924733056
0,265940717432233
0,263670315053251
0,271755434850834
0,264072210175967
0,269216565128615
0,261605660147019
0,262134168527462
0,261975910170087
0,262473756068804
0,262978549663386
0,260722587560618
0,259759430419076
0,259237534556588
0,25881300781761
0,258430222755718
0,257839840769803
0,255671163082156
0,259424616985834
0,257570735169785
0,254203704635408
0,255793781397443
0,258021726319964
0,259015618801317
0,249499660932718
0,25553112475113
0,2534869097489
0,252827210663501
0,250128299278111
0,246842277469516
0,247852355833742
0,25254342837686
0,249945649159131
0,245632846508464
0,242402441092933
0,253320040507301
0,245046452413704
0,245489399275069
0,248225929482796
0,245812121633364
0,242287047664279
0,242545139986495
0,237724136986444
0,240760231271531
0,236439676014195
0,247207794511045
0,235076549124928
0,239038805847273
0,240793357468621
0,237934006589715
0,239663140364112
0,2379949112495
0,237027552090641
0,239413017257208
0,22987555918245
0,234698982647304
0,230166376899334
0,234965671193676
0,231497366040513
0,231355584687695
0,227697636877583
0,230036851213441
0,227125334618054
0,226643496526711
0,230388172053817
0,23080334473844
0,220647746404549
0,223067722865527
0,219305899661193
0,230163211351124
0,221770383764007
0,220375855340023
0,218370110248114
0,21966678903382
0,214173770172522
0,221611232889242
0,21954027611205
0,213254835540393
0,210124358981247
0,221798920028554
0,21429150075475
0,216119256573583
0,208809024447937
0,20879688196877
0,206510400312523
0,207312253152733
0,207982046543125
0,209187019365856
0,204741024460997
0,20362348815169
0,206103764425214
0,202670258339754
0,204480301187129
0,202599955996622
0,199143473096434
0,200666885020816
0,202058569063059
0,196984645633881
0,197878064420483
0,196334622152701
0,191012202568024
0,198205116271242
0,196477762327621
0,193312281490459
0,193263394411028
0,190038945166401
0,192048193534431
0,190884154979053
0,188879661826296
0,19224939667356
0,189558310784055
0,187590153118809
0,184597303297734
0,185980039818343
0,182581143132247
0,18439246977109
0,185902424743313
0,181662798498502
0,182099239221837
0,184354484820708
0,177855144272854
0,179318776044039
0,176758482454875
0,179563410758602
0,178603766683475
0,174785654858269
0,17796887321768
0,174542400260967
0,17485342500504
0,1751203659641
0,170621421850013
0,174023249933745
0,172297826203062
0,171454643250509
0,171247967223999
0,169264414260095
0,171111471254964
0,172071286706428
0,162585538699037
0,168540011701817
0,163318648095828
0,167323182401507
0,164871601387543
0,167034373356576
0,160513909602693
0,167166880033035
0,158337308718729
0,165475484934652
0,160359046039842
0,164669507832119
0,160688232820149
0,166731848673546
0,159626688312223
0,16530237114506
0,159252427033101
0,154144813264189
0,157734547219451
0,159617651333544
0,15587640367755
0,160983822513924
0,158260910581627
0,156838834114362
0,150104342960778
0,15499702850403
0,155506336627644
0,153781642546851
0,156320338231833
0,154908380418883
0,150444299129291
0,153001025808638
0,153451781601217
0,15196448309628
0,149404778779297
0,150049456039044
0,149877428092883
0,151042824147777
0,149163406379874
0,146869664197041
0,150915134442764
0,149040244138202
0,148924914419838
0,147496971480109
0,147058362266768
0,150603107762149
0,149002837814035
0,149000233595688
0,1461572883009
0,148016648695428
0,147490762407487
0,145247828872876
0,146558169357029
0,147634845299872
0,146005710191994
0,14836497239607
0,141960499988584
0,144107869497279
0,14060259002864
0,145634778668624
0,142202617867998
0,145004935169245
0,145678901335916
0,144230114518044
0,140609716869135
0,142148559873327
0,137569078674022
0,139988046321035
0,140173206589908
0,14001062773158
0,140797810897684
0,140225347197603
0,140027997641049
0,137243669406829
0,137232906835673
0,139323208402921
0,138333815862862
0,137796369118776
0,13680125019459
0,140635949603291
0,136151228511974
0,132380923293079
0,13575763034073
0,134846410826832
0,137239979312166
0,135806831995552
0,134328018646051
0,135845697328216
0,136027646447857
0,132145975793633
0,131278591342246
0,136638998792541
0,132236969190223
0,133340047615742
0,133174669199177
0,133438504249031
0,130412089206636
0,131684572005759
0,129621086955374
0,133355827640497
0,13183524061467
0,131456422512459
0,128337463684136
0,130764410301268
0,127178610776643
0,130128506064264
0,127555307929866
0,128343182433259
0,127730990667617
0,126443267959418
0,123934580886576
0,123023805067793
0,123523955792918
0,126410578833043
0,126491249628425
0,125967974359437
0,126873266284145
0,128375624092239
0,126687955471524
0,124250600871334
0,12128263602596
0,122393605473046
0,123267719315471
0,126766344136195
0,125014162377029
0,12561108513281
0,121029684057367
0,117350991355737
0,121916386067768
0,122473306468628
0,11701860636906
0,118974085296534
0,120201598097019
0,118792046559269
0,119290803468703
0,11654644788034
0,11777533857323
0,117299900671492
0,115661333471648
0,113913498206797
0,116025323915241
0,113926944374721
0,115668714788894
0,114044656416836
0,113367637233177
0,115022470996159
0,112389781294933
0,111403808349366
0,112604097748034
0,113804166146108
0,109065714888279
0,109805206087448
0,110237422049233
0,112096401054088
0,10726025790245
0,108662182489982
0,109531313992611
0,108579662027693
0,10644517106801
0,106279998526507
0,108690496020907
0,106800468685471
0,105656273299192
0,106675438097654
0,104523601245881
0,103609751087851
0,102690896161238
0,104256120523205
0,101472503739878
0,104777484354031
0,10341579514827
0,101675273073582
0,0976146083026719
0,103785625667721
0,100223905698612
0,100578561997466
0,0989088688776411
0,0985017329576854
0,097886837480666
0,0978846555172455
0,0962550668483634
0,0978135705277616
0,0972108045301944
0,0952548601974104
0,0964088951311944
0,0946666186251934
0,0952910031728204
0,0953839598263766
0,0939890925000866
0,0966361459246292
0,0942043865307932
0,0917594204929117
0,0930096360317602
0,0943388820585701
0,0936110614446901
0,0946187874720828
0,0917309805954465
0,0912698274602285
0,0901322291463244
0,0929088671374924
0,0908187793672311
0,0890353377382418
0,0888523024261744
0,0897332259753749
0,0887188167359914
0,0898277725243525
0,0883352098981369
0,0864808086318763
0,0872437914915867
0,0883905231636987
0,0857030096712114
0,0846347751644955
0,0869650874741306
0,0873367512487258
0,0867503010373905
0,085901598828123
0,0846518905872848
0,0872323965314339
0,0851158012998952
0,0836503713642317
0,0861304599033099
0,0852537322698406
0,0843603305355655
0,0825575750312823
0,083949964852964
0,0846197487603737
0,0825123803801095
0,0847518330262961
0,0829075866994789
0,0832864866305643
0,0838707202435737
0,0812088228906948
0,0789933602620862
0,0824850223814207
0,0838263349388368
0,0818639587517132
0,0814559303266452
0,0833674908327936
0,078858906772203
0,0827338369525263
0,0838342532311354
0,0819114589948272
0,0800836400610956
0,0824301988849993
0,0840834657750053
0,0872737051071687
0,0836627095891085
0,0834161542843999
0,0849631752642253
0,0829065834730316
0,0862764278821695
0,0888138583898157
0,083525543159472
0,0868579226006489
0,0814337372365072
0,0850323568409418
0,0831525133295031
0,08263345937064
0,0822776590041432
0,0873515904218587
0,0825074103231384
0,0899126043219606
0,0823464418391259
0,0850959832101458
0,0796866529479358
0,0824764325949061
0,0813046445731307
0,0817807667349978
0,0795855555630885
0,0788696875937142
0,0751581128743063
0,0766135575223377
0,0751062196581904
0,0791200671649176
0,078163570800936
0,0839910818992076
0,0761149981861837
0,080096232991811
0,0776942365987586
0,0794303764411943
0,0766284541898835
0,0782987986713649
0,0788000457351549
0,082657495186227
0,0783537554222052
0,0799751408258064
0,0772895031354002
0,0793545911802069
0,0754255800145215
0,0813180692608116
0,073360354582075
0,0821665240719408
0,0735075908774456
0,0783598523756652
0,0761251416135474
0,0783058055120368
0,074319470037199
0,0762817435878372
0,0723838194777465
0,0792456536489289
0,0757681837829378
0,0748737028889536
0,0746888878453902
0,0718147562964222
0,0801194704110309
0,0727905792039157
0,0771761372670293
0,0720406560885607
0,0771318160828023
0,0703173264738571
0,0766460673097744
0,0695226991982616
0,0738162750723882
0,0694049730228645
0,0747003245981173
0,0724071849157525
0,0715039317925793
0,0713292045618797
0,0714424573180197
0,0709848454132418
0,0687718547591219
0,0694902120713889
0,0706799407660879
0,0691478482601719
0,0688173044479977
0,0694338846747365
0,0736892393583351
0,0699304150058701
0,070212777610676
0,0699091450630195
0,0711696794106008
0,0723558351989744
0,0706794989246791
0,0681948087110668
0,0703496290715189
0,0690605660570132
0,0685922058257788
0,0717105177229838
0,0698849261033961
0,0680057866093933
0,069723434009983
0,0703439827853511
0,0686811420440628
0,070166089648849
0,0720308932531271
0,0679861354951392
0,0690704242669672
0,0699067927620561
0,0691469427336957
0,0700857338709466
0,0695304749021917
0,0684274066189323
0,0705644957737374
0,0690723515107095
0,0693670333214711
0,0687448477189987
0,0704273336925584
0,0698573556109292
0,0686178391934933
0,0702612780022426
0,0714180648065268
0,0694187690392129
0,0690088616837247
0,0684949490363563
0,0699644434620986
0,0720163244032155
0,0697990479608888
0,0705370026551821
0,0704815657992064
0,0681365623039547
0,0692761732306367
0,0692191806471733
0,0700053189115952
0,0704848891009014
0,0715229053959222
0,0695367444777265
0,0687485018920681
0,0698695035182457
0,0690269963986094
0,0689712186457876
0,0692020964251244
0,0692459260531719
0,0705765769351693
0,0699747930166695
0,0688917169499214
0,0690288916993568
0,0713389740076685
0,0704080907161716
0,0709926993213461
0,0713446589599753
0,0717440353056513
0,0726126873784573
0,0715630691693869
0,0731152313355115
0,0706376943584112
0,070203930532674
0,0707549787738713
0,0685550518826636
0,0717160742903486
0,0721380327953238
0,0710501723301694
0,070108002012037
0,0709282258035588
0,0716827445583069
0,0709657390267884
0,0712774140541043
0,0701419516089059
0,0717592190651165
0,0725813603475275
0,0712296389876421
0,072029265818378
0,0739379703758932
0,0749732485583507
0,0743717255313201
0,0721671119824699
0,0732227687512294
0,0721357053495335
0,0725518172160279
0,0734879912253961
0,0711420066979953
0,0754845365172291
0,0740256820139348
0,0706268402825587
0,0736732467279312
0,0743994520894705
0,0745256039877599
0,0739325988553425
0,0737820186938934
0,073597525365468
0,0741917316940784
0,0719371265985428
0,0730702289523009
0,0761412265615666
0,0744741866724188
0,0740505004596845
0,0751409535754653
0,0753149969427738
0,0749631460434724
0,0742177838567543
0,0746399599166965
0,0760448699828162
0,0760636850059038
0,0745476564410171
0,0731877913384602
0,0734151017040504
0,0733983587724515
0,0759955045208665
0,0774840810896386
0,0754267416602643
0,0757863558823933
0,0759260052823937
0,0752295586260426
0,0766920023097163
0,0777017866056339
0,0777391426703185
0,079723555559113
0,0768286345812035
0,0741781083585693
0,0771812250906116
0,0775338113978662
0,0769180125672265
0,0794182172147881
0,076972385143974
0,0775515339132494
0,0785372877392398
0,0786511966039359
0,0819729500567057
0,0799184064518798
0,0784948629138572
0,0781478662953877
0,0774202785050974
0,0788708087073464
0,0792793311203209
0,0780863439390903
0,078724173259446
0,0814043313698818
0,0810763771556048
0,078500879338781
0,0784864096417116
0,0795874484498857
0,0787743634961082
0,0791152484915499
0,0780746057282792
0,0777237881280973
0,0782119046511848
0,079217324732431
0,0794225259733498
0,0805623930019576
0,0821564509444428
0,0804752258756215
0,0805847490185582
0,079956070133413
0,0788675291805738
0,0793954280650414
0,0782542327358726
0,0790005076484917
0,0783360648716122
0,0769108273844302
0,0782514975229887
0,0775411102773619
0,0782693384951578
0,0765765365384173
0,0789544483982054
0,0772795279129855
0,0764225948902593
0,0776934304546777
0,0779891744733476
0,0778151042479711
0,0780450545974431
0,0778500531551336
0,0793341189841615
0,0798535161460354
0,0778478181812389
0,0771972678428016
0,0773550723201197
0,077437350311638
0,0757170800252761
0,0759241132023272
0,0765303227712333
0,0738447924934994
0,0752363932512974
0,0758940012976105
0,0746221270564293
0,0746246888812042
0,0748719347260529
0,0756881389250845
0,0775168353700287
0,0756142648621258
0,0753784384587814
0,0769610968993007
0,0749047728128703
0,0764724955533002
0,0761919389898073
0,0767672355256109
0,0774216581667119
0,0743698041983391
0,075321548188562
0,0761265325440718
0,0734055629957229
0,0728636988723067
0,0752837283564202
0,0750971556942768
0,0761328501903358
0,0754390967561254
0,0735848677104982
0,0740788395669494
0,0722418902251804
0,0716729624397631
0,072268856004089
0,0732396847565048
0,074670200549135
0,0750327327974956
0,0744350266498116
0,0753564313972288
0,0751671913482614
0,0742003003553493
0,0692922750833689
0,0737335710448904
0,0747034465363161
0,0729357394447588
0,0744644602248118
0,0724049699463755
0,0754645995949715
0,0759388398887813
0,0730983016449547
0,0734268108013103
0,0702330248882631
0,0719218644285524
0,0747083854683034
0,0738064717616562
0,0726811937765582
0,0749108689657984
0,0732010546399502
0,072382233273144
0,0725567538021855
0,0747711371130294
0,0715909219229316
0,072259984152693
0,0721355681163248
0,0736227190299007
0,07263168322589
0,0731656624284935
0,0742466185630184
0,073481926154002
0,0700859112072499
0,0731320892350606
0,0710107769911914
0,0710904553616103
0,0717843099686298
0,0724104313859737
0,0720062969810975
0,0710460079014933
0,0728260273275273
0,0731713447862611
0,073061508997199
0,0717116085894452
0,0708181712366189
0,0701031960859044
0,0709473754855969
0,0718222627907405
0,0698295756921141
0,0689256058938937
0,0702326547422632
0,0711680160864989
0,0694950607721794
0,068593668649439
0,0696735598851858
0,068907244693667
0,0683463737153656
0,0708087963152079
0,0695244322123851
0,0678593506368277
0,067824310996013
0,0670078930227193
0,0690265374237528
0,068804746547142
0,0661649992390677
0,0664671009591099
0,0679641152770514
0,0680584742002799
0,0684178629660856
0,0664997879546947
0,0655214836962393
0,0662920532261423
0,0637409587524465
0,064002079686326
0,0690503444445775
0,0654350209186473
0,0650779535140058
0,0653186691861962
0,0644022982763244
0,0647955280974136
0,065121600904058
0,0641572886677234
0,0629385745879837
0,0634727120842516
0,0624214365971683
0,06246630228627
0,0619091314359887
0,0643953560628814
0,0617955673489289
0,0623509989620411
0,0619161933822889
0,0612897704467794
0,0625343223473201
0,0598424164726471
0,0619063802027984
0,0621917913255259
0,0603434997025052
0,0602964528395494
0,0612148156191578
0,0618664253963155
0,0613540784697012
0,0590331316732348
0,0589066319150481
0,0633527808420569
0,0589099146702638
0,059695361699424
0,0617700906700671
0,0610199937549114
0,0584992807022119
0,0578985830002044
0,0595395994583323
0,0599127007696512
0,0583864691470838
0,0596377957180095
0,0584444670862682
0,0596403756062518
0,0593947800229548
0,0583530970817749
0,0566375153216629
0,058143629252288
0,0570294769362634
0,0565416980465394
0,0588031905523822
0,0603689999990742
0,0574957740682794
0,0581212737527461
0,0573258481914443
0,0577864761536285
0,0562388083142698
0,0576938606142176
0,056780903204078
0,058481195562189
0,0554333249113999
0,0578956505710929
0,0574766224263971
0,0580696710406293
0,057483996456205
0,0572388655512156
0,0570527106877651
0,0573495723077075
0,0584780726209493
0,0560247020827975
0,0556372231918621
0,0549683024153312
0,0554636269803089
0,0564466252729936
0,0566340314996687
0,0552046603940025
0,056840388173294
0,055588499770477
0,0567015672507778
0,0551880063046899
0,054380175210436
0,0556448923495638
0,056009434854532
0,0542053484806242
0,0560340011952783
0,0541881818987179
0,0549842967596031
0,0554035627576691
0,0538463435283122
0,0527744381593072
0,052585658351978
0,0552244553045003
0,0547770437809837
0,0554937952883466
0,0540000604022291
0,0553736982160437
0,0549848195770067
0,0553817787385925
0,0528809544908517
0,0555038192336579
0,0534982630835696
0,0528636332548062
0,0557306184997349
0,0547131641919346
0,0497764622112532
0,0579660104204353
0,0543426580125733
0,0555397202041443
0,0532588719537701
0,0496520164978471
0,0530834624269826
0,0545324957806999
0,0516892300731744
0,0514601740114408
0,0524376302911471
0,0535862772740612
0,0524931177535385
0,0538721836038193
0,0522881365413883
0,0555482288280417
0,0526403523453976
0,0536812794873102
0,05629470962478
0,0519366188889915
0,0528952002595074
0,0512711028567225
0,0533491550497913
0,0530297912683084
0,0546564823333283
0,0531708168424263
0,0528617599084275
0,0520970096209137
0,0521067726533768
0,0510923704345916
0,0532108436157
0,0531513714939951
0,0537602495031219
0,0524051850546909
0,0519073721918435
0,0517904679392199
0,0494226975633841
0,0533579198507646
0,0534695530423111
0,0506642902873749
0,0521539230961523
0,0528223656655432
0,0542506564734919
0,0523370293304295
0,0540792347444096
0,0520732227481987
0,0523300315219684
0,0521695566013514
0,052148707693333
0,052124080218561
0,0523424205075738
0,0535414064482898
0,053637225521114
0,0504532953687916
0,0522586557161979
0,0521841542536284
0,0513286123723828
0,0503697289708097
0,0521804139980139
0,0548375233134774
0,0529076956645795
0,0533252716398631
0,0533387708116649
0,0536267867267979
0,0515984346048948
0,0532397962541479
0,0543156591922808
0,0524250356989085
0,0504741145888637
0,0518436308636192
0,0523990276702216
0,0533346651691684
0,0522245764517975
0,0526692060351544
0,0516141073232097
0,0501405917897314
0,0515393534769603
0,0527791499154194
0,0531372860103784
0,0514741126108133
0,052549586342769
0,0507771794537617
0,051375282120778
0,0526273234020804
0,0524976741854553
0,0560856088563475
0,0570423438569006
0,0527348201921204
0,0542812287150442
0,0543467178304444
0,0525139120237408
0,0548216253957674
0,0512825542456808
0,0523978930196808
0,0530309402436149
0,0551220535544609
0,0526645210325753
0,0524101897049889
0,0531283804302705
0,0508488180722073
0,0555406977753888
0,0614347387298114
0,0554140317539337
0,0567360163712507
0,0522423542070164
0,0532152160751257
0,0553839603640919
0,0555193300094712
0,0520932549606641
0,0546733390697896
0,0562841415341499
0,0571000480315025
0,0539173608928691
0,0546165768394652
0,0553005200883666
0,0555886087533505
0,0550632070872266
0,0552195123318815
0,0570570808890136
0,0564473423131608
0,0585829714642746
0,0557342465687043
0,0605913052977046
0,0581474917428928
0,057231001675064
0,0591523934138716
0,0555882109854812
0,0562562914937529
0,0567736321837473
0,057072322185892
0,0564925318869989
0,0561201292735961
0,0556264200614566
0,0581134165869228
0,0595716834328429
0,0604000432746567
0,0594394429146524
0,0621811601824388
0,0638788517387456
0,0581330184430355
0,055233940389387
0,062356015511838
0,062686898020971
0,0628744057448688
0,063151327991632
0,0628530561672733
0,0637231448373933
0,0613887648745442
0,0614629120742635
0,061912325581079
0,0637446775113778
0,0611533927946033
0,0627623800734268
0,0621472844733687
0,0656814081494932
0,0654737247651946
0,0645545414104504
0,0648006472486685
0,0633280766458498
0,0660899242997844
0,0652888743507797
0,0642846226648291
0,0613344405015105
0,0640314626969838
0,0721328776008915
0,0656162183397095
0,0669256632922076
0,0714190462269849
0,0726886553094236
0,0682573915309964
0,0678070481542961
0,0678892722038932
0,0658727723477745
0,0669655181644559
0,0711791928574986
0,0722816157487619
0,0684866679807537
0,0695204364525441
0,0701696500977863
0,0749147028999203
0,0733778111863017
0,0737904461315793
0,0766550473428803
0,074866982290909
0,0700306037266216
0,0785488154616517
0,0776082220048142
0,0798536938173472
0,0741726749708276
0,0810706893208771
0,0811406168311532
0,078712396224262
0,0797346726441732
0,0813005547745167
0,0852456405659153
0,0818216162661403
0,0801791648704152
0,0905302420015445
0,0889907694808607
0,0906942805912469
0,0897468557526961
0,086301221496552
0,0855604126568466
0,0876902955118955
0,0967451598825635
0,102941241113226
0,0906138594387298
0,0939036487941609
0,101266286448333
0,0971870580877547
0,0990318391749026
0,102530856608768
0,103660639060756
0,102894634573316
0,103766605199436
0,106816661134987
0,104227560391947
0,108526955249895
0,105680468287742
0,109202438619121
0,104259818203106
0,117079303548225
0,111393368998702
0,111004913419478
0,117797631590821
0,123407874855105
0,120036446118543
0,118832116449494
0,117967574706295
0,123799542948868
0,12339380275482
0,127003058560281
0,120605526170463
0,132545267722006
0,127038635644279
0,136376769654178
0,136459012316376
0,13496696614981
0,13350508019235
0,135442825394063
0,173682884006977
0,151523979455543
0,155158518699097
0,152878897619065
0,155812502320117
0,16822584477414
0,16994371978492
0,173016640469157
0,18120287695293
0,182692949682583
0,185272176167286
0,193455817389679
0,197004865696066
0,20887958736078
0,208073797124656
0,209873100337946
0,218785406790836
0,234204835456255
0,239754313696478
0,244068376041968
0,244114296142782
0,253468177161674
0,26205688715534
0,26227390526936
0,273781191637883
0,275177189427493
0,287518857521354
0,307571278620844
0,299538799259371
0,302813447284797
0,317124661714857
0,324969140419357
0,323636794562051
0,35366495668723
0,352168383753558
0,35227930356654
0,35867239182874
0,362340914202558
0,369628721119374
0,369339278871219
0,391787266933821
0,388128731426626
0,392456922903062
0,395650929041575
0,406671263459896
0,405714732351393
0,411350050289085
0,416988559790719
0,410953205396936
0,429238420401929
0,430287327705827
0,569555822807413
0,442673345127628
0,42246085909428
0,430614688332008
0,428869182942589
0,439354235112498
0,435780134218109
0,460122375909657
0,439869619506687
0,442144951049557
0,439737069856919
0,43714484321983
0,451018788064315
0,45016865566666
0,444848372066668
0,438420070761772
0,454697653202636
0,453792334673773
0,440421126352522
0,490405176835175
0,4371893099792
0,444710762460119
0,436201556591876
0,444929019040085
0,448077010313733
0,442829279440926
0,440625106401048
0,433666992761824
0,430717226992145
0,431834514798267
0,417891803157978
0,433682073433242
0,433642257449321
0,416924162355693
0,419397035691157
0,408123338590116
0,399463298012051
0,397574042796873
0,408116447038793
0,426821343186817
0,396352559718103
0,390895222655656
0,387357226980908
0,385999491091566
0,382284984475308
0,376275602136902
0,376918300443153
0,380025410923299
0,368232856993651
0,368152665992371
0,363261843689533
0,365701069991112
0,367502562001609
0,366390184326072
0,3568408718585
0,361057941830407
0,362590585410785
0,362760151855574
0,35810003584666
0,360032959796208
0,352222161311023
0,353998337760983
0,354703306599468
0,354110758673141
0,348415066850587
0,354709854248002
0,346249664920219
0,352506578175489
0,348269612192641
0,345285664231579
0,34552970879199
0,34364530126461
0,346031219113937
0,347293365752532
0,340886689163799
0,34372925114846
0,341971261874526
0,336326422270093
0,339138628849783
0,340469549679491
0,328822032681574
0,32862614931957
0,343044433476843
0,338318024576835
0,321937440576514
0,327332408996583
0,321574320352645
0,325833303404466
0,31695317402938
0,333040982886676
0,324919124388293
0,315414077372501
0,311539971196755
0,311976735254472
0,310642837175072
0,315981382127872
0,302023077632788
0,301695334942782
0,296732329085063
0,31125091499011
0,308958333316454
0,300959774328322
0,33967535002732
0,299056402212214
0,283038280229941
0,282985168883136
0,298732652408034
0,285899127027283
0,287036679254166
0,283303020943171
0,293085244996792
0,289525238639367
0,281281563759107
0,280036605992502
0,27283676635959
0,278530337763276
0,28378450045993
0,272176927743975
0,277889193919296
0,282990316153035
0,272030738627544
0,27427564128698
0,289425761689352
0,270992809665113
0,261754280313263
0,259493747371187
0,258412270153452
0,25687027086617
0,276580240793809
0,254304092796528
0,253880149705281
0,251806791774273
0,249842113048592
0,246798876124646
0,246442950575412
0,247102156458281
0,24203007432363
0,252211744874959
0,23506505964055
0,239914410342416
0,241077127211027
0,249603305758818
0,248330014588232
0,24198498121866
0,22941311236253
0,234203495470544
0,238719976545882
0,225656588496037
0,233032783882052
0,227111150940169
0,221138052813368
0,233527751488458
0,221564021890255
0,222716369204473
0,222630974072897
0,217217273245391
0,208850819244
0,219752219095754
0,233676381070486
0,222507117283727
0,213400801556118
0,2194168703871
0,218921984782756
0,21856687541355
0,212384638742452
0,224368710309925
0,225156808609507
0,220098843978248
0,232086918925124
0,228033574535755
0,223131483712042
0,230093949078745
0,227677937634453
0,22587399770066
0,237093042773146
0,242950754332311
0,23598822682335
0,243389491705032
0,253400272150849
0,24918228654279
0,252929402244093
0,254403112621993
0,263522446977251
0,264128050077899
0,272181415762409
0,277690322739934
0,283002018664371
0,287424188884771
0,291410891434705
0,294270686947923
0,307911229557982
0,300123984836666
0,316632281762794
0,318861939506521
0,333288171506392
0,342482754050659
0,340472658111104
0,350856799896182
0,350556451135835
0,36151969418453
0,362573226660186
0,368394450875608
0,382791479564149
0,381069638386384
0,390651683685453
0,386386481166259
0,387997627891965
0,393965047494941
0,405492226409959
0,400039135054888
0,409858396167339
0,425382130624736
0,41164670783315
0,417972429027356
0,412811355023978
0,423085724303951
0,425714711839091
0,427006094984776
0,428360275680683
0,431126108471965
0,443090998696294
0,434122524827926
0,438369761551145
0,443539102861053
0,441174748803716
0,443250032116822
0,443466630464807
0,448201209267855
0,447466142904496
0,455021576267108
0,455435478939007
0,449989299160444
0,494078258553784
0,475380510724937
0,466059926427394
0,472674391514664
0,480864596569429
0,48608525339071
0,48147859743393
0,487654153400812
0,492845561834792
0,491783891023934
0,501126455801188
0,502090305690464
0,500364157201653
0,507674903223863
0,528183906604354
0,516788451003007
0,519468847994595
0,512253218553329
0,518676324351127
0,543493448507653
0,523926697143266
0,53735253107675
0,53536266825325
0,533029956713209
0,536794491291742
0,537369745444499
0,541218566433374
0,541970780581512
0,538316891873989
0,545460180781378
0,544160985250308
0,548953958275729
0,541303391706359
0,535436669233224
0,552437229240116
0,544510431453402
0,537678183224625
0,548516927617313
0,544667162978562
0,534697489409516
0,545322426041989
0,543502832760934
0,538008516246411
0,540079020346172
0,538467456324995
0,547274521660985
0,536540293024566
0,534444558097177
0,539785297168184
0,543284096276131
0,545204462878312
0,546681015768565
0,544762943313409
0,560023910309761
0,550043776554637
0,551264258621531
0,553368383230728
0,550700389419486
0,554508639136002
0,559596920000814
0,5653607568413
0,572966087529352
0,56650642300566
0,573216300109129
0,575449743091993
0,569963415633786
0,574250789043115
0,583001000984301
0,586466591305348
0,581587454663719
0,577053399086151
0,573310290760281
0,570351874441057
0,569281197624267
0,568218102717322
0,569730134749286
0,560950169537153
0,555838753082559
0,554211112657582
0,565192221921463
0,544146901442378
0,540624550791319
0,545657530341123
0,540652376546219
0,536483060602322
0,530359117592822
0,530561884650277
0,526730766959778
0,523496583529779
0,522602399063517
0,518018829386615
0,512384499721337
0,511783278626098
0,512849053653507
0,513157148457243
0,508070837001663
0,504282989077317
0,51031427731806
0,507658434317038
0,507436341367394
0,509018231686821
0,508524617086826
0,50866384529238
0,504419218330032
0,503413165449301
0,506150328608136
0,50375604021277
0,511792789715562
0,510631908801977
0,502748344063922
0,5016148978097
0,50167306262042
0,50624705664852
0,500847118316396
0,504922157482847
0,505755854445329
0,50151748557316
0,497206722043829
0,50030093104663
0,498931346384235
0,500050648562334
0,500383576653199
0,497827998551889
0,495174584982798
0,493145723052896
0,491587654686766
0,496214217538704
0,499021689176566
0,492489255904357
0,492114333894665
0,492238616477414
0,493741385481378
0,491390582213008
0,491180399653223
0,493160216169313
0,490373282616756
0,491863667247406
0,491145171147803
0,490751705117584
0,48967336296252
0,489099026844251
0,487512520722805
0,484912629532476
0,479964168933293
0,479940793944182
0,479332453641565
0,477050591643902
0,476412549234231
0,46853701690738
0,469394134949458
0,461911256915229
0,455802358315066
0,456786383001982
0,453913148183086
0,444478488491507
0,444913067364851
0,442690480874456
0,435107537578532
0,432406997727236
0,43025503102832
0,42904605977677
0,426287885351966
0,426634473866069
0,428856498698054
0,426714450677565
0,423216129530658
0,4241084860435
0,422557702844569
0,420566231344226
0,41993009000234
0,41895053551936
0,421671132272283
0,423906984407842
0,424451795394907
0,42352006192007
0,425074368778549
0,427336100537993
0,428533341663321
0,430109071516704
0,433562813967136
0,432115853373489
0,430923971895575
0,438312609255975
0,438719479979941
0,441182616955754
0,44151381849506
0,439320005040263
0,445005349204094
0,446714812729504
0,445395013470647
0,450045926084552
0,450222725717138
0,447026593710577
0,446673572697733
0,446849648570701
0,449240933537054
0,445943321678362
0,44450431511348
0,445467853308996
0,443685071696414
0,444378231739709
0,441459586999442
0,441527289440653
0,441653597660407
0,44031543139781
0,43878740269072
0,439328540921639
0,438480063888689
0,435537323175107
0,433619860749787
0,43436718224562
0,43249960301001
0,427221953307331
0,424504074916702
0,426117860423918
0,426981260550308
0,425706650873457
0,423153143294233
0,423704275583358
0,420135959934306
0,418342747593214
0,41975871604175
0,418202871874565
0,41133299674598
0,413997655431557
0,414266805017027
0,410001683510624
0,411080219837707
0,410837220950136
0,408027691984512
0,404599653248729
0,404604944734192
0,400992435991656
0,397748237358818
0,398042673348369
0,39578372752361
0,391911063252523
0,39140244041715
0,390119422489856
0,385357622832309
0,382409884694118
0,37867066471934
0,377949001259462
0,374500520364103
0,371788681533829
0,369288916084412
0,368625613061071
0,366614450732062
0,364582270012658
0,364636674586291
0,363015093264799
0,364533483499003
0,362224711354361
0,362812391882839
0,361534937214029
0,361019090007181
0,357953535515508
0,353742963380514
0,351650262059909
0,347727059361301
0,345710660220456
0,339169497031213
0,336198425992331
0,331359844663102
0,326500867191196
0,324777884564884
0,321054455165223
0,317764027074541
0,315205134269637
0,315524034498748
0,314550110836128
0,314989271079859
0,319071439344728
0,323263625868962
0,328195307774615
0,336070894979832
0,345539231799035
0,354205192833402
0,366666194861443
0,374865333203543
0,388510398471948
0,405422210548526
0,42241276429634
0,435575867851518
0,448307568348739
0,46657428527704
0,481929334791883
0,497220024863028
0,515059308573429
0,530375331313394
0,546648945819394
0,564562275029174
0,580915872858363
0,599492452391928
0,611638247113346
0,62435077830647
0,640200859705672
0,655646889790516
0,672224569859529
0,686479412802031
0,697400441008229
0,716054383065673
0,72018310884509
0,729189696312578
0,737030079002585
0,745182172299888
0,748992850607227
0,755497347062229
0,761184515539436
0,760382580070241
0,767775650396289
0,766849716924204
0,762179777845585
0,766652752415468
0,765780767664351
0,765534823173592
0,763916540058824
0,762863442194092
0,766967240102767
0,76292216575559
0,761066952347329
0,770282745503595
0,772110810144245
0,778665160491094
0,773471476894741
0,773592500317858
0,786651726570866
0,789110999275514
0,78880376982638
0,793633028717018
0,805902531557075
0,80898232940766
0,811044228043402
0,820493447521931
0,835130083403392
0,850979117248119
0,865137874680523
0,872799855634585
0,893391062751755
0,901859534138158
0,900259440027898
0,909693518444566
0,913238195083368
0,922118286546737
0,929505286916934
0,940429959145835
0,943011052340179
0,949270858933572
0,938124295198155
0,939832854770651
0,937503988916589
0,938139445708118
0,931070974197153
0,937146910026213
0,92245317488481
0,92661114773712
0,930043209639382
0,938047712114664
0,949607692907186
0,961836889149274
0,967963766163478
0,974508985368041
0,986464200861839
0,999458415787918
1,01793641032119
1,03925987988926
1,03435596294325
1,05550050759838
1,06071714859085
1,08771574148939
1,09860129221002
1,10615787391605
1,11179867871968
1,1486041042355
1,15706755140496
1,17988110702762
1,20144049310965
1,19337645890815
1,2251929276888
1,25095237374362
1,29841527603455
1,3327025721041
1,32093343256664
1,3365831687407
1,39277075691256
1,41678155541505
1,4071417144652
1,43651888269317
1,45211619363582
1,47985807941041
1,47003168376039
1,49646537941824
1,50482449253915
1,53903627882861
1,57453808141375
1,55989341855665
1,54523508516871
1,55818577125607
1,49663475083622
1,53251137650854
1,53119900647532
1,53465073593742
1,50576442785386
1,58680001182359
1,54431958047926
1,55367258047032
1,53692732435908
1,53357368715055
1,50549572170059
1,60494259842296
1,53338254209535
1,57145475761495
1,57103251964622
1,6055193584929
1,5755294595585
1,61927418136173
1,64859840253836
1,69116161665305
1,68805426350098
1,69751569421665
1,67847914512182
1,7592675516099
1,7375076807327
1,82140216103491
1,79936778773645
1,84978276715148
1,78884351559715
2,04355832981961
1,84973296593261
1,89528057834158
1,79999707091705
1,83809680618238
1,91054998675331
2,01375490750367
1,81928699186469
1,99170160612951
1,96507808132626
1,82998332814839
1,91130912364154
2,14479585678078
1,85790666581709
1,97888992678979
2,11180855704549
2,13306795003732
1,99259847346929
2,00729402678063
2,13405921103106
2,20483355924286
2,12284509307898
1,99975950151676
1,94312102368263
1,88763125330865
2,05685794306204
2,00844552869292
1,9876114501896
1,97877418462654
1,9807766617349
1,81813923349907
1,8202313034039
1,81542672597898
1,64043898637141
1,71669682899346
1,6483662876379
1,56408100050645
1,56190516233053
1,52062173883166
1,53244397591377
1,52039020932299
1,47607346468018
1,42388640107816
1,45443856911926
1,45732287939467
1,40094037628983
1,3989698103894
1,34227400993264
1,35507573590595
1,31257029927032
1,35674733212249
1,31783469943123
1,33061393548679
1,2745367821429
1,27917969017425
1,22977071390419
1,21547341684714
1,17811902130747
1,14198944122261
1,12354633160815
1,08316704063888
1,0461930488398
1,02817579333926
0,97288402394527
0,950035538434368
0,891402117351598
0,872980952254498
0,832925232570515
0,784739611894469
0,745767604990109
0,719131937684518
0,675738228456012
0,646314990531434
0,619873109709828
0,595313515960042
0,565216209946339
0,540647059632464
0,524943197985828
0,514823935923569
0,493079299872183
0,478324909421452
0,46677743912536
0,453597706298935
0,444899295999945
0,435665497027409
0,431231428715342
0,424793289706051
0,417223834747306
0,413996358148569
0,419379256236742
0,414591933643291
0,412790259634181
0,409991637885017
0,412091011502296
0,414422735784451
0,413471562291679
0,41854818251241
0,416918298211707
0,421683322147225
0,42101231001556
0,422093585502432
0,420128733606968
0,42314527999282
0,415692598911795
0,419075551300787
0,415426827761886
0,416394224225363
0,41313528091607
0,409294574041252
0,409421002057061
0,406688826583791
0,412387281116072
0,397540570796833
0,406215857656707
0,405498661302481
0,407280626433403
0,405686823315312
0,404437356009876
0,412029817029085
0,417206989253856
0,41330434179489
0,410334659748247
0,415868028247514
0,417856593119062
0,421590622025792
0,425027021779818
0,425655563002925
0,432021371925364
0,419978914547505
0,431218459825977
0,439101965531489
0,433459485872931
0,441826712080566
0,426465655028827
0,438639449012334
0,434253204290228
0,438823961554812
0,4391308624184
0,434603863780548
0,431529625399897
0,440144037151516
0,442759009193669
0,449784190369431
0,445848914220143
0,465127768111689
0,461299036225456
0,47182434329251
0,475307888578337
0,494284625923146
0,488901926529619
0,507195337343071
0,528967732755383
0,536669315493816
0,547289848462664
0,550171769738367
0,568804174463333
0,574046895222581
0,570960972460953
0,566217329869336
0,552674538039668
0,558168456862622
0,551271836542277
0,536708070067959
0,523040873226807
0,52741124406039
0,509654457498661
0,504943565685167
0,501327871468187
0,503339102556196
0,48608675169364
0,504622555885324
0,492983489705296
0,508923236096126
0,505512030403372
0,502141346589135
0,499168907466871
0,509880851281194
0,497966079597781
0,499580326872304
0,486338645986389
0,495272932169859
0,479914354664534
0,479717906583196
0,47111199543502
0,480922629564096
0,465687331225281
0,469371050612099
0,468586844295921
0,45656776075371
0,456522050068981
0,458364693834495
0,462362961944394
0,459401622476438
0,449442269362983
0,444695331212274
0,452987159534273
0,455131203000849
0,446683155383768
0,445357001169684
0,438332946478249
0,437426720864572
0,435898674494368
0,433685311460609
0,429976779764135
0,424863299715218
0,430003481151868
0,421774902186026
0,427499576615623
0,412877499541339
0,416813584615065
0,426187403628784
0,405872875660254
0,415289333869087
0,404965220148712
0,407614328964018
0,403681626721523
0,404708634394524
0,390442955338814
0,414207686794816
0,39019343471834
0,394637894026215
0,392406140313708
0,394812224680211
0,372401319666282
0,386272661986081
0,391886181973794
0,390594437694619
0,381743773604477
0,400147638038381
0,385061851815429
0,394609806635931
0,372698918489724
0,38145130843721
0,399121935326891
0,392464853043209
0,395747445706174
0,40006321875355
0,38672841299608
0,403813445469256
0,398542232493557
0,400957095414934
0,403814097224167
0,414350195403586
0,393826907049228
0,416205687227094
0,402106663167991
0,41739785253371
0,418464525564574
0,421739152741494
0,422397023518522
0,44133831386564
0,448050965970532
0,458660129231172
0,443938461749678
0,460383585593224
0,451124655971283
0,471549509367745
0,494740145095291
0,486688229052797
0,48863121916183
0,532298536400041
0,511348345631154
0,549225298055611
0,551406274052778
0,57460215479516
0,552453504064525
0,620444532433631
0,620276672907829
0,664042614305314
0,629707681790888
0,692945778535342
0,650993520569794
0,666180616395727
0,669220666071989
0,675361069445487
0,650623039110499
0,692238770655774
0,683588896283289
0,709053499828638
0,644955281135946
0,691086540380952
0,638189994702143
0,708733674709053
0,674804999754138
0,666890216751892
0,664769732823484
0,707646441415455
0,66174800280321
0,645452206866642
0,639619899285297
0,693521599865534
0,656588995430492
0,647746093492272
0,638356299700273
0,667902328357868
0,648688495152933
0,647450188223135
0,627062402631719
0,705960669846848
0,60040316042822
0,638549894140965
0,601873119137017
0,630585397463371
0,577116128646049
0,604153126065804
0,61805748379184
0,668286118153003
0,62516460609152
0,601808863266446
0,597078424270494
0,605278664126369
0,598103296849898
0,584275592889653
0,597245018972829
0,618265835711094
0,600759043478236
0,61012919569281
0,593046752914264
0,598804055928405
0,602380249617482
0,607683939594879
0,589179259740056
0,601024656870697
0,604227622340422
0,614114703457673
0,593518881779397
0,668208375040228
0,567742666324169
0,605666058179951
0,63868850425972
0,683315263290072
0,602367395396159
0,711178821791764
0,683093494513795
0,698519738103828
0,543253952370345
0,64656193363989
0,595013351592723
0,66942383798157
0,638868064994547
0,719236208945216
0,62878206060534
0,696582029853269
0,721064723833524
0,745644600340232
0,700555171329751
0,839977634114186
0,683131204272638
0,822818174475803
0,744170443926487
0,781775506013212
0,735516756068936
0,926180327543875
0,757514211711249
0,771358343788529
0,724060579913731
0,93435174160792
0,846590230884391
1,02963266888172
0,775649988051634
0,866293193954607
0,781946842450366
0,943595459244049
0,807920637136562
0,903642541616966
0,870073040227728
0,969813486311564
0,680493981588698
0,861875644763452
0,820610893755233
0,843687052383362
0,75991854149765
0,811154549288446
0,746014196232367
0,914408372629204
0,855039493013837
0,81876810701282
0,643322427598868
0,891127062265245
0,880669183926898
0,924858713840289
0,721966177761785
0,704691247890432
0,66195172266222
1,45010386890908
0,716665046675648
0,958494633507119
0,678877080264586
1,01686011387958
0,813301028292914
0,859272982096992
0,96163784689924
0,947609869487301
0,728261043093921
0,692161071207685
0,662688571983787
1,02500244396639
0,813330974265354
1,28267632089144
0,756283052945036
0,925600120010458
1,00076615305846
0,866012807949136
0,764637468936823
1,22778817567035
0,937567383580966
0,635693148052087
1,23925777948596
1,09022759728897
0,440840934110142
0,645830703024042
0,794524945666255
0,946447734537998
0,580430237475058
1,25998729039094
1,31761219502855
0,767755202563916
0,748628143587013
