3596
4000,36533379555
650,420452594757
1
2
2
0,0583358863665607
0,0632047383060413
0,0625381561107339
0,0617827795844792
0,0564141434194208
0,0604680755649873
0,062403264453824
0,0568789522382346
0,0510112835271535
0,0617982355065574
0,0525616750294342
0,0555135832811329
0,0568545276639632
0,0579288316104353
0,0476352384051499
0,0536059463725287
0,0692345291189151
0,0666221760526009
0,048440220842975
0,0497836396357776
0,0522960357380685
0,0553058213122297
0,057233620607992
0,0615568207789111
0,0545020949289382
0,0550339286386567
0,0590300015735285
0,0637230039065162
0,0528251735792812
0,055170656489714
0,0549724629675691
0,0581729439903688
0,0558353309779912
0,058932574658545
0,0535764741401119
0,0624270486454896
0,0560802238528276
0,0548742098542143
0,053709585428606
0,0533187206938056
0,0491255548849783
0,0462931540490558
0,0530802453156072
0,0570164426286848
0,0523548950402581
0,0625309390954194
0,0592670799870117
0,0564746400222966
0,0535938250461478
0,0550037540630765
0,060792307907433
0,0542744445435321
0,0557972904398888
0,0619238308801681
0,0466658464237154
0,0501593853600869
0,0551036118914513
0,0549435867478027
0,0480494227478773
0,0532966322569769
0,0505523505529775
0,0559829246594546
0,0539273374364665
0,0593624803402779
0,0557491133740563
0,0526362675342015
0,0425478356874473
0,0505195982863144
0,0491191272883495
0,0581879522913401
0,0458699242053153
0,0493181530342021
0,0607534038961738
0,0533971059679417
0,0493923095432677
0,0548848953950144
0,049092522574742
0,053524180624764
0,0488490329560412
0,0539431684449098
0,0520177209222733
0,0549498859838461
0,04811704843326
0,0440430888864857
0,0462205800083014
0,0574675224251692
0,052809982617498
0,0555951130614063
0,0528779476535133
0,0540882046578988
0,0476907771800534
0,0483790488286342
0,0494068412362028
0,0438576501059527
0,0516649947845073
0,0510157119456559
0,0436903532262031
0,0482775018034034
0,0499468392533572
0,0460697049598894
0,0400633105626757
0,0349862263626285
0,053751252456382
0,0430915301186156
0,0421889437573636
0,0467187543271216
0,0359890305457322
0,0506788695530845
0,0469385859198006
0,044108667126418
0,0438160972592087
0,0452685581478533
0,0380474054571014
0,0474389341722987
0,0437144990006889
0,05344376090687
0,0512669086520561
0,0477221828713783
0,0551734780917499
0,0438367591577257
0,0270694933463133
0,0342343023983676
0,0538946875390808
0,0606623973616832
0,0485322620250595
0,0445169691832524
0,0400289890156672
0,039792655608756
0,0482371745172886
0,0392314146763931
0,0495883083763718
0,0479458970678217
0,0430890318256768
0,0399775389128537
0,0318436563317241
0,0496552043221963
0,0421032699881087
0,0460257616542899
0,0445381251777811
0,0403725750050848
0,0428005921628258
0,0403361164703711
0,0412102500495816
0,0471977094455792
0,0482226054959481
0,0382207265746612
0,0335558896777547
0,0437705628350996
0,0446176186694149
0,0431072113443769
0,0423040405404331
0,0398053180541821
0,0450533919046454
0,0485349782800107
0,0314763138241152
0,0369448283287064
0,0361141595517657
0,0313453695815142
0,0503897071449493
0,0436649567938843
0,0427028165612633
0,0447607694010152
0,033685818940219
0,0386126283388119
0,0427672917021132
0,0398385106507965
0,0388272295093468
0,0421643481293809
0,0403173206626169
0,0421393351202518
0,0458627929006659
0,043661121369977
0,0406943468147829
0,0575780692220246
0,0427474195786539
0,0449147489427775
0,0523112005251967
0,0466506052438765
0,0373714576253486
0,0432005519739273
0,0467089031217645
0,0358654044959427
0,0458934591077975
0,0458698784823352
0,0421977107232351
0,0554110654439499
0,0448115570681013
0,0387589693693135
0,0482937882950817
0,0369324573208741
0,052933786119834
0,0543817183894513
0,0384084741047141
0,0379502513028755
0,0447734055664611
0,0361512352377222
0,0353158496338331
0,0476406502930686
0,0382846641913389
0,0436363026924559
0,0419906640726739
0,033765850439296
0,0454193030787872
0,0463536359748636
0,0468562764272093
0,0383522149516199
0,046172566881118
0,0572232570243033
0,0395759599734367
0,0387018535620765
0,0360974670909357
0,037845956088666
0,052047011501124
0,0554653535214196
0,0490188934546248
0,0417609012011404
0,0341749219215733
0,0498856610456913
0,0513539117188144
0,0418529725160788
0,0350045627081031
0,0363539393948055
0,0450391602666593
0,0489604288769168
0,0434617521947189
0,0532031549152475
0,0457648251328977
0,0512405623908172
0,0503357130880377
0,044201807492332
0,0501750634771356
0,044205994850637
0,0483706433630866
0,0504238177945418
0,0470325026984738
0,0473981664583913
0,0562729584179205
0,0434421307427954
0,0436129148208321
0,0421519351624993
0,0422627053331262
0,0513233632704464
0,044723475681082
0,0462492324392483
0,0496425267730132
0,0409174662326877
0,0496742044749669
0,0493718990543705
0,0491769775275769
0,0444850167580256
0,0450747471449534
0,0449170946331288
0,0416891490632329
0,0451931155587452
0,055244911272617
0,0469420266603557
0,0391220301934237
0,056529136624489
0,0440239821084211
0,0467484829342767
0,0428974992050688
0,0592876837040527
0,0490555147292945
0,0460531196858998
0,0370194976705445
0,0474134262608391
0,0414804129814703
0,0408870383198248
0,0428523837163929
0,0535433481588884
0,0501143626352941
0,0433469016958256
0,0410895732057157
0,0796698611718851
0,0711186712888171
0,048575133701175
0,0459573700212622
0,042017719621929
0,0540537616434211
0,0473393599495729
0,0454156566167999
0,0570341962348006
0,0499082464789087
0,0530776854080854
0,0512002647573685
0,0568961246203267
0,0502737224275813
0,0530879758253641
0,044859522351156
0,0525636975968878
0,0515996255936126
0,0499063536331952
0,0497935499215847
0,063580162164507
0,0591805647312412
0,0557576156049384
0,0529121557431302
0,0519638633858231
0,0578288643993437
0,0663256531478827
0,0605482995814199
0,0620654916983222
0,0568917471118646
0,0497449512636464
0,0465207368919149
0,0595296098802684
0,0653289172682022
0,0477911121156542
0,0528621277932977
0,0623799142364195
0,0572346387272152
0,0602770143529023
0,0607589106364394
0,056281645000441
0,0650429274214717
0,0595145104731005
0,0613938275610371
0,062857091697204
0,0644287173630858
0,0654093750870624
0,0621809155393387
0,0640821855325025
0,0650976899085546
0,0721604488993876
0,0624164294243931
0,0657685879937513
0,057061412188167
0,073290146152111
0,0645643993089616
0,0659785344976724
0,067535930256238
0,0762673342023925
0,072594448348391
0,0631396538703081
0,07327928104454
0,0667650308333538
0,0749948620196238
0,0703693353468504
0,0756978393736304
0,0688527404724917
0,0867833109916854
0,0771815658124485
0,0795025041467844
0,0848798294886418
0,0760560792160604
0,0848062307816083
0,104729497507805
0,0836827674382032
0,0909619528838851
0,0724082357510226
0,0819695911059122
0,0816078500601408
0,0910387183306986
0,0951878170390508
0,10158961809445
0,0851266255385739
0,103005494189388
0,100250338936684
0,104689723556842
0,103872067319338
0,107938882356528
0,108438456143302
0,109587416349554
0,104744150099164
0,109771969139379
0,12165409653458
0,114481268937599
0,125312162226053
0,116546172000323
0,107592720313264
0,118191094969056
0,1250569355523
0,129558665012129
0,132476786872778
0,135528568568078
0,136898611162269
0,138359271317653
0,149631225993243
0,143783565436885
0,137189658493982
0,134966491045168
0,143304029059786
0,144987446647473
0,14234315926065
0,148952414305579
0,155471036064962
0,160610379362332
0,16190945515248
0,160395555336961
0,167537480985534
0,164844597178381
0,178613769953132
0,178301363770899
0,179666277421519
0,174157286553795
0,182194698929948
0,207162060952008
0,210161600934025
0,200262012912212
0,184716530759247
0,197881191592157
0,204485014173933
0,202074660417802
0,202604961578499
0,210375732100946
0,214806728459793
0,222159086422155
0,226431181548539
0,218761930069129
0,214250420142912
0,223355404215784
0,235099649414646
0,240734077492392
0,239344602211019
0,228421332557997
0,245088760219182
0,254624156192645
0,249761550341423
0,265159855336293
0,256729665592012
0,259014911569941
0,258100686498841
0,264404084241467
0,268824465184731
0,28060367540006
0,281928677768013
0,285284678829135
0,28663511901745
0,295292738066233
0,298409788461725
0,300918162716665
0,299358914514527
0,307976836186025
0,307479473446795
0,315017532946595
0,308100400687491
0,334845858390601
0,336678619734153
0,322080509702312
0,354805087237029
0,347659993675466
0,323745381844931
0,349093610102503
0,328222048425299
0,345979842568477
0,336701920527489
0,367139126734903
0,366271724074663
0,379182664226701
0,3741944815188
0,39958528395867
0,393802947688614
0,403924218715566
0,389889156883929
0,424310989764518
0,386847705036699
0,416750167088836
0,395893706388577
0,421615676619262
0,402945232956175
0,451566330684574
0,426691100104573
0,490778350405637
0,449766705239673
0,445958747272439
0,433903974019112
0,474874170881966
0,440078819168515
0,51210997647321
0,445636767296285
0,487480734089363
0,461315614788499
0,493671808417241
0,466729604742866
0,498271817502457
0,504014861848231
0,518665111422605
0,511811614956026
0,540191435768646
0,520111504428594
0,565450225904491
0,528306634181615
0,554517866715943
0,526941116043657
0,536326507906149
0,528721808499261
0,575975036670688
0,558409491584549
0,602526067127149
0,561075114848874
0,588946861474575
0,555866295231093
0,622961011146889
0,597693693443132
0,661315707109744
0,595661823069522
0,577810533155976
0,60274442458393
0,639042417952782
0,595315462335359
0,665542127149438
0,628675784037629
0,632616594416313
0,641806791074999
0,723546449283127
0,628506026619392
0,709389758219249
0,646480176689323
0,69463534466438
0,626593542590657
0,719755168896972
0,66117554226882
0,733163710589198
0,672856167408812
0,702521086502979
0,705154354721994
0,742983165887281
0,720270730392144
0,728509124245361
0,721888026027813
0,727934728266822
0,760675295264909
0,800523113124502
0,75528248511251
0,775417922721343
0,721481695219443
0,824718861501247
0,753184536797511
0,798549243856959
0,783164971072977
0,804768337082933
0,776509828676979
0,822710211415837
0,767806265256041
0,909664118709708
0,779549473433063
0,828565803324969
0,808611707216921
0,885218053507163
0,809194621060528
0,884157868324996
0,838689187845461
0,923930002104442
0,851266675575913
0,900989640034548
0,864067899081835
0,934385806293209
0,828235551852211
0,910870415104931
0,828841228091372
0,876561824378096
0,903359429257623
0,978922418856945
0,888967459182087
1,07743598787008
0,937837099151109
0,922358875346099
0,933152374394283
1,01208750663209
0,945348045892101
0,960966786646339
0,928107364083716
1,05817101767943
0,951098992266078
1,01454183157759
0,960085000800013
1,0151307633073
0,889137346514555
0,986779737044502
1,0076874621902
1,05279160933104
0,994366815447833
1,12942410352212
1,08493135770081
1,15226881424364
1,02514706764064
1,13374192084048
0,96578666933691
1,14979847451391
1,06980359496007
1,14918631040063
1,04207436635847
1,09352000969457
0,996249004641522
1,23865685258916
1,10550242708704
1,21556081826811
1,07647403920623
1,11563698861079
1,07632427308621
1,26976342192924
1,10537508345245
1,24398333155104
1,08939343716087
1,09603778249728
1,0814809972387
1,28102916613247
1,07813219687255
1,36516523483093
1,11473210553899
1,26738433668294
1,06584858766672
1,22597056078983
1,11795719922176
1,31299841730397
1,06351345124762
1,19223642432944
1,24330448374153
1,53544986966115
1,14455803065623
1,33182623736165
1,17128364833952
1,24219024358468
1,09531465388685
1,37100238701834
1,10555719023286
1,31147004678882
1,16517911916091
1,58872075216678
1,28126205532075
1,31022276879499
1,27927736641743
1,37196402453331
1,30336919930001
1,31896479944922
1,22470351951691
1,524530514049
1,34059849088998
1,49808734627016
1,15181720132516
1,46933840615025
1,24546815738341
1,35846838580636
1,26357047897249
1,50983895675592
1,49515865664774
1,40554258936957
1,36089601681434
1,41920687757853
1,19291456293796
1,44721339498056
1,26486682945656
1,47660944844456
1,27829222658505
1,50211761648709
1,29495614613615
1,53300315030345
1,39481438235598
1,52589652875091
1,34329132898015
1,45879565606734
1,28105373576031
1,6165718041434
1,3871571245914
1,89124536362312
1,36120628831836
1,50052435190138
1,32568042987451
1,46783947128886
1,35681604346248
1,5158582134557
1,46201279643048
1,68117540504457
1,45462125030969
1,55897831797061
1,39544835959408
1,71603461169623
1,3047874031005
1,61498720566572
1,45874626016526
1,67291248556729
1,41444271200862
1,51839734662519
1,51460561202652
1,52133805563744
1,49761021681864
1,62169106218759
1,43366318869582
1,69614643087
1,53390460846752
1,55914021591143
1,46938706698614
2,13788451090565
1,43499136677928
1,80831457540692
1,48006998400791
1,61110862687068
1,43559211670306
1,8652252487988
1,60876699366015
1,65135347650404
1,44257617322467
1,6891786709715
1,37080162282714
1,71883788083365
1,4076604966684
1,62831385539705
1,61729779557788
1,48413182982864
1,4504943221532
1,73138117867469
1,47161600120132
1,96714055163212
1,48323951947333
1,71127811599276
1,48807724825668
2,06005112407209
1,41693805650712
1,52343063567216
1,53532345709953
1,46684770535201
1,38605097353999
1,67590231949042
1,52692308616616
1,65940156670516
1,46981904912885
1,82210812700261
1,59116345700089
1,76204130500656
1,71853117298278
1,7939853051009
1,41094842737212
1,60373336199965
1,53698111728461
1,63577182635338
1,54109018214784
1,76113006255574
1,54401363552531
1,63948012884047
1,44354016420892
1,69220986919867
1,47011869001468
1,5699843864862
1,59344134544494
1,80589999244143
1,60581051304515
1,76690642398982
1,7133388255597
1,68760858789266
1,51154392260645
1,66123776090151
1,54197032085549
1,66096161792669
1,59628012411578
1,5485061291499
1,54540598329819
1,80734256431601
1,5665026652124
1,71058501947354
1,579997846031
1,88400208203342
1,70427482048685
1,64552463873054
1,56979279455397
1,68642685245043
1,5336449099353
1,75512049257776
1,48895051488498
1,83553131432432
1,61271498519355
1,72125352830377
1,51726516355201
1,68588793853309
1,51700238561872
1,66794032943172
1,89477045343522
1,87914268466466
1,68277287849744
1,68104175053142
1,49076755353246
1,62786147499554
1,59650501025101
1,74783607486309
1,67538936234536
2,14338454051726
1,50369306954199
1,53806625762543
1,46846880789947
1,63390255749676
1,58166755727385
1,69480213382957
1,39902517741324
1,60895032350345
1,55059807114514
1,69312817426102
1,6948862007071
1,90840528751141
1,56076574482762
1,59345476559143
1,42670923083038
1,55603567628448
1,47011555099819
1,61977051887364
1,4674374934358
1,60956307749269
1,49922950583321
1,7050340382095
1,62803976544438
1,59448020407583
1,40348479127143
1,70025792173549
1,53668569229117
1,66349633159405
1,48223407394976
1,58128385615626
1,59476146725557
1,56790910703788
1,55043901749796
1,56473185307943
1,48085798047819
1,53465553920477
1,498207020151
1,54132146410691
1,54302929421609
1,56035322083178
1,48138675953687
1,69201878386023
1,48587179491835
1,44389822984384
1,52811094087843
1,52999302003469
1,36193592385243
1,42630766227166
1,44683707813924
1,54540275439484
1,50831637807094
1,70405829977327
1,54111818276424
1,60868074840348
1,46505269750577
1,45998456776256
1,41151803291117
1,54150465004606
1,27460359222133
1,4737242253686
1,54244909470069
1,43560684647631
1,46400976435771
1,50458989515778
1,37449647819165
1,43008418624443
1,34971915502439
1,44648455509144
1,41772708683692
1,48393285216142
1,39759275439439
1,50384655568529
1,44849041123322
1,39506576578685
1,34928767721246
1,51273418510142
1,44413165469447
1,41123322642891
1,33884297912723
1,40100437473311
1,3712985137834
1,38006950873359
1,36951319598843
1,43083782033551
1,32766644512597
1,3922191924498
1,35219725315641
1,37073447453414
1,35097134150302
1,34361766579804
1,28409131348991
1,3544983481235
1,31415773667429
1,33806008974963
1,32509890070955
1,33241628921885
1,32063858742683
1,31017826076687
1,26908546323873
1,37401507515372
1,26740499108681
1,28677593245524
1,24437527210249
1,2583023030004
1,24105247353718
1,25099116279451
1,23937219206249
1,29470886652489
1,19628487110371
1,19198088141304
1,17678453663737
1,23678199863055
1,21252283058367
1,17442316965206
1,14519633027525
1,18496412777064
1,21112198566867
1,22227514773952
1,19165680640701
1,17047347575404
1,11054589845248
1,18411029338687
1,15588757685436
1,13197800533579
1,16027090736774
1,16144327087901
1,10539134315884
1,13756852977428
1,14532514538833
1,14788428547859
1,09945870065522
1,10131417748206
1,09840165855129
1,10664174883262
1,0535397869115
1,09878833328373
1,06474851650727
1,05644024822552
1,05235623067238
1,07472743685513
1,03483405177491
1,05516620860167
1,04699653608944
1,05385841526412
1,06362082645377
1,03669659564764
0,992861295709051
1,00266731213588
0,976944206507172
1,00954857198422
1,00114828758788
0,980394029252575
1,00110269349268
0,998489042488018
0,978830156079339
0,996891684960989
0,957489006066156
0,961850691586328
0,965400646328952
0,967973091508916
0,925860279671412
0,928629593732434
0,939175239994461
0,931896561731191
0,925794184513494
0,918710532174029
0,900974654661787
0,895648165599059
0,90376201590995
0,88287559436
0,891681343045795
0,898517050822495
0,88586242891282
0,875935490502282
0,865260543251137
0,8654443362613
0,854470496155884
0,863903465643497
0,851150329346693
0,863024181683454
0,848060902877343
0,842925000974764
0,846979157920422
0,84618235953035
0,819373789523486
0,815659727076355
0,817958802188389
0,805545589763341
0,792322547865099
0,809516329453965
0,813996466004335
0,807692384509964
0,789598032469979
0,794912709666918
0,790873541908461
0,77575583886801
0,776699886453735
0,796994737859893
0,783441379160227
0,764290800034871
0,775484908782558
0,756968501548158
0,72140248474006
0,741078162850098
0,74759914360317
0,741971126921789
0,725294335800442
0,734909123309131
0,725965828063864
0,720721806476306
0,737721083713471
0,70529374659385
0,716511682185596
0,717847308146489
0,692654251704888
0,696086249312468
0,698934023059889
0,710534270910363
0,69814557730726
0,693719158723105
0,695566523950929
0,699512936775429
0,695653643230838
0,673697778385245
0,665717425428906
0,665160885876425
0,67304174266271
0,657027291385878
0,644461562140473
0,650900276599647
0,643984331220824
0,652402295738534
0,64152799665849
0,640633928207289
0,641980298767097
0,633764673712125
0,620812748806293
0,623538170549315
0,625251222835422
0,604933352809095
0,604622127007714
0,611274889433636
0,6040257810165
0,600788791101502
0,608193404803302
0,608663539998621
0,597497145699872
0,588488700931658
0,589627741315621
0,58354434742806
0,583410006634204
0,576252785299585
0,590559083227462
0,581898927521788
0,567095283032786
0,571065827479027
0,572136226138198
0,564949611883515
0,55480933256861
0,558171236904427
0,55614374836383
0,551265668208995
0,544693392574987
0,538049484732081
0,541233873149308
0,538749777320641
0,542108077730837
0,527666970824657
0,537045305037181
0,533718389001235
0,533086933338235
0,529392254096871
0,526701188911361
0,524433791249113
0,51257007445874
0,51789237030666
0,514913774906539
0,508163129358705
0,517657986827613
0,511036321092484
0,505556983883197
0,498118183472057
0,498625370113455
0,494932377492045
0,500257321137963
0,502596914322025
0,507764471523152
0,494988525368556
0,480052680821109
0,495934812973398
0,490025210503161
0,478355297121447
0,486502471029118
0,492480385069092
0,489367731350512
0,486444337323475
0,485648666219421
0,471417177571985
0,486186925025551
0,483398095605703
0,479799924455696
0,483145017110292
0,486809009571199
0,490705970372678
0,479081537026636
0,481019418625378
0,484268653377427
0,486281516349324
0,482564987349529
0,479863409273084
0,482796789589457
0,495555596203746
0,493665877221096
0,485331717670399
0,492047825179705
0,497076088177539
0,491409090019815
0,49560818722223
0,497192687058704
0,493592892218569
0,505302186955868
0,499792908547253
0,515445953616916
0,501976625633308
0,511297964259935
0,514300101112895
0,516241496763574
0,521551982592428
0,532355900875252
0,524237375445027
0,528389420577272
0,527107513988066
0,530708085042917
0,53557754326677
0,545260119441359
0,543450355076802
0,538856707801426
0,54180828269292
0,549364661809903
0,55468073073473
0,555596258529324
0,55621009631031
0,571400145258086
0,56698528416489
0,580309077458393
0,585482621738052
0,571886971408579
0,571041155301602
0,585984930138594
0,589007601494902
0,605283569918993
0,611750979362185
0,6072913720277
0,605081504513575
0,617752048061618
0,632103767867174
0,632920182255343
0,636853171580541
0,655425709594562
0,645279342486289
0,651590137699709
0,648731893593064
0,656047109570377
0,673105371426075
0,681409779217458
0,673340625150292
0,680623917799045
0,68888410094623
0,692796844843727
0,693295456619629
0,701790318135725
0,693425321464238
0,709898346419337
0,713434469507179
0,723167958802861
0,699661698989012
0,712889437986965
0,717689372014054
0,720884518757345
0,726814423815426
0,705155473925102
0,70416272132024
0,735707409645812
0,698364685475014
0,711645539809758
0,696035454047792
0,709515341950296
0,70243029660432
0,698307671767008
0,693130563950338
0,699328817248786
0,700042111981959
0,68823613682252
0,694709379281414
0,702579545325012
0,681942901706682
0,691637185900654
0,679959513411102
0,684741456886747
0,666319498655979
0,677577763972327
0,670629537991788
0,68871026664584
0,67904461311178
0,684723785853217
0,661897081571311
0,671733749666454
0,676671585489285
0,674708175617046
0,667154828388469
0,67241357502932
0,661432536587813
0,673036460390879
0,670157636284429
0,679555285909579
0,660470571763463
0,673824350775555
0,659724998598385
0,660996074477561
0,658064978309059
0,665630885242855
0,655444449462361
0,663448774700807
0,643342858742013
0,666695906053748
0,659200675241235
0,641473075116453
0,645042893548156
0,64487056525163
0,625561764731842
0,644070360523862
0,627372284618721
0,632261755582983
0,617887394654462
0,609193553363265
0,608374794540525
0,62188321240339
0,604546275551636
0,60538463711775
0,60790457307534
0,596419359303638
0,576565976535074
0,590873867491031
0,57548044042012
0,580448646831803
0,583082154872554
0,573479767422045
0,563603505207337
0,561555861018424
0,556985607731589
0,560528467233455
0,55297712856085
0,549186851348929
0,546700710843912
0,539441144405046
0,535405457089804
0,539541830815506
0,5330845314835
0,527958048007733
0,524809583568024
0,525378995162307
0,511153553259794
0,514248370154465
0,503825416032064
0,50441924571039
0,488653422913973
0,497106613601183
0,493640213479709
0,485222320794136
0,48324684848638
0,490606561680921
0,475608711067441
0,483697830967206
0,469817010387348
0,473268917888722
0,465192863906097
0,474616461625269
0,465281562816815
0,479684537363299
0,4566581698521
0,457016433835189
0,454751317776695
0,46256839045226
0,443533250771617
0,453669355274654
0,445354217574981
0,449671373345869
0,437160404347132
0,441560547626647
0,44327891163303
0,444132694756181
0,433729114121713
0,430841301529967
0,432468666606787
0,433731002812196
0,420442730838171
0,431734672620197
0,42498924848247
0,427648219560763
0,421119295005777
0,427402528669808
0,411483768117752
0,422624143880477
0,412344839369309
0,414033208815009
0,409938470096316
0,411196301968387
0,405935389688153
0,409146472992552
0,40452274674951
0,411142226347664
0,401245623863532
0,401283377790559
0,395768319558338
0,400578273050495
0,390589810836259
0,402786467289754
0,394343549396325
0,395048535990465
0,389992132202154
0,397651495827179
0,390913409325938
0,394071484308265
0,380066921599492
0,387628854861754
0,383654165516987
0,389875773971158
0,382443832436923
0,381435543245022
0,379228537579961
0,387221970513044
0,379822948887164
0,386750527483102
0,371580341250426
0,37475611825029
0,368896134883055
0,373509806886044
0,375117841218328
0,381487930752197
0,370900859917664
0,373222266027173
0,366826921452213
0,37197492930522
0,364502453731891
0,368172410711926
0,362119037503611
0,367013861709487
0,36506050665187
0,36248637920339
0,357774299503696
0,358740698781726
0,358295430199814
0,355836172914714
0,356827875161955
0,370945681227883
0,353032804112
0,364982280924933
0,351821861754119
0,359391338686276
0,352848961185548
0,353274304824405
0,349430550385792
0,351322559380715
0,348085934790059
0,349499385309967
0,35382464005051
0,356572543730397
0,349430952063409
0,355274133110452
0,346850090762618
0,352792727206283
0,345150314392105
0,354085024938746
0,345579705802211
0,348629736503833
0,343706878323813
0,343922242964534
0,348084278281574
0,343006632838084
0,342761941940629
0,344851704272738
0,3348330706321
0,345424538901013
0,336735044776267
0,341275597046443
0,334304034404698
0,339312043614434
0,337255093488214
0,339025289115764
0,338468742851302
0,342901981164182
0,33926496186157
0,34234445408901
0,330976968697388
0,330606461336252
0,325058078389655
0,331885744516646
0,333192554939593
0,330919222381179
0,331045916038696
0,335039836169333
0,328223201981025
0,334675206598491
0,327347821687542
0,330835078171188
0,325710049121428
0,328479057115354
0,326129132764648
0,327445438948599
0,329382183604
0,328701937739145
0,317615532603952
0,327722334322774
0,320099517799948
0,323540910282411
0,322260871215995
0,320220748166161
0,317999514036041
0,317111061057125
0,316027717151862
0,319926941668396
0,314810453455362
0,317686766122341
0,314678922441799
0,318698996639257
0,31742763877892
0,315041592304542
0,310846607999333
0,313903379072383
0,31084260119179
0,30906968629024
0,308464434160922
0,314063249672312
0,30754878048355
0,307422036104421
0,304390495771567
0,309445652653046
0,31023634429627
0,309620500523948
0,304802323864252
0,304854016214812
0,303515529339523
0,308580210148979
0,301291734562827
0,308402899780177
0,303345275832228
0,298759370912208
0,296961788608961
0,299194429054722
0,297368646703065
0,300584102203632
0,302547697773728
0,298091035123633
0,288149987550672
0,294961156867576
0,292064968938369
0,293720177634608
0,293436938266941
0,287373574016615
0,288482356450014
0,291064355357921
0,285415743288605
0,285420499027717
0,286778893825152
0,286262934921611
0,279713589770797
0,284150135758573
0,281858264032216
0,280821899508161
0,27725458937889
0,282521558106468
0,278001627875077
0,273302436012588
0,275265428997323
0,27912255248706
0,276271955506714
0,275647178077416
0,27434520191145
0,272550720101451
0,268263278915719
0,274688605859444
0,271036063545005
0,264739518336558
0,267231471022973
0,27636344594622
0,26182494921994
0,263834587499981
0,255853917349567
0,263410339182603
0,261510266557074
0,264410454111965
0,259021745035149
0,257308341875694
0,253071699857455
0,260037013565584
0,25442865405783
0,258901418705707
0,251296727979493
0,252587043238759
0,255185598269839
0,251367263337971
0,250993042833211
0,248814113333331
0,249167495722091
0,251824810917106
0,246287305861369
0,251844277626098
0,244985542504807
0,243769694251934
0,243860235267564
0,244022927302612
0,245256136364411
0,24558486528538
0,237389723128225
0,241400784789411
0,240371584517069
0,240426711451499
0,238289420364833
0,242485345571937
0,239252729220791
0,235808617238485
0,232882865163106
0,234452553286295
0,233570071896263
0,242407110339099
0,231356879947418
0,234010280772286
0,231570575403172
0,230182448125166
0,229032627106583
0,233818286972862
0,226444268853907
0,234840668993283
0,227753447138179
0,228553913498781
0,224494877927705
0,226331935854647
0,226954652639503
0,227912483648304
0,224070350760256
0,222795494784574
0,22581671685147
0,224091562843961
0,222946276664886
0,223241161895982
0,221478794701146
0,224972117423771
0,221319169358988
0,221769591923706
0,218022423113265
0,218787228795505
0,219191459048642
0,220456378738082
0,217532755369251
0,216968587579054
0,216237447758676
0,211605611073028
0,220055818943309
0,217098090935767
0,216235612604591
0,215812993760575
0,210965174519019
0,217632668286167
0,216709504488735
0,213364118311536
0,213892878436987
0,215503524622658
0,213179136545238
0,208035340750679
0,212673081090676
0,212938625283682
0,211086143817998
0,213693529884069
0,207395840394908
0,216168338146287
0,208435017630553
0,209176458809655
0,20712488699517
0,210636546706386
0,208165517334027
0,210858626832377
0,203222668421847
0,208144760976019
0,20354526104446
0,209505200263628
0,202702837284022
0,207082309549906
0,209550372058244
0,206244612196145
0,205721082473344
0,204379336133151
0,202039029374002
0,203450776353323
0,203816539199986
0,203151491838948
0,202514136786377
0,200781439243802
0,199497760202582
0,199576686195463
0,199023485604112
0,200899403188746
0,198445465840344
0,20392877881886
0,197211798497076
0,1985180997438
0,199008387073867
0,196262339675127
0,19162051939241
0,193757037815948
0,195727590720665
0,196172451291155
0,192760159849546
0,195404524052001
0,195067855761738
0,192051363586999
0,18967246510081
0,195999623577931
0,190919522156094
0,195929776458455
0,188824480684394
0,193864867678838
0,189062065848456
0,190673073249277
0,187880055044405
0,190927084992378
0,190802693475257
0,191385799506632
0,190821452118296
0,188826755197659
0,186234742967922
0,191822795936547
0,183643805209995
0,188923998522266
0,182951928550135
0,188706221626481
0,182119510734448
0,185171945960433
0,185484741380559
0,18637962300391
0,186991579694219
0,183499317913117
0,187147566014456
0,184305737076734
0,182300898664917
0,181794948597279
0,184280736924189
0,180666262272716
0,178743381418315
0,181344130161124
0,182121507232391
0,182171682934795
0,177293133839981
0,176740287708529
0,177083190992751
0,182402645438688
0,176572232482133
0,17983099934741
0,173340149747814
0,178211999545616
0,176954065524165
0,175571327160343
0,173966656807778
0,175557706072862
0,171056299448932
0,17446648723011
0,172158164548995
0,169963970508001
0,169767555529991
0,173124572822838
0,168672321772385
0,170477700974021
0,167343086380533
0,167294688529786
0,167170008946231
0,169385870419265
0,164857324242704
0,166609015490274
0,165849277283803
0,168183199303417
0,163732195533163
0,164678000159301
0,163674861850759
0,163734006495216
0,158581123890615
0,162775389412996
0,16349410856754
0,16027913763015
0,162670254746088
0,160271958725251
0,160360802450271
0,154337381923801
0,157276222480391
0,162633183768115
0,154708762829973
0,156086682155708
0,154355288666698
0,153719394650932
0,154248323533825
0,153925387992563
0,153774635679906
0,15339445605137
0,152971234611696
0,152520518602749
0,149844662758488
0,153552032868474
0,147344166092545
0,147842750455414
0,145202958520454
0,150119017171864
0,146330738967358
0,145263540323782
0,149205702457496
0,14708002492458
0,144787658037967
0,14781073538008
0,14527077473496
0,144312668177002
0,144695754600946
0,145739265374376
0,142863108999504
0,144642601904721
0,13921628953335
0,140627109568423
0,136799642985376
0,139348408422576
0,137719263942068
0,134993129959551
0,136938740445285
0,137494719033262
0,13858434250326
0,138179333650737
0,136571705774139
0,136371025558719
0,134578943061714
0,13594725815714
0,133320451142226
0,130768998706626
0,133209388889105
0,133484845553154
0,131882505325987
0,132634620933303
0,130636074809365
0,130711631375497
0,132418154067042
0,129867208611507
0,132733186463306
0,132603227511326
0,126386089739901
0,128570770728611
0,129388938194778
0,132429279661035
0,129357837809404
0,128841610623882
0,128348562532803
0,129302363382898
0,128194911106482
0,127536849251938
0,12687059752132
0,125791827857005
0,126445108296754
0,129814135714346
0,127105722556057
0,126533601674551
0,126386598750273
0,128355558928428
0,127461437496
0,126848186984581
0,125050436060115
0,125161678393572
0,125690269273592
0,128719706383022
0,12686496707595
0,127639469929294
0,127166422867423
0,132130722392863
0,128694455862329
0,133108226115049
0,127483721019205
0,130270013217132
0,126765864054651
0,127796804912409
0,124598221213039
0,128660481935434
0,129042719471421
0,13209785862316
0,132554783521249
0,133208196472069
0,125863393693128
0,129239379002701
0,123924367494918
0,123380236554292
0,121369350369264
0,124728985803897
0,126384028816115
0,12147966128789
0,120419481502085
0,120013932347126
0,115843226879043
0,1224993775411
0,121468438239269
0,123520714567206
0,114361345494327
0,123889451592798
0,122847359061568
0,120658035333602
0,115629110800035
0,119156573430574
0,114345552845006
0,12301214277379
0,117705993419467
0,119190476178226
0,115961179129348
0,121762869814671
0,118715205292163
0,121700048702828
0,112811378724611
0,122268411174515
0,116270888369264
0,117899024607768
0,111401676371454
0,118843424540035
0,115390185390682
0,121048648920989
0,114489377196163
0,116216523641429
0,11587124450376
0,118278203438543
0,113443448563987
0,111446619933382
0,117285598352345
0,112673750280933
0,113386774198672
0,111220397546691
0,1189570335063
0,110754961954414
0,112718636012998
0,109950971607915
0,117190083809417
0,109774126672563
0,112211426830054
0,10818659395045
0,110431946372052
0,110799464127473
0,109150062055469
0,108483556559347
0,10756583144841
0,105888443701974
0,10866560773336
0,10980785551589
0,110897879885379
0,108030638458578
0,108859960989246
0,106803105374994
0,106647973126331
0,10756857036414
0,109387402419872
0,110072310250785
0,109813536661846
0,1087380224589
0,108890377858708
0,105191468512273
0,107064705532957
0,108202001192326
0,108267001151447
0,108456865764747
0,10719200744946
0,107273027063655
0,108179361168837
0,10780863248416
0,108099960259237
0,108224759027735
0,107855067171772
0,10741946053261
0,107343239068713
0,108710490291719
0,108003782472062
0,109225302309971
0,108160106621878
0,10806916207633
0,108322362747138
0,10827654834686
0,107868282223336
0,106845928838561
0,106468814637879
0,108726931005955
0,108633825748191
0,107544571733799
0,107381317964533
0,107722153693928
0,108860881684932
0,108623664503562
0,10761901849481
0,110042724016732
0,107847617512415
0,10805826239792
0,11097267536648
0,107277580459483
0,108098733833338
0,108990799067319
0,109932578804506
0,108892748267151
0,106646709373125
0,108248856282178
0,108265116502147
0,10849947048352
0,109246059118453
0,109285473108629
0,11015648570328
0,106567082979235
0,106403645643331
0,108136572401117
0,108173871966266
0,109957115625209
0,110910040548017
0,11097216534312
0,110291524056771
0,110477447226813
0,110559651090163
0,112347073319573
0,110491821016638
0,109124822956359
0,11002020132601
0,110229602594462
0,109804746238434
0,109066886494056
0,109100619546858
0,110997782987693
0,111209638953883
0,110154651825022
0,109728086642066
0,109446836783374
0,111370850574302
0,111016060966476
0,110137563093873
0,109627218618022
0,111377470171094
0,112574928620709
0,11217753700148
0,111180011349774
0,111659110333224
0,112797763923738
0,110785261162036
0,11317615705352
0,113783396759039
0,111404589281822
0,114436919325917
0,113526891361961
0,110371929837096
0,111839774588405
0,114375871175011
0,114395745615498
0,114937906312119
0,114785645451417
0,114518851587463
0,115518518829612
0,113192524821263
0,115805841221746
0,11614142440354
0,114616160749334
0,115334585341478
0,116724844471091
0,115439576958625
0,114172547188593
0,115209012686905
0,115785322459284
0,116193236482244
0,117110129614556
0,116849223260049
0,116413773226138
0,115272105053553
0,115273396695965
0,115960109439312
0,117545050316404
0,119067902959194
0,120333776944946
0,119344575280009
0,118924941112079
0,119896095082041
0,119630907675555
0,119233213910871
0,121062151941506
0,121579669840165
0,119614598731688
0,120758040124209
0,120291344650168
0,120063111554914
0,121138373594391
0,118677479400327
0,122054594798488
0,122832767622867
0,121859044254037
0,124334890542424
0,122571748574135
0,122167048650977
0,12182204398096
0,123468198276586
0,123003758432041
0,122626254978303
0,124193005843367
0,12233220329101
0,125019525541247
0,125512272153385
0,12426200518152
0,125315160689476
0,125086969792931
0,122061219166283
0,123605386992234
0,12474969462251
0,125284820280986
0,125096654181193
0,12472412352305
0,126195354313254
0,12530762421614
0,125602500892765
0,124708786299629
0,123537303803748
0,124318620610229
0,124256978672695
0,122165248636701
0,122232923722291
0,122510625060675
0,123065869233842
0,122205389747645
0,124857794816251
0,12445473265232
0,121521947359274
0,120089454138105
0,121062195925264
0,120336828402918
0,120137705086434
0,120967462437057
0,1227397251848
0,12077494489408
0,120775456194674
0,120385919223048
0,122204587068329
0,123446670032661
0,119892096839649
0,11924115450687
0,120379445388075
0,122017242726363
0,120583000448743
0,120979907309446
0,124111679796051
0,120241321138607
0,119038978701558
0,120094067872216
0,119153017152683
0,118586585074366
0,118233212336597
0,120392059624909
0,120974843025177
0,120613889530183
0,119268876316799
0,118793119226591
0,116531998225868
0,117033400821173
0,118823513143393
0,118349770941747
0,11815683884791
0,11918380911607
0,11811476432395
0,118066174933716
0,118391966597681
0,116982117838289
0,117993791402627
0,117968088724408
0,118646521440144
0,117061601299923
0,115722298471019
0,118394492424575
0,115692475065381
0,116458614267575
0,115634011413407
0,115515736633589
0,117371575408164
0,117157221227894
0,117707368544397
0,117954093595776
0,11703102541618
0,115591989520576
0,116080696786773
0,117460072165236
0,115980215126797
0,115450674411027
0,11617394311265
0,115223665311252
0,116270226001733
0,116055935124947
0,115575656162141
0,116090338457953
0,116850936167836
0,117355290412706
0,115647091813693
0,115941131870353
0,114848609998027
0,11665904669307
0,115089267895599
0,114958072629684
0,116911619546385
0,115713626663239
0,112734788002488
0,115172393400677
0,115608521014857
0,116477135637184
0,11575201298441
0,115565331199421
0,114264329192242
0,11597050223158
0,114586343629361
0,114847356596734
0,11239113677134
0,113463726994718
0,115638274259949
0,1146182484286
0,112030907268283
0,113655551360263
0,114521667155376
0,110971322101355
0,113347806167306
0,113864941673664
0,11353214061532
0,111156041253519
0,111948227384958
0,112861809352415
0,112248287042256
0,112764201760125
0,11106660650756
0,110484480627936
0,110015225774544
0,10925769835633
0,110818856078581
0,109352700125239
0,107637088211456
0,108175955471311
0,108427199436405
0,106800049703676
0,10727432771555
0,106502589008945
0,10704261201837
0,10679068944553
0,10598346237981
0,105536280996096
0,105116439795121
0,105527147790493
0,105506355453914
0,103530907586735
0,102112703877639
0,103798516934701
0,101047167474702
0,0994871651102722
0,102315198186459
0,101396803946188
0,100192658977655
0,100526460349923
0,0993284915504774
0,0980244648984863
0,099258379232111
0,0983181096567144
0,0963105566191911
0,0980294605689676
0,0993426419829723
0,0985349275740366
0,0958708569042487
0,0976875566253629
0,0972641510178927
0,0968994683023285
0,0947924927382862
0,0928342683319831
0,0958366878530428
0,0948032688139413
0,0950124397707363
0,0945852898603203
0,0930746928189046
0,0953592785126641
0,0942277120302194
0,0934128349272823
0,0921092667678784
0,0920375684208959
0,0922337415151928
0,0946650874829768
0,0915441789250531
0,0944160854069414
0,0911983848633196
0,092258259334408
0,0924029829062615
0,089744382740119
0,0914914013812922
0,0912354611571674
0,0908448648179599
0,0921191037444005
0,0886084327134303
0,0898284632503667
0,0913049788941178
0,0893394058264517
0,0901944050260183
0,0918992224027117
0,091347274174944
0,0906502270567929
0,0907022722391513
0,0912815496142869
0,090519379973928
0,0885632871522533
0,0899669920450214
0,0889275298833988
0,0886248791997741
0,0865143633132497
0,0871501099309532
0,0912016488948541
0,0895938921407296
0,0908377434913863
0,0880966939458402
0,0889812297951853
0,0893478237106658
0,0883163036015726
0,0867085125368991
0,0896805882450984
0,089599870193413
0,087276367912632
0,0848489676589675
0,0854039397581191
0,0886463506002699
0,0885954932761657
0,087694998163846
0,0867450935200182
0,0864981379598945
0,0846382034432878
0,0876635288446537
0,0891083965612575
0,0877927149802928
0,0858923786878942
0,0870638556829162
0,0847760269012496
0,0891737342478402
0,0852481155908841
0,0873602644718742
0,0892063442310734
0,0839833836483832
0,0845532591101943
0,0848086309124162
0,086471904331742
0,0851197595303479
0,0848314816651731
0,0854825811603777
0,085027959755797
0,085123794423037
0,0852731716162049
0,0846398565491242
0,0850335988418536
0,0858576259359707
0,0858346015590574
0,0861964959111488
0,0833975045918103
0,0812979084445047
0,0855169076052188
0,0845156797350491
0,0841044187883877
0,0834184234298754
0,0844682450388377
0,0844700388690149
0,0846849763510369
0,0813560495422851
0,0809486246756991
0,0815006158440648
0,0836528119206228
0,0824645053225308
0,0821061911329385
0,080573775571522
0,0851026022558762
0,0845003064378669
0,0836127059575062
0,0855335667385374
0,0795277865470013
0,0822970868467945
0,081519239615167
0,0826475290218289
0,0819583793469389
0,084686109898538
0,082213253443029
0,0808259197499896
0,080570340288803
0,0809352978966868
0,0811286173290918
0,0844137400583018
0,0805137178014885
0,08120776999137
0,0826665232640103
0,0813459775794128
0,081671109266026
0,076417728298083
0,079958813550592
0,0814724328166262
0,0832504029900318
0,0817002529179069
0,0817717492539838
0,0821520663660832
0,0816396212896722
0,0810873639747865
0,0822898557960514
0,0779652803544911
0,0810375841405838
0,08071535905323
0,0807402857737101
0,080589163993527
0,0805686797193667
0,0803445986446286
0,0810511164188086
0,0808535203752208
0,0789968050731503
0,0823491027260709
0,0770630397241648
0,0799554383990564
0,0809178911643086
0,0815547218194417
0,0792338970728377
0,081841101939196
0,0819417368635443
0,0795391451885843
0,0792646823344164
0,0814097668495163
0,0805031254105695
0,0783238187731569
0,0808906387578012
0,0817318828762479
0,0820044370948837
0,0810633340109541
0,0777720135598382
0,0800789771862734
0,0799996379272444
0,0785964504629813
0,0764781019239888
0,0797966865305126
0,0801180199395256
0,0786357485630156
0,0806178299723729
0,076762790701435
0,0774083743776525
0,0786322849671988
0,0805398933191317
0,0843602298558393
0,0807967982887064
0,0828202733586757
0,0822242534765318
0,0801554256630443
0,0803627831469204
0,0784866703520324
0,081957874722296
0,0829381688094183
0,0834402929014814
0,076755647838227
0,0793129082895697
0,0810528739378026
0,0779936702525983
0,0799216348945836
0,0865699842716473
0,0813302922058196
0,0830466909574146
0,0798182505501778
0,079401841889047
0,0834141227825474
0,0835730828356493
0,081964819339992
0,0823477033929485
0,0827105874850105
0,0844922581704636
0,0831821739764019
0,0837148759346379
0,0821110808732887
0,0828883203562277
0,0819381086998811
0,0842537852819803
0,0823218460886742
0,0829093429819575
0,0842244662820004
0,084072331903714
0,0868883428984322
0,0863358377955904
0,0824825203027456
0,0838865105163994
0,0839875572412747
0,0834077142265302
0,0853300582463811
0,0820162037497189
0,0869064766974084
0,0829572671801903
0,0852866221368558
0,0848327360758846
0,0884238549172664
0,0860057847700277
0,0880651894707593
0,0892102404730677
0,0868878562969779
0,0874476371466292
0,0834155508788102
0,0924288363779882
0,08812007687755
0,0885657860203377
0,0896835502286188
0,0884428925960948
0,0936307527909523
0,0875968309987495
0,0906911716324842
0,0886841623580169
0,0917865207320372
0,0895570271634395
0,0909796802167296
0,0921145508079647
0,0926727581265609
0,0939331301850283
0,0913292510515545
0,0926693402800937
0,0928941455932413
0,0945421096790919
0,0931199291468301
0,0936677695499217
0,0947223138528576
0,0942219744987235
0,0986628789056046
0,0934546437092552
0,0984485664305486
0,101475281604257
0,0988245588040031
0,0992213676240155
0,0984674205314189
0,0964977084162955
0,0962155406702871
0,0975684165079857
0,102015314079127
0,102897283478551
0,103003691648586
0,100992672152806
0,1044765235105
0,107418412773629
0,107020763181944
0,11121400287132
0,110583533250787
0,111778033087128
0,106230789910628
0,113862995973724
0,115980045762116
0,119641985141661
0,119677843312653
0,115614230405222
0,120040469034899
0,123496458493567
0,121266684740375
0,119521556955208
0,122122527839915
0,123442045699761
0,121964438715207
0,126487441715518
0,122071252341758
0,125178248123256
0,127819628347399
0,123188799481402
0,119662998162915
0,126741451745989
0,133712107839984
0,128601541529971
0,125250529704399
0,128690502534089
0,133716510302595
0,13274071426134
0,134796637192022
0,13445430899262
0,136046554923225
0,138563568276657
0,137553322283512
0,143114866139701
0,137009985943562
0,141615973454684
0,140676612377443
0,143828210106986
0,141652351756809
0,154631983312545
0,150947303761175
0,146058198496885
0,157591399815515
0,158605210911769
0,157803442744026
0,156597036908432
0,160943126777337
0,161382835349514
0,166090015472944
0,166695220747236
0,165542553557994
0,177468245668401
0,170327863778662
0,182233646806264
0,183531974365822
0,182624088430124
0,181628529068041
0,184696650581606
0,232270499510257
0,204264814373372
0,20844048011413
0,207457606231346
0,208243403085165
0,245666305111835
0,241138647882415
0,240084565093095
0,247418447239572
0,253811926212044
0,258466047733924
0,272675473860009
0,283509856804318
0,291035424581809
0,298146602829453
0,292260255770087
0,305474108066813
0,324571796235768
0,334844371401005
0,334295498439831
0,340493353880607
0,356989405751098
0,367631230252152
0,371316724663008
0,379137775629229
0,382351070987821
0,393598230261904
0,41897391084966
0,415280288507482
0,421010986844956
0,429539649752179
0,453649314346939
0,435219067184189
0,468961589247449
0,474485556046392
0,473759231586326
0,486042483065411
0,492192052402663
0,502465911791704
0,497319237589675
0,529164140668306
0,53227622372408
0,536334676760158
0,546581132950762
0,551107205338113
0,556326319998131
0,56431215168113
0,574174966819106
0,575224674999099
0,591006482754343
0,599984111247109
0,59388875032318
0,600770107032219
0,576819467247816
0,588641826282227
0,593633218816803
0,623102569848031
0,605489486400388
0,601793306737325
0,605819682885708
0,593210704437337
0,600827034837106
0,603742403506947
0,593893008994643
0,593796454336725
0,593603143132302
0,590303283565365
0,600886922470238
0,597794647849955
0,600942086537038
0,657447921069323
0,58473946928399
0,578473301023541
0,578703101216606
0,583231178996838
0,571968130622925
0,565287597636328
0,561704520324391
0,576090750350136
0,554979301437223
0,556064161677746
0,534069448524647
0,55094863437713
0,549655608749862
0,521270570773521
0,511429157469778
0,508863796869536
0,492464935074723
0,485552553705887
0,507205918407127
0,526344850983937
0,476203121201472
0,470947776278853
0,458056566921319
0,459635083749782
0,451631102943803
0,444018948560908
0,444957075423326
0,450213728602803
0,430436233577794
0,433410461806429
0,424158871583449
0,419246923109031
0,412312173581173
0,416597093387963
0,412322410937391
0,408313633559727
0,407253308439241
0,406118049509301
0,404639352198776
0,402922084514136
0,398334334672716
0,397123737432899
0,398598682473961
0,396917184947004
0,390598949191878
0,397025347494078
0,392310568797371
0,393822725470246
0,392521438168818
0,394333954283761
0,387693731394883
0,386828358475401
0,388647333707462
0,383516691570247
0,381884355169072
0,384028360314395
0,38321955830902
0,38497502988162
0,382569874479287
0,39011275541724
0,379945453055815
0,376687836788623
0,409102058398731
0,393452352479253
0,378610622680463
0,381225583656941
0,383335491015212
0,381270954058859
0,371678367526214
0,384568291634731
0,380111947466353
0,377438201863909
0,372007639994381
0,372454833784625
0,378825584516121
0,379745028315119
0,369623483970187
0,374428517477184
0,367505860979611
0,392920464604408
0,387950318236109
0,388318285260129
0,414446592706835
0,383139388132252
0,374680115375509
0,368740004941398
0,387467501069011
0,373994804914429
0,378934547518587
0,376866583281763
0,375582616930299
0,387088723231993
0,378836789188887
0,380823899230369
0,37604056132757
0,371106811806508
0,377185223077642
0,367344710919375
0,371586088181379
0,377901155070369
0,366539338897598
0,379270078747467
0,385604021848688
0,382673490400523
0,373887008577527
0,365932055741687
0,356042405116713
0,353634761986479
0,373759249447601
0,355874088034973
0,356042637843548
0,353831008105345
0,34820071790389
0,344963376235734
0,342284718707686
0,339736542982366
0,337738582662291
0,351210778818441
0,329763125585313
0,334968066809622
0,329792308693795
0,346270535357392
0,344268851336526
0,332733910044292
0,32230554621559
0,324469106915765
0,342034764052625
0,322237925999913
0,320973668216433
0,317642869575049
0,308518412946135
0,320976406514192
0,309699813985896
0,304667737404861
0,305403802856897
0,300647999430819
0,298113332186913
0,301862289101058
0,319628435842137
0,300854308621216
0,294975768595309
0,29722928143956
0,29661956853907
0,295282950287735
0,290937430754292
0,300539669807531
0,302614126680506
0,294215323701089
0,31556729755389
0,306215616729278
0,298375906838558
0,304318456228306
0,301419401754219
0,299534433366948
0,310747873076378
0,31804999599176
0,313770476864355
0,320886009093106
0,326851866881621
0,326657530213794
0,331165760273955
0,329703592223781
0,340545589386254
0,341040451113344
0,348219655522024
0,359297654392695
0,365539105619108
0,37576677865489
0,378748387549193
0,386514725935105
0,405199668013877
0,395617798477859
0,418094799608453
0,422806160713713
0,437612220765117
0,448149842951594
0,450669385629816
0,4639942633146
0,468871051508982
0,483309616102036
0,489148182794716
0,492055150789192
0,512757676366916
0,510745666651794
0,519561380324155
0,521942145013112
0,524133096827997
0,529763046271936
0,540530739267925
0,540471238030018
0,563417991500131
0,56880312978318
0,565273647831909
0,582567072938807
0,562298395344788
0,57119732343609
0,581448326368234
0,575661322538694
0,578970379283095
0,577707296216565
0,594678443167765
0,593619296128726
0,58967671290836
0,594489265230902
0,590535852733292
0,593557780806414
0,593185935543679
0,597110814102798
0,606290780971723
0,602512196232469
0,59730427650823
0,592344848690161
0,655297155209446
0,631069984914981
0,619778849459646
0,62491522906469
0,62696677060246
0,638968547578205
0,632446138024621
0,640594185422799
0,642825832727168
0,649771769697413
0,656498381383776
0,651131127600881
0,649736108589176
0,655194975721052
0,670273973061712
0,66261186504184
0,674185967684284
0,674938767401313
0,671898091453911
0,691544418913211
0,680874812200419
0,681726994822359
0,68429854475644
0,699536632091107
0,696074831202399
0,699571725940282
0,699428321199541
0,699323907022223
0,704576489230568
0,703648473064964
0,692134405036573
0,69565584704884
0,696808294979492
0,692452362692873
0,71205710680414
0,701110723763387
0,688296299988111
0,696418874013345
0,691396174647239
0,683983216303055
0,694970882785208
0,690361711610455
0,67771687299526
0,674958725520094
0,671838702397562
0,698875103474092
0,682534076614714
0,670052468369748
0,678608312094291
0,682210067634502
0,680855981662551
0,679769360035636
0,673723762183403
0,687975006685545
0,687526603658125
0,688864995485421
0,694829537087038
0,694338224997731
0,696365153076617
0,706838259466124
0,70144258579386
0,71406347794058
0,725028430104968
0,731158943441412
0,724679024617231
0,720921235937763
0,724935077752379
0,737337862726481
0,741806150411519
0,738887986701928
0,735399362466664
0,736497704262018
0,746346918992695
0,755490900632058
0,741934336675153
0,737375416521233
0,734270112368591
0,739834117850486
0,726854000197051
0,736334582710926
0,738537878498273
0,734069982675334
0,742282311093204
0,731729525027657
0,721250196654216
0,718361827889891
0,717953920414735
0,720293184762229
0,728674051571751
0,718020523415883
0,707660314384486
0,708303440178785
0,69996450224511
0,70166957165869
0,70241128260301
0,693344961130307
0,69939110480013
0,694260334377724
0,692221638009932
0,695361478885135
0,694111204372808
0,691719127068407
0,685577670406203
0,69766102093201
0,693230151252189
0,683263153828991
0,692931182417299
0,701396268416622
0,697800183140104
0,698339865664986
0,692714690295599
0,690506858991867
0,695283192640554
0,68805242499311
0,684062806723589
0,679654539093775
0,680375943697302
0,677798069361663
0,670977676052509
0,668516379094263
0,668408615575579
0,663043518197614
0,663445141904262
0,656868091985455
0,652770574608022
0,648967668023097
0,647478901706641
0,648965454643527
0,642161760584331
0,638439570962921
0,64353803271561
0,639016921838855
0,633254573288812
0,639373789529553
0,631679779787286
0,630899836688987
0,626961932517628
0,627381957162589
0,631559080657576
0,624863300184055
0,62352392009637
0,62973704239349
0,625481051324229
0,622576494217864
0,622098170198432
0,613636346806397
0,611475279581782
0,610299834696858
0,606549599842257
0,604316739348493
0,602070785962194
0,594695558199319
0,58798916692236
0,584376215503276
0,579340264922103
0,576257688634706
0,573181006615397
0,56451615850642
0,563566070269983
0,562593005459654
0,556263708829335
0,552780497135459
0,551573746448426
0,550293935750584
0,551776453342481
0,545166907397482
0,544069065499849
0,542717182990294
0,540226606869593
0,544994302413462
0,543703041761552
0,539937225261823
0,544710245481119
0,546533835617863
0,545626000027783
0,548366048890902
0,546558441838777
0,54506232923983
0,547315027807561
0,552122698384583
0,554156756687718
0,552385043096381
0,554293653655786
0,556520400244887
0,558707547456115
0,564964161289065
0,563017965051966
0,565242486752595
0,568140358726076
0,564843863066713
0,566029536286413
0,564624280677266
0,567449074463914
0,570818251760203
0,568000896176755
0,569935445418098
0,569693406553464
0,5688846028707
0,566741446859991
0,564921432610531
0,564359490871275
0,565100916442844
0,565193978771024
0,564965214903524
0,563209466305109
0,559867014472252
0,558117164889406
0,561486349844515
0,56297310015246
0,55827481725444
0,55690541798706
0,554162678146691
0,55200898009203
0,554293796476061
0,553302814299267
0,552375908060461
0,548285254624145
0,548951633914238
0,548982926377954
0,542877952785445
0,539318779410184
0,536091457614393
0,536812274688913
0,526377889015155
0,523358995273001
0,524235514416808
0,516090734382845
0,512918461947046
0,510717810673776
0,505748209213293
0,502125948122609
0,498715598532934
0,494867886312193
0,489737054141734
0,485845411530275
0,481514033738883
0,481948906971176
0,478140534020553
0,474115887870323
0,470403861307564
0,467623703235055
0,463407229635844
0,467582294586291
0,47111595201889
0,464767249206682
0,462306880404049
0,464830395622502
0,466303389089243
0,465405418831773
0,464253525572827
0,467307560404309
0,467021033654957
0,462175121940594
0,460745935589279
0,457739199688117
0,454013921514303
0,450723775390646
0,449720950670969
0,444625895934175
0,437473824094687
0,429811992834734
0,422240194575906
0,418424699987015
0,412585080764249
0,403911785477124
0,399524000172921
0,394080764791737
0,390499854427769
0,386613391423015
0,384795918802805
0,381508914831624
0,379179006703938
0,382214806201855
0,386418353877904
0,390783220379862
0,394352402982817
0,404257745569522
0,408802223009203
0,417531059595896
0,429867914845042
0,443334918797976
0,460610929068323
0,47754002031795
0,487175498045296
0,510989463838624
0,533498751673253
0,549893625227219
0,576158516311868
0,601182249828643
0,621100386499468
0,651350406185179
0,682176732240376
0,719127573290879
0,74625260946212
0,776998859144319
0,811663489257909
0,841519612446095
0,88169736314761
0,912574266874851
0,940257603872362
0,976807723169377
1,00324090829978
1,03755412147099
1,06607116437417
1,08162884209801
1,11579494130243
1,12529085158144
1,13889625047072
1,14736295757567
1,15435469538997
1,15173563508551
1,1541663715406
1,15329384092977
1,16640329850697
1,14066200188934
1,1339801350971
1,12232225046908
1,11676111449057
1,08731542355584
1,08053801135306
1,07227062711989
1,06097917797152
1,04201539485256
1,03791940605132
1,03836971348113
1,04176550311001
1,01744341415379
1,02494012965484
1,02697266585605
1,02607439586551
1,03207181150534
1,03943688988091
1,04821182734441
1,04506757438738
1,05452313982715
1,07291109013591
1,07640835920739
1,0960693597343
1,10290707474841
1,11332591169451
1,1249993180153
1,13199445774245
1,13977686531
1,14160494899631
1,14421062465797
1,15948204242045
1,17876849122824
1,18288567525216
1,18670979298393
1,17746614390026
1,17847309464219
1,21112732804557
1,19646394802892
1,1998739959098
1,20206804434601
1,21638406392764
1,22125484796801
1,23106628805641
1,22050716880079
1,24135303595251
1,26235700933816
1,26306899890881
1,26167787361847
1,25002757357525
1,23749972777265
1,27075107636191
1,27776809212918
1,28410905438161
1,28996721882518
1,31828080027347
1,30454489565629
1,3623392480745
1,32597109310269
1,35199351708824
1,39598968725472
1,42573149230805
1,42929607714882
1,44614471651147
1,5120044598323
1,57051377746659
1,56148491246741
1,6182092965758
1,65774297298697
1,7373007424211
1,76435963463741
1,78585342339311
1,72011725319366
1,77288494160371
1,81927551118741
1,86709007244117
1,79531513480668
1,90523599571082
1,77937473785666
1,83907499229636
1,79045476496076
1,83232075059134
1,73884132807519
1,7720462046326
1,67460401316533
1,70791965286174
1,71433653035559
1,76445318894559
1,71005622959871
1,78758092115018
1,75137732540647
1,7959086739187
1,82100002808137
1,84039789424806
1,72126001896501
1,91504243799582
1,79487087649461
1,78656737707579
1,90464290446491
1,88335519092697
1,88728713506167
2,07857051045807
1,92051084945252
2,088629216556
2,01090630727734
2,28113837431998
2,05891727968837
2,0845517517544
2,21374679367858
2,25061347133362
2,15477707719539
2,51447162299875
2,07780453574363
2,45594909509847
2,40256677971107
2,27455884474565
2,16579870457386
5
2,84418418593827
2,81653746295488
2,49821040701264
2,34539504712412
2,63682904894642
5
2,64272261933452
2,73086943726504
2,33646822926795
2,37187478794941
2,57406979016621
2,85127876346523
2,34504755791457
3,60027101496259
2,69178653903511
5
2,86770642125335
2,7042190690926
2,65639367411081
2,65076023683762
2,27480242081247
2,5135044167375
2,2853458710023
5
2,31853447343099
2,39025136720939
2,62630231134445
2,43014400852023
2,41292477759933
2,84033066202558
2,30739005072529
2,41260193311665
2,63748828399986
2,36654627844252
2,03756404476311
2,55359938537393
2,34581800192973
2,43311306916089
2,06065050753498
2,47627038818172
2,21995949020139
2,39430658075577
2,11356112218556
2,67612374774494
2,09783787775227
2,20428274341584
2,0506475266939
2,06244763159148
1,9289782624414
2,10755215330911
1,83352727620097
1,89590714750016
1,82208709083082
1,862114248465
1,79517617253558
1,72262143348526
1,62958292505252
1,62331844818345
1,58426229316416
1,50627947948519
1,43080959753799
1,44195600463257
1,30047731743017
1,29447906097165
1,20724366879829
1,15488021691579
1,11510299847399
1,06431293398928
1,00955506088551
0,988034731434657
0,943417189347664
0,911129183314349
0,873040278695894
0,848911143771369
0,808477377411095
0,800519759782537
0,754346292238729
0,743906181315617
0,714741424846384
0,707458506838507
0,695029491670609
0,681462980469791
0,664991479839974
0,661457523843289
0,649200511596424
0,645559560461617
0,638123551384144
0,638577313004771
0,627738776623645
0,633100902651947
0,632144980622956
0,649558244059828
0,644194955158102
0,649742807376324
0,652155764596079
0,660240700840316
0,666830481137837
0,679838077390432
0,689892503773452
0,700484301421887
0,713040859630428
0,71114843210483
0,728017780699956
0,740379269925973
0,737374868906017
0,749645987709795
0,735894315800635
0,736405772859735
0,74979471368323
0,75674088750396
0,750766464453702
0,755832297210668
0,75264141385659
0,765121675104431
0,746336157454648
0,757366279534591
0,759197338890677
0,753750994391644
0,738082600236994
0,753000190082902
0,737330293947112
0,753600638642237
0,741194620375052
0,734461320619748
0,731375399743211
0,730673823056551
0,712294644124414
0,712098627561363
0,713091240391424
0,70743832516966
0,693591417604907
0,694353282793287
0,676349731291509
0,683605105481957
0,672018835729986
0,673311594842125
0,671883370872305
0,677088690985763
0,671210913633467
0,686556216532951
0,675309015153748
0,677664321860519
0,681305529966693
0,690122754068273
0,707379617149522
0,696192475454027
0,702404306666114
0,71540187765154
0,715073065510923
0,735715281996898
0,730143464963633
0,741748422325843
0,711559909533504
0,725595051398292
0,703488339754121
0,705342193934275
0,679905535545771
0,686421647241813
0,653440139904245
0,679031264966591
0,64963212858043
0,652562349827783
0,634837181043361
0,654911328857454
0,629377174172604
0,641768983612152
0,626790144031164
0,635964800229594
0,628577744456793
0,651837913411062
0,649313261320476
0,663737552370151
0,650491553196752
0,654639394482908
0,649545057601545
0,675045642473737
0,665847701979387
0,672184425497269
0,65297806224634
0,679059881800195
0,679854785208387
0,703202040013604
0,671616275511766
0,701136371114192
0,697853364149568
0,689495787424957
0,702468054461163
0,714169668637341
0,703079592186112
0,704555528307309
0,700428390657107
0,714204612260094
0,69765234095149
0,708486566435351
0,697944921248302
0,702123898598224
0,689385246500553
0,728988206050846
0,717365198369669
0,712782579365623
0,689867770575516
0,708583609478419
0,695991335901785
0,703278659117784
0,688248208233589
0,717639295807581
0,681539795859742
0,677106198989694
0,683672479020966
0,685668543533013
0,66771413810981
0,669008111469792
0,652598103477253
0,674219094004067
0,646245097416402
0,626555044443477
0,628044944585945
0,639595938074035
0,604691557988516
0,639646251030349
0,62347256887625
0,626981645109696
0,616135520142224
0,624139618921341
0,609735170617676
0,600213022296588
0,627379877376735
0,620056078674545
0,605497798453596
0,615299359931768
0,604405766731604
0,628368800636853
0,633908740405265
0,630260289843488
0,629320999502157
0,632459064154337
0,62131011177
0,632845408693899
0,611896001403918
0,630245740585133
0,629872536539116
0,652814024262253
0,643133005621666
0,639866619536758
0,640107717910422
0,665697901156207
0,653081556955507
0,694225923716181
0,652365005822852
0,709567675831991
0,67379024431972
0,720246667185633
0,713530451448325
0,704691235472406
0,708487067999709
0,770138667325355
0,736350761658013
0,777774497053078
0,73834641099783
0,792353095536219
0,774347794802931
0,868855952972104
0,792621138340395
0,850500801362146
0,817071707701699
0,925960514059299
0,81946019164224
0,860741517532317
0,88046875097297
1,0271039086522
0,914084437382051
0,90613454675876
0,865601641684487
0,965046874755491
0,883523960885194
0,915354251342757
0,919539810261208
0,959110127621937
0,924722282547891
0,930542895352538
0,947792912105711
0,960824967204718
0,893890953088128
0,993278699891789
0,929279005527942
1,06982521021076
0,953230138783693
1,0737468999436
0,993636623340845
0,995158723076644
0,92695192970089
1,10658923093564
0,965036722150561
1,03789723126247
0,903596873734322
0,952018219234099
0,878832580112744
1,03903382320948
0,98715304991029
0,962729938434137
0,90470695166368
0,951936457912849
0,92198799889914
0,968275221067674
0,897160872568241
0,948509176453304
0,839317827143613
1,01509301232836
0,821409766955928
0,934090033360001
0,876467567955984
0,940615397985754
0,919066508581234
0,919979427690475
0,820568619133004
0,974599046758243
0,861563871316006
0,990377810544244
0,928931092738642
0,983770862900832
0,850602860631794
0,890929276836142
0,791200949026924
1,01005646145828
0,894037322656416
1,0419411126305
0,90064554598003
0,970202458535849
0,82840836444467
0,895371545396504
0,934235030851024
0,997802337615612
0,910127172622312
0,911516115037956
0,845060469014457
1,06901136123376
0,94083321747974
1,15524183198175
0,975827495324961
1,07149330047745
0,948446348411761
1,02102890905238
1,01531471159666
1,27256741150023
0,975435180776032
1,25750120562046
1,17164927587033
1,10151629222058
0,874678298756484
1,00951623558077
1,32654995541253
1,33703941754767
0,945454602325381
1,08175532235876
0,990206079165748
1,34691532391799
1,20055415446484
1,82183282722513
1,18362539354964
1,31304884373661
0,991624631304918
1,03303325876618
0,845035984450168
1,18281057630918
1,25350030029843
1,2927315795332
1,0060014982814
1,58325255403989
1,22838763301214
1,23141398173017
1,08173065003897
1,16700027403907
0,980535173343507
5
1,43705679526981
2,6786057487977
0,904630808771993
5
1,12160585855876
1,30452389162888
0,946860392594983
1,17796297092795
0,904937847407201
1,19207393826332
5
1,99403063473859
1,00195230381545
1,58247026778167
0,936298849465912
1,01163492829532
1,09503678762143
3,69797716406516
0,971516425559067
0,965700498558111
0,726138981318414
2,57084140102405
1,13813765826859
1,13710023288974
1,69404258177516
1,7811330489831
0,652623029624786
5
5
5
5
0,865742401045474
5
5
0,844819628994256
5
1,24862108794784
1,01739577876481
1,05877126273227
