3596
4000,36533379555
650,420452594757
1
2
2
0,0229737619062917
0,0340523571779756
0,0328225565042139
0,0317097992730428
0,032872999688149
0,0335353421411312
0,0294202728458816
0,030074479428843
0,0285513490329407
0,0304495868033282
0,0223868758538518
0,0287934206935441
0,03567751080256
0,0354676750904417
0,0292280143430202
0,0248553526259093
0,0335124973134563
0,0348252163219237
0,0340024371080752
0,0333116984494825
0,0295382926767213
0,0262152078797648
0,0321505303986473
0,0426505312091206
0,0263705625057876
0,0291099834652328
0,0323282701075819
0,0312683547743693
0,0302439456864562
0,0351933890471431
0,0273989280687657
0,0282323958600534
0,034145115121103
0,0310498730824109
0,0273956326114868
0,0311216804393393
0,0312197687303193
0,0315215172887888
0,0289749133076631
0,0258957306624101
0,0210616567470801
0,0246965012591116
0,0302044170085019
0,0304100866890746
0,0300978854929886
0,0296375617277829
0,0339114943671108
0,0339450424482915
0,0223941150742871
0,0326763386456749
0,0340871731919226
0,0229563952160753
0,0294162458696281
0,0330125131723696
0,0227811420883782
0,0250389093626814
0,0263242322508191
0,0250876520583093
0,0273403119880747
0,0299445087833096
0,0270463343170106
0,0270548474925139
0,0250485093766034
0,0270201866246137
0,0275024013114843
0,0283668502005316
0,0208132899155999
0,0243916061049314
0,0235842638640594
0,0316350713655986
0,0245814369236555
0,0213962032965853
0,0361806841099858
0,0314319134891761
0,0257978213500055
0,0271111429546091
0,0238030151520577
0,0296507210348451
0,0233699973576233
0,0297234786642152
0,0298180815175024
0,0312201444238813
0,0249743137095814
0,0170888557111534
0,0339029843223068
0,037060105644695
0,0266235266978581
0,0243849445064812
0,0264447553894903
0,0263180899042358
0,0311922221732979
0,029782621621927
0,022687962174683
0,0263548271164705
0,0287780684909375
0,0300854922862894
0,0250537691448343
0,0258780574259147
0,0207893464249662
0,0174543973784673
0,015889839537226
0,00934735787581924
0,0320951392839272
0,0218863614992348
0,0296137918561045
0,0295053555212274
0,0266672251564475
0,034342257097936
0,0212454549831416
0,024213336323702
0,0279982032692103
0,0313071479636244
0,019413057875859
0,0258727287464884
0,0291506275016357
0,0324771086969158
0,0238589201265936
0,027244898741385
0,0303877073154785
0,0266198825815127
0,0205618915308528
0,0185740425847256
0,0244063228189285
0,0377507411192719
0,0304566856175356
0,0224523995414791
0,0320921326197235
0,018800077915775
0,0246762505018263
0,0219243357677529
0,0223289042903398
0,0287708050026537
0,0271569179390405
0,0248313907674606
0,021933032459558
0,0244768520179234
0,0188803776152744
0,0227064687838622
0,012495576689865
0,00642894533560433
0,0240921196356612
0,0183977342365307
0,0198416197776187
0,0309968272460147
0,024835097310738
0,0204637975615288
0,0179276316491767
0,0184016429190631
0,0248832618697332
0,0314764918004548
0,0346199888744813
0,0227456310065628
0,0290656027839694
0,0304453125934498
0,030064167611584
0,0234655741296181
0,0258725862252696
0,0157108157538095
0,0216610068551361
0,0252024285990281
0,016638182514621
0,0200215526665468
0,0117679494808228
0,0204144083504496
0,0281660701584253
0,018687138663879
0,0230249222053672
0,0246087000269616
0,0275261846551515
0,0241045907238547
0,0175759372578358
0,0180590591138047
0,0193276811394238
0,043024857402237
0,0177189166803089
0,0169872587363673
0,0283941267304287
0,0275227402847852
0,0252678526544112
0,0297680174620286
0,036966378419693
0,0256444677600983
0,0243102266787771
0,0232689405168483
0,0273169736093489
0,0302389900029851
0,0257353710112332
0,0243034617248038
0,0285431490628915
0,0231802961035847
0,0221531731444106
0,0246039898747102
0,0197554852944867
0,0249796826873082
0,0239065774406343
0,0293864136085369
0,026652606811078
0,0242347769498312
0,021551863277118
0,0160932017980441
0,0196766788624458
0,0136087509253113
0,0243242952565642
0,0269931718000315
0,0265250867493867
0,024684191690859
0,031316793124363
0,0328163418385185
0,0231160430324866
0,0193647075289106
0,025023019187944
0,0298935116092526
0,0284710512553347
0,0268865681849533
0,0225449715886759
0,0203692402498825
0,0241970359967919
0,0249266785942505
0,0297064513894048
0,0210542714353201
0,0166746539216288
0,0200583138272683
0,0308648448255335
0,0325621978485796
0,020709475996884
0,0262879906189286
0,0244010360673181
0,0287178133739837
0,0323852598889126
0,0212812063627192
0,0249128113769257
0,0243088734369029
0,029418386836762
0,0235494278999699
0,0311620665177939
0,028587712284078
0,0268184090743712
0,0257294323201504
0,0244056495743857
0,0197163322554139
0,0217992437332034
0,0233340419111624
0,0157504385610616
0,0279355505308158
0,0281499901839442
0,0251449563173086
0,0233354498518408
0,0229191067161992
0,0224484133622195
0,0188201865120232
0,0275433686514789
0,0252586523710868
0,020987402806781
0,0259224993642328
0,0259982593319468
0,0229228396803477
0,0132733326727924
0,0276475691516825
0,0240724424941851
0,0216548760998529
0,0167266813715322
0,0330666849570352
0,0251467894044893
0,0259633740155991
0,0214322745994226
0,0172834215445061
0,0165416053625968
0,0205713005528416
0,0270409253819314
0,030173216362181
0,0179731485644656
0,0262479890650817
0,00465333856011575
0,0222965726164203
0,0297456984713744
0,0258317524071881
0,022392747229146
0,0325408060339674
0,028504610827326
0,0206800322844144
0,0276955444524034
0,0327397085386232
0,0205009694239755
0,0194225127043147
0,0309592397820218
0,0285599006571278
0,0201226599070717
0,028864010615553
0,0273054858287108
0,0225056031919452
0,0243855204956173
0,0157272587030339
0,0226217588957627
0,0311614141583245
0,0281725368771135
0,0285576233177525
0,025463093090815
0,020900273188576
0,0253179228599463
0,0277292250789375
0,0241645751078731
0,0267841539597951
0,0231847750149463
0,0288290479897189
0,0240205861302435
0,022533892581427
0,0285135452141337
0,0209822558293043
0,0147996844789511
0,0307188690993234
0,037154655267835
0,0282655069285304
0,0261017093731096
0,0287066211866746
0,0277717007245878
0,0275097987849141
0,0237983182378562
0,0249783191133454
0,0255151191257628
0,028768160229839
0,0285061548817333
0,0281229059606905
0,0315081932495689
0,03106808646598
0,0278902451545696
0,0345266648559987
0,0251696090169155
0,0348551709214654
0,0241054411297326
0,0280319335621092
0,0344709602820802
0,0306431517271653
0,0304658065630899
0,0270264984549075
0,0362641674523916
0,030413221951557
0,0319567020789061
0,0334499009204693
0,0332233756151158
0,0279424829686587
0,0454084407974706
0,0283415021701453
0,0263670084530285
0,0323703779921819
0,0296496262901701
0,0340570734518974
0,035226652905161
0,0241737436120324
0,039026193193177
0,0249291408421164
0,0307626892451541
0,0364897259357418
0,0447700431398686
0,0396700975124264
0,046103709863355
0,0389298837474174
0,038838237828866
0,0429383693150254
0,0443967025600815
0,0434619896244232
0,0422125341816096
0,0412353490205566
0,0426373568985746
0,0442432291902085
0,0411510230245258
0,0470717842023121
0,0485408102956236
0,0482412203766518
0,0456314879761195
0,0504377451600542
0,044732571709565
0,0495631132869807
0,0566614325663099
0,0669114614131728
0,0555104353329666
0,0604099670140889
0,0568766896531806
0,0580293075585501
0,0577499466790767
0,0527971269390457
0,045201243918955
0,0537264392339597
0,0559723290432957
0,0534117301985204
0,0591593413179252
0,0623542923852425
0,0647972627138296
0,0627703188358559
0,0612969416193649
0,0709381158417173
0,0687617362681317
0,06983920018467
0,0767619524904285
0,0773444339834485
0,0742351841201291
0,0727088839712159
0,0912063923830016
0,093602879306871
0,083171202275368
0,0733892640916548
0,0853847052782193
0,0889336982281914
0,0880033468503025
0,0849716802108293
0,086530576042095
0,0827183509620017
0,0941957972936216
0,0963773940228055
0,0933060127777335
0,0827746509757695
0,0874078328469386
0,104954119090202
0,100110392332423
0,0980607997462676
0,096360536582858
0,107444368219466
0,107822328820877
0,11301714093236
0,109899478329429
0,115059322652754
0,109361821663751
0,116981812331014
0,116640621554116
0,117479837028999
0,123106545524186
0,121706771414852
0,116491928573435
0,130918354265882
0,123625525083577
0,138053302605587
0,129262444202205
0,134377181539752
0,14368136826763
0,148366907427519
0,143493440478312
0,14879537322191
0,149038341947899
0,151704378476618
0,142872445760934
0,153767176561741
0,158316783120787
0,152659312761123
0,170197079280342
0,14052007818716
0,157239345805631
0,147985780954205
0,171145170056216
0,164364455058871
0,17513355373628
0,177572368565609
0,181563647830075
0,185223913390793
0,180507873428006
0,181939830662879
0,191261720122991
0,188194671153669
0,183160336139509
0,199228856579032
0,18206300154863
0,195180033730234
0,196508386066069
0,195306498023029
0,228548862235541
0,190438239786888
0,212285320535791
0,193620489726852
0,231232635734787
0,212298388369052
0,229852955163476
0,217744079160338
0,227684878224934
0,218277003588342
0,245019510216233
0,243153431918032
0,246750833554775
0,246375895465744
0,2685417487112
0,254847147223977
0,255681874549373
0,260870787869747
0,267192979539043
0,247782021177898
0,257861386012584
0,263462887376954
0,26836519632572
0,266319579230471
0,290897759536198
0,269897196344367
0,284455135233954
0,284229764702169
0,304846262709701
0,284186818842895
0,291211665024164
0,293199265497234
0,297225927818608
0,296967780159424
0,315926352813686
0,290969684361485
0,307982550821143
0,334749058068353
0,324153720256494
0,321520444132132
0,329914742886116
0,333202271847252
0,332846521682765
0,342668946845072
0,335917548656316
0,347985845230519
0,342867749555357
0,325113116563629
0,37394320107208
0,367666553906778
0,378649347525199
0,380597467821641
0,379528821003678
0,353590208718937
0,382414471608764
0,353255364894939
0,400653518918683
0,370986217204791
0,38374979384062
0,389598046014151
0,423587862761155
0,393903136276458
0,431089999907211
0,397366445339805
0,400587182368512
0,392430560928992
0,430553991439844
0,423999007754713
0,435490194483814
0,403454965383025
0,440022643449079
0,41777658288037
0,445213369073602
0,427843468256562
0,459439159807168
0,442196791445173
0,480117129833041
0,464914081011943
0,477097541802539
0,463339546795959
0,498750738355573
0,441576584945469
0,501592027478078
0,475509963800786
0,491692595605323
0,479020859975209
0,506398560108589
0,477400060670771
0,527208120196353
0,507363111995799
0,521492062195251
0,511751394277819
0,495621681053886
0,518644428486005
0,535331122249708
0,504690818363726
0,540689170747806
0,523553472346255
0,530633357500191
0,524312448628662
0,572391371499468
0,518356080760915
0,549512878532323
0,542746116786671
0,62394972680527
0,541354115188025
0,553436824477255
0,549476645908321
0,605784589946741
0,56492006451824
0,613437355421001
0,557167735332237
0,589576286891781
0,587054150169112
0,609928700668302
0,591803960904671
0,620259086005977
0,613435755063955
0,6166656594272
0,599878516618952
0,604056925754288
0,616073807091253
0,650330091161336
0,626347286956869
0,634281383938234
0,633695972300772
0,635832194244983
0,630396268242486
0,653283474368758
0,598127848943345
0,659204858637823
0,642543249195979
0,675709013610897
0,666733051943474
0,669105846297786
0,657143288985185
0,707297143010749
0,647470873878854
0,685823364214719
0,637831664830735
0,675764146490789
0,657880947698083
0,717685209901389
0,663361852151997
0,70017890027576
0,721026026705056
0,715987336612762
0,671569941320535
0,686841238056196
0,686186956852259
0,729808245740801
0,711646270550592
0,772527434918726
0,697070286112332
0,74193664454902
0,721863028972054
0,791545571556865
0,714760829939432
0,729704895742126
0,68163051726156
0,752192086361803
0,76626048808748
0,785532531697179
0,732171367319545
0,753852290559145
0,731439564108909
0,804058713607702
0,744984406482399
0,787882381916285
0,72189447784267
0,765978157640554
0,73074796481323
0,802536466383386
0,781158606661697
0,784753430782283
0,785541305810399
0,816244744539265
0,719425031079174
0,805625565215708
0,749936644218276
0,833119587057026
0,769224311098065
0,858337656354425
0,812458263174922
0,794956806709112
0,773376539700826
0,809687100752427
0,784694208164381
0,827896353248445
0,80259969734859
0,822631450093064
0,803503456534144
0,829617055096594
0,804979942506416
0,865735369732611
0,823007148396482
0,922973010534813
0,785388032873437
0,901316185055163
0,835279171541534
0,881042243908972
0,813842699427881
0,886702643097194
0,79918910516603
0,867760022003012
0,826258396479751
0,860033005725781
0,825292894458299
0,911791025645633
0,824233196008172
0,88757721385531
0,809669125205735
0,859417955058593
0,849027891051703
0,866225794263638
0,829224845611823
0,911651783421847
0,827997224634619
0,902385990816715
0,858169844760393
0,877308839501598
0,889678555155887
0,934356188076403
0,878257544335358
0,852374668793074
0,865009032268642
0,917918708067764
0,887560857280705
0,875649767783645
0,860440638535735
0,928756687991741
0,856227800598208
0,897571841471519
0,850500613097629
0,89173412848015
0,850898205821163
0,930009581154982
0,892235413878634
0,924171593141801
0,885126115106875
0,910654093439316
0,864038822758686
0,923579699617586
0,895228203608694
0,931276414597287
0,858160774741188
0,900209873788102
0,875424046450534
0,884967184652077
0,934655357514518
0,956936016879392
0,923295876626224
0,926213132430954
0,871061338360345
0,894054740529781
0,869693009000146
0,880220427161099
0,851811288560239
0,942725072632773
0,89205480645244
0,903909719835881
0,862613721918921
0,899786254939782
0,878786289344613
0,919166532330512
0,905598973752249
0,955105865292936
0,897625826967176
0,951692625888147
0,879649261455527
0,923144623972111
0,876929358841087
0,91171056524051
0,883916388599405
0,909638314785274
0,883458441770628
0,917466705103885
0,856475780461103
0,909222038898917
0,914000855166139
0,935391134966728
0,879752345512418
0,900561818697094
0,890768486456716
0,920829966742024
0,883249080853677
0,914841082630414
0,849625950173738
0,9111417545177
0,907254881975486
0,909294900973111
0,882093481130118
0,900117879357705
0,86595595057782
0,92612253251447
0,863032019765612
0,891622414287479
0,882604019276362
0,915815336129591
0,880573975912195
0,915917450082071
0,883774731192544
0,912306445357071
0,894603541997506
0,917248160443917
0,878932801978275
0,904456748561632
0,86752724741097
0,903240042688896
0,865928941874529
0,890712960022537
0,882309525486105
0,899601984795701
0,870810136211702
0,88007409089751
0,868795755035478
0,903638271558965
0,838425124220671
0,886962067366822
0,856206059691951
0,897227550631795
0,87495492976318
0,879307931912674
0,849223517039983
0,872317651872287
0,845067062810882
0,890748129976709
0,855783677468998
0,890357718454176
0,844117042319322
0,87729788585112
0,868957331276771
0,87554023321928
0,860457619420944
0,865276817284601
0,834602115737737
0,867475241581976
0,833144674583096
0,858269427444539
0,848281080230862
0,85151509069265
0,843780031847975
0,847978004884199
0,797743081243819
0,815178914934503
0,806573219784498
0,8453380816785
0,828051240201424
0,830366906378106
0,816529708698734
0,843506163498066
0,822788141332104
0,842577899131118
0,810015777190628
0,821874769687434
0,796999436393412
0,819352416961153
0,800568599257512
0,802046407121287
0,797670925888101
0,827656191621731
0,805653605637459
0,789142785537018
0,773998638163281
0,801215492067913
0,782680757039379
0,782441284035573
0,776321791419584
0,810842166908493
0,762133204501301
0,798644465042238
0,784569104813648
0,795986180536204
0,766106694776735
0,76842079562822
0,745320935661799
0,768516099427904
0,757625119391413
0,777956094770304
0,754152740233834
0,775239215629944
0,758864390572287
0,767503439312313
0,741418408201979
0,749954389028335
0,731546355315845
0,733563636545147
0,72701954087694
0,743293193134395
0,721360169800053
0,734851979927971
0,70955310564091
0,72168109358108
0,728178569085259
0,734679046797107
0,719493487959074
0,717735041953736
0,703474256697099
0,725716533930841
0,706301981008241
0,707612160492763
0,695138074717107
0,713680003577388
0,690232699625757
0,696918256092694
0,68041214757068
0,687532372806174
0,660045616194687
0,675411815225392
0,679953896211632
0,691087698289004
0,674091969002967
0,659525605526772
0,657716598317498
0,670320092688506
0,653139572922436
0,676566045313965
0,658690818735975
0,63431430165887
0,623732147842717
0,633212863707434
0,640370833763666
0,632704280725366
0,610765391534078
0,625187065467269
0,628265681297622
0,628166875169336
0,616426556669774
0,613547313772879
0,606199284897547
0,622807821630394
0,611088957081674
0,61325496748406
0,606674479534306
0,590662759902418
0,588503230602106
0,604397580771949
0,596697186844038
0,582439426330465
0,582352202313698
0,589455069515027
0,574680838656171
0,580389721266036
0,575306975706978
0,583281004080412
0,570980003070531
0,56315723842809
0,568530447780862
0,562278339936278
0,556353692083678
0,559252005791645
0,555845368255912
0,548207586226267
0,538245347864884
0,544356037910919
0,531361301423562
0,53045508144997
0,53142754532003
0,527211928410533
0,52687971998147
0,519438924232827
0,516771300700029
0,530108890004154
0,520176307178269
0,517285121229685
0,513031253564728
0,511800824372533
0,502323599145956
0,498177759715123
0,512326794612548
0,503171530300737
0,482246084869712
0,483536205748029
0,479966955109793
0,477166783975502
0,480993537290176
0,476379433645854
0,477769712204391
0,472554009524076
0,46446106521699
0,474843975097624
0,470846856894496
0,456135981486695
0,455295640889249
0,456135833209737
0,451279570993425
0,455763567649234
0,450269067358561
0,448741657866384
0,449791378426361
0,445432434040126
0,446073915295105
0,434994653605864
0,425091652496765
0,435991819221338
0,431625123241005
0,430484094312641
0,432767432888777
0,420277755964895
0,419161315968843
0,43002022718704
0,414807385486299
0,40951387365917
0,40790293893792
0,405563279661344
0,405769666412499
0,400251065885859
0,397883634524808
0,39704370942366
0,396717063708335
0,395781717948601
0,389869182884367
0,38486459912106
0,385556039205077
0,388895904811216
0,375627032127303
0,384292519374594
0,381094232642553
0,374384768168655
0,373302334663669
0,368487302588117
0,369676399137913
0,362430857054798
0,365493245822778
0,358392439433622
0,362829400442825
0,362615522612033
0,359806007734004
0,360821212025236
0,352966319767938
0,352580854487377
0,353922179934951
0,349133723947705
0,348263051475451
0,346996613319104
0,344701781280074
0,346045298261215
0,335244116403791
0,335947001296302
0,338680387437056
0,332371120494357
0,329203627771933
0,323855205844317
0,327771202354915
0,32371241483919
0,320591396054877
0,316191071660903
0,313822016949509
0,319819751723251
0,312182936676011
0,316602818755489
0,31544811729101
0,306601242612274
0,309124262779147
0,308184247506567
0,305221366351916
0,299244352072744
0,301827728887181
0,303941747616621
0,295603171469543
0,291766869747175
0,294290993884265
0,291016435165817
0,287736960314799
0,286267545201013
0,289926408003634
0,284820616897999
0,286483882468752
0,286045035878614
0,280709303339878
0,282570621466798
0,281577888781074
0,275275727580116
0,271074742120533
0,276592403887442
0,27500562162847
0,265767732030948
0,267958003725768
0,267030740211703
0,266251449905847
0,262026388080747
0,261034312513826
0,261265598593871
0,261445057898582
0,254292966471927
0,258858564677173
0,259435062652811
0,250584682772926
0,250045741966556
0,249834335814963
0,253088166877708
0,247139405497319
0,244159387068711
0,247775386890535
0,251006128828882
0,249321132711598
0,241952253043815
0,244948608661251
0,240515160634356
0,242893222415565
0,240619237017065
0,236369324689082
0,239490256432684
0,234904298625474
0,2337294042834
0,230966766790172
0,22978226290812
0,234962517414667
0,236061900354028
0,229295580409909
0,225422959833618
0,229786248322521
0,226661567026606
0,230459390560086
0,230029371935117
0,232585416347668
0,237603090818068
0,234492065081997
0,234199021061365
0,236284627962246
0,230391643356659
0,23098276789876
0,23207680031658
0,231265186016391
0,22896584031416
0,233232892863818
0,232094383041892
0,232593357075038
0,2326814664086
0,235688384763316
0,238591253150195
0,239614637568185
0,240381120159649
0,241339749201201
0,245782736610548
0,245660318110318
0,240341079500667
0,246544654479102
0,249989145397874
0,251279928373335
0,258122418454886
0,256201131752074
0,254609721706437
0,259637694522929
0,257946508099412
0,254451103250318
0,258436356486602
0,263195858183783
0,261126845449309
0,269076873877306
0,270676502977692
0,272470046653897
0,272637765946267
0,269951465980471
0,271136835575385
0,27566142438701
0,275273372961128
0,28278332392693
0,288330821805671
0,288667662998101
0,282100647922251
0,287508002784186
0,289023956177831
0,294344909050147
0,289633093443352
0,298829599783644
0,302043621865238
0,308785682685966
0,309867495178924
0,314224997693143
0,311941925023934
0,314863428312057
0,320882109700797
0,328623340033643
0,32154641764725
0,331815288261437
0,325749268399141
0,339091416533596
0,332855561518599
0,340384365640032
0,339265394229583
0,340424985762877
0,343093488167513
0,341334302786529
0,346330902957931
0,349752744846674
0,345692326989406
0,356946719385605
0,352073755792248
0,352879994766199
0,347563226918264
0,345718321856352
0,348331124122922
0,355062164513469
0,351830100103955
0,349424242675833
0,350534833937886
0,360340733598953
0,351249970887418
0,351738380383357
0,354069656721533
0,349576676745602
0,351411437239536
0,35494054288346
0,345716138927129
0,339071863517017
0,346376393362189
0,354602057832563
0,349112304577515
0,348172264850874
0,343098415304271
0,356266017746278
0,349334308159106
0,350188007680575
0,352818206061388
0,352563128771765
0,345473559255523
0,347632986726412
0,343589249941095
0,353607432371394
0,342310001175596
0,346355554898203
0,347576727806463
0,352013483018915
0,352017517291203
0,354514638638331
0,346847757434238
0,353988087553624
0,353989422462858
0,350539328103615
0,350652717580774
0,355227326611095
0,344051683388735
0,34584461165609
0,346210648418043
0,34456848460708
0,345938963900426
0,345111759129745
0,349411702370504
0,346848131430642
0,3406291053154
0,34519699598106
0,331805609747233
0,335829508085848
0,341711386125185
0,341340746945014
0,330948686003613
0,328742026032051
0,326955834026771
0,328857381793793
0,322573124339505
0,324286274040189
0,321438933862918
0,321058006264748
0,318198500107809
0,323039460949471
0,311766785582266
0,314662608561223
0,304869761951012
0,302269364456043
0,300258271244704
0,305883460102698
0,298845378999491
0,288726848332808
0,290665635813575
0,287047937525832
0,289760198046782
0,286548886606421
0,281833515404628
0,282693234822763
0,275938622018641
0,273574916062998
0,27071765604893
0,268392503279142
0,257978794689323
0,265791534641709
0,259156536315037
0,257655632296259
0,255923135969508
0,259217937091291
0,253707762628802
0,252491432935475
0,245065569109947
0,248980293562371
0,2421253990923
0,246218683567395
0,237818134498985
0,234577524951328
0,236677865404787
0,234321083685299
0,230053105841434
0,233226901308425
0,23056530599058
0,228725249891
0,22586721327343
0,227101323318958
0,224805917016584
0,223996049412076
0,219673033351071
0,228846211129026
0,213039103870302
0,210859336072492
0,213951890630788
0,214584306225034
0,21156793419048
0,209191811431585
0,205724430843892
0,21184456134987
0,20940292668146
0,209806204783412
0,204454746613587
0,198811995657089
0,200649263167634
0,205485000062936
0,202483349034776
0,203076654251341
0,200894764758804
0,198732032694816
0,198704111411021
0,198750261587123
0,193277843136824
0,192338146579271
0,190129525332229
0,196590848453243
0,192201320106452
0,188983795836792
0,189254435828943
0,189955879096234
0,18583906491574
0,192250772872469
0,186792396142976
0,191965493706246
0,181058399063069
0,184804667499711
0,189159912282488
0,180825355645361
0,178072390926738
0,185653349822641
0,179074398893171
0,182890941897473
0,17977810436027
0,17980136734531
0,178041150125631
0,181755027324175
0,174414422847635
0,177408094448866
0,175649365005631
0,179267064149106
0,170747081396397
0,174761745762984
0,173719206996575
0,175762752807233
0,171209012922263
0,172777324445496
0,16698766030986
0,168075402954679
0,168115017688603
0,170123697662662
0,166945670244646
0,166699398009769
0,16500657063146
0,170317190698453
0,167224235728997
0,166610037903757
0,160269402067464
0,162218411049647
0,161805877309305
0,164540498688528
0,162959375939764
0,168121500951536
0,159692506987071
0,167555134064532
0,160926438335901
0,160757375135548
0,164403899235927
0,15708326863208
0,156011028625212
0,160538318810085
0,157039624227976
0,16159332821775
0,153877112598071
0,1571583821323
0,154031249907678
0,158879547078818
0,154404505657918
0,158670158623001
0,152010783931977
0,154874331188496
0,154262276955942
0,156407542612585
0,155963600632844
0,158378025815802
0,156688543802847
0,156715871480794
0,149841355474921
0,15854882525879
0,154506911250331
0,152302592319452
0,147241606763349
0,153737378705255
0,151132476627324
0,153153813093154
0,150087531689856
0,151712057064674
0,150864675071734
0,153612522490274
0,149403094104401
0,147752209838171
0,148071113611831
0,148307805294452
0,146240505964881
0,149022427171159
0,152021475067978
0,148725486642504
0,148667196880888
0,147383214532217
0,145746184872016
0,148321857321095
0,143370187531461
0,146168197287483
0,144856043659158
0,146480444683239
0,147075001883163
0,147726606435416
0,143142408651483
0,142034800870815
0,144861598769717
0,139121426465611
0,142960454120519
0,143299024206048
0,140616847557455
0,143997148828301
0,13849585079175
0,142463349692653
0,137983132744473
0,141542121453335
0,141368973586175
0,137489790117772
0,138022121864631
0,135614351650136
0,135990745599002
0,139205364878699
0,133718249799509
0,136202128363235
0,132821495924411
0,139130503936358
0,135127186130831
0,131634564055409
0,137403850814887
0,132745679101901
0,135601318317523
0,135256287139438
0,133070347476982
0,139295946302024
0,132643538511296
0,134302288579276
0,128934198641669
0,131373143633692
0,1298467797206
0,126974229928852
0,127044667624737
0,129871297925204
0,128470819174601
0,125596228946555
0,130313211203196
0,127361325236248
0,123534619764264
0,125310048698606
0,12228184415517
0,125798896788828
0,12081255550579
0,123897751468803
0,119749425134283
0,121755411373128
0,120292759242316
0,121965223822122
0,120925185673372
0,11463018503901
0,121906100841929
0,119455811701881
0,120671150169338
0,120334871912304
0,115298573886021
0,113861890861393
0,11704859013829
0,113104385531536
0,116719888683254
0,115660094093513
0,114313108329532
0,114119420866086
0,113923760188694
0,11490194677382
0,116006622719052
0,113845105275533
0,113790119836022
0,112401883282647
0,108651437107355
0,112410931665643
0,110087379980207
0,10735698885204
0,105321357416558
0,106808281831645
0,10747808898676
0,107278385298843
0,105437390263883
0,103965514860603
0,105815668955106
0,105805123753754
0,103861462326445
0,103000909424203
0,103915306615297
0,101895236410052
0,100321580104936
0,0967647626390156
0,0988283256535857
0,102850425944766
0,101803541265498
0,101269558191268
0,0988822787267633
0,101243912484601
0,10026755801788
0,100154576629651
0,0981213052181336
0,0941956847056017
0,0973277476595789
0,0940346312327498
0,0961239823286851
0,0927582668504073
0,0963811798990969
0,0958002254358438
0,0903865130109443
0,0978715589559706
0,0927684039317592
0,0892420788805664
0,0948454684630657
0,0900854220899891
0,0932410779855167
0,0949058009179477
0,0902488156274149
0,0878713576325723
0,0891460806267187
0,0915154204922697
0,0906179070028635
0,088328230080664
0,0852067446766575
0,0907560890415797
0,084736012720343
0,0883220830773825
0,0866001908810396
0,0882038396003728
0,088849816603016
0,0876604460740196
0,0861282175941883
0,0872813237338712
0,0853992058334834
0,0853227495478284
0,0879768794473658
0,085188207839127
0,0834109753959116
0,0880657026288468
0,0824069680303175
0,0853603671874201
0,082520373525595
0,0804269366309059
0,0834504167473334
0,0821886913905012
0,0829660631950979
0,0831357659858369
0,084262522475296
0,0834080469624613
0,0834699248966444
0,0819013878689355
0,0811565974013473
0,0832037736550325
0,0810968521435917
0,0834392275962715
0,0801383525296755
0,0771618466122029
0,079701790117909
0,0799015935272172
0,0808972167361494
0,0783436475696396
0,0800918626180469
0,0796887078857361
0,0800980577259216
0,0783301970811429
0,0772248302511003
0,0832870650341153
0,0786147531423194
0,0755302790891766
0,0771853258320955
0,0790639713701983
0,0795845133949739
0,0789032963875199
0,0746269212615303
0,0769404697745019
0,0795750331566276
0,0770729524993294
0,0762191352125075
0,0792148953182707
0,0768068892403372
0,0763189237368991
0,0765685920098597
0,0759807309593775
0,0747009730578423
0,0778869037245925
0,0753023987861163
0,0768898238167062
0,074175823156333
0,0747554046709531
0,073229303946625
0,0736973559660449
0,0736123825779653
0,0749668302355865
0,0746846107757031
0,0732435150805037
0,0772244653831026
0,0733943054403386
0,0748637630287248
0,0745163414742774
0,0717342966398015
0,0735799327771546
0,0728229702154486
0,0721696482189281
0,072180478293204
0,0720400959357995
0,070228752851982
0,0702357545579166
0,072578019180092
0,0712838869824745
0,0695038236023357
0,0723550983059895
0,0711802942866892
0,0723732612915745
0,0703161341273405
0,0700610092357342
0,0693581035891387
0,0706343529928142
0,0716978509738624
0,0713045346571711
0,0670699715500724
0,069133612915848
0,067512967769418
0,0694149024543808
0,0680441865557131
0,0692088144774719
0,0668859587742176
0,0669064782567417
0,0641559624456344
0,0641097932308113
0,0655318877996273
0,0676893662125785
0,0670273896599108
0,0676031874033814
0,0695526792222959
0,0698624884118295
0,066532896798921
0,0660779236880144
0,0685414375527698
0,062800550686433
0,0647370854757149
0,0665543776052066
0,0691138003932765
0,0656223482157151
0,0633093855112366
0,0619175908785136
0,0653611186210231
0,0654594951103294
0,061395517867535
0,06288866783043
0,0622883562561398
0,0661092972806223
0,0627805471053645
0,0615678312071466
0,0621537954343117
0,0631691697332428
0,0603975722560713
0,0623525405253629
0,0619258786695185
0,0593808070940297
0,0604106135938726
0,0620203219183504
0,0582735892072158
0,0607716541918406
0,059824608750344
0,0606270346822727
0,058386976357861
0,0602293268997434
0,0603614425707472
0,0602375883614648
0,0569722376758973
0,0591612926898058
0,0572361108766635
0,0574456650047379
0,0574401219547205
0,0600592284813545
0,054925314198991
0,0557826597430872
0,0569418477361544
0,0567704865122412
0,0551866363815219
0,0561067776560021
0,0572934242918415
0,0563969691454226
0,05344754040728
0,0557119796726617
0,051143037217226
0,0561529105372602
0,0526869263503262
0,0548701572346743
0,0518020678704369
0,0523438093742889
0,0527101725659432
0,0519533123043564
0,0529531010569707
0,0489831630370592
0,0503943400891573
0,0528369722079894
0,0510431596999424
0,0519743320916184
0,050211273647505
0,0491293680041954
0,0502506408476595
0,0503791155121978
0,0506526221342968
0,0502204750272234
0,0518845226098971
0,0532684739196986
0,0495506133524533
0,0501095372189356
0,0497523164395365
0,0508772348892095
0,0501631982855106
0,0486895715111712
0,0468348059244865
0,0456162528898193
0,0459437219972647
0,0472560612280124
0,0458736647688779
0,047275340925052
0,048442250103996
0,0477097379967585
0,047162402312354
0,0459095949963685
0,0449702663172597
0,0454686265774955
0,0452935213691894
0,0472129824776345
0,0463736524367321
0,0432991212021062
0,044079613647551
0,0464483453595606
0,0466523960265875
0,0430575481366665
0,0445817486449882
0,0468195940941657
0,0440752898766432
0,0428072862478215
0,046052974793514
0,0448901400407496
0,0423278784760059
0,0425757744855912
0,0446251815654628
0,0434110506056955
0,0429752341818947
0,0446488516681107
0,0442438084158767
0,0437934841385361
0,0419822264953711
0,0434300412136242
0,0429920557712452
0,0441815889440918
0,0452066031003863
0,0445585839512752
0,0446693192984539
0,044019085107922
0,0424390414881664
0,0437364004420748
0,0448898727616782
0,0449974965807849
0,0413749241177198
0,0432004527056627
0,044829328822373
0,0463041553214333
0,0441404285875771
0,044563496738311
0,0474432032933843
0,0464689157518746
0,046385781628652
0,0490876810155337
0,0481929494368925
0,0463280717014499
0,0424241890802389
0,0454651654523719
0,0431218032569267
0,0431949693728633
0,0465850170645318
0,0480953562334435
0,0473597740559605
0,0518990653678475
0,0454682022444277
0,0449975302324118
0,0438356637776927
0,0451713035160542
0,0432294531010526
0,0438704438749144
0,0449117420991837
0,0439354966757335
0,0419018814349995
0,0407229414487649
0,0395195513943923
0,0409560652156769
0,0424060483933893
0,0449578270588324
0,0407162001508541
0,0443906870858037
0,0438720864360351
0,0447228100255474
0,0424865522042326
0,0470616883997541
0,0445203833943462
0,047237667304411
0,0430430549367665
0,0464654468725779
0,0438537355734386
0,0450763025100127
0,0435710830371329
0,0447084573940958
0,039370495184678
0,0448046059605278
0,0387867434298218
0,0412139180754109
0,0382472307885476
0,0421960723604875
0,040449407824468
0,041618251631357
0,0405532625071969
0,0444917482072343
0,0410897951211435
0,0388932545702851
0,0402056765614629
0,0404156216192873
0,0424182691008082
0,0408533225297609
0,0404777827705083
0,0359902389961146
0,0418418558848503
0,0360310268268685
0,0387431451886024
0,0379949302813253
0,0391417699956756
0,0366934195064959
0,0398180369428826
0,0364825057955381
0,0377709740510969
0,0374204412040371
0,0355183584403705
0,037373155740045
0,0348709480758118
0,035852025503239
0,037310476632773
0,0364549606001448
0,038159771837742
0,0372885606787717
0,0374095280277459
0,0354798363742706
0,0348886761778109
0,0332054082896693
0,0367963982512604
0,039110234780738
0,0366738363137657
0,0331246118134831
0,0345235522659887
0,0340766665206569
0,0361989561184981
0,0359133422949648
0,0339941513516866
0,0345434499467616
0,0375021694331276
0,0377611396800125
0,0350489225111231
0,0339042406337942
0,0361504697181543
0,0373481229645906
0,0362002482248345
0,0333690623943873
0,0350866149500915
0,0346613184090654
0,0352239509357663
0,0348446123411932
0,0352020147187218
0,0351654862570039
0,0355955667004603
0,0337065459647066
0,0344151476511282
0,0337238259315512
0,0319325254219897
0,0362928005773069
0,0360674583692185
0,0339290397739873
0,0354692037811795
0,0338749281726838
0,0338954619299748
0,0368366645984642
0,0354592088227862
0,0359398154139539
0,035293132566589
0,0323252185800997
0,0342913592167458
0,0340158037390155
0,0327991554922977
0,0354602469225171
0,0357613327060915
0,0328459896600066
0,0339069936504804
0,0347289682564966
0,0358259580063615
0,0340451941987408
0,034786402898892
0,0351363879403927
0,0347051478131472
0,0343212501505023
0,0340309036343911
0,0342661919710241
0,0342657580963654
0,0357528585561066
0,0356516934861492
0,0354092800405348
0,0338012732832162
0,0350512580319592
0,0344558673672265
0,0335674403973591
0,0328718781537577
0,0322728913867549
0,0354682177425284
0,0357309520638341
0,0349867233464934
0,0349155787558697
0,0354624776341108
0,0357219516913866
0,0344754366199542
0,0349781588401448
0,0336654604341902
0,0338292114511547
0,035426041595728
0,0353800690855404
0,0331705087234232
0,0347965260294507
0,0355142557828911
0,0342067081914628
0,0355964614258099
0,035713674899863
0,0348170681049827
0,0360960277107432
0,0339110911802577
0,0339530286991585
0,0355460973270592
0,03411137512929
0,0363080233057816
0,034304058985491
0,0348338197234499
0,0350644110960539
0,0349680300465124
0,0356407755405545
0,0354349012000262
0,0360970716948787
0,0354726997930705
0,0357838186218908
0,0373269328547165
0,0379396484463295
0,0359077419362313
0,0362071866262991
0,0368475660269815
0,0367513004700053
0,0363824957494153
0,0330941854496088
0,0325614871474423
0,0359735522073038
0,0373116300510129
0,0349521296132709
0,0358030121383497
0,0356870272952381
0,0328607919658168
0,033871983120506
0,0349228349931466
0,0361830336302753
0,0365585105441332
0,0357012456649443
0,0367936586386743
0,0371947564272196
0,0383279520355251
0,0384928507260255
0,0368784822659674
0,0386679761992075
0,0369267834278921
0,035372941809698
0,0368246675322313
0,0363977192664644
0,0353285966680786
0,0371391403659797
0,035462217996307
0,0376075958317469
0,0372075732051146
0,0351284247197773
0,0369969970380657
0,036767645117222
0,0371481402532899
0,0363367797282392
0,0362291982174492
0,0380788194618379
0,0373425525378001
0,0377305917619309
0,0368842811443797
0,0373248887926504
0,0369613203448083
0,0376303483346909
0,0386574283288085
0,0373656840973553
0,0378751133249099
0,0379531404833255
0,034104759717427
0,0372341722944569
0,0392424173734032
0,0373346266928207
0,0383397569563393
0,0386816583651246
0,0378940896368827
0,0368003441042813
0,0371942749148523
0,0365172938485767
0,0376120154910424
0,037663605490905
0,0370334127822254
0,0372247862105783
0,0352244555754219
0,0349760722787747
0,0372497607889165
0,0366235524056675
0,0357950913694072
0,0351576300062949
0,0353298006609534
0,0356406633095246
0,0373295006313369
0,0361666070713063
0,0342215219212966
0,0357675751785341
0,0366528142986642
0,0345724886088199
0,0371217162474574
0,0361983588248605
0,0359814098931682
0,0359008298799221
0,0350379663671147
0,0370529976990624
0,0361834670560597
0,0349442188746969
0,0351776137813604
0,034461936321078
0,0356913602274993
0,0350318886568044
0,0352971090996624
0,0358756355037017
0,0359874991236242
0,0344089339728838
0,0350181753979793
0,035369975143025
0,0349015722082614
0,0370558240309544
0,0333854015098995
0,0344240468613428
0,0345965779986469
0,0343024555866453
0,0333112985095372
0,033814554692235
0,035695208403152
0,0351492422804493
0,0347500879218416
0,0349356367220833
0,035395820259603
0,0353939890967656
0,0355246903574024
0,0350400677948189
0,0326619093975941
0,0342577095891357
0,0338606251689032
0,0321619381521259
0,0323114692892935
0,0336679107286116
0,0340427716293639
0,0336556690425606
0,0336921180838126
0,0332270408671293
0,0339995786827183
0,0342399937724729
0,0325709441825293
0,0354824080546035
0,0349944091245644
0,0319977294936941
0,0341574310501196
0,0333253196131471
0,0356685123921447
0,0361394518113123
0,0349956707747456
0,0333331179736647
0,0327207267958759
0,0348503644779263
0,0337988768279615
0,0329836131764086
0,0338500933156503
0,0353809868138814
0,0339356224862615
0,0335122081388886
0,0325219756903416
0,0342358471315927
0,0333541160820475
0,0330124834399261
0,033017409664326
0,033512803538784
0,0343799527702079
0,0330556515464873
0,032558271317054
0,0331474147232688
0,0317383309829462
0,0333882188926567
0,0335811873229677
0,0339801025242227
0,0344797089559409
0,0337993015747472
0,0321202333134544
0,0314566655438081
0,0337677284174016
0,0339507338609479
0,0334402578430578
0,0348519317310275
0,0345723701294279
0,0327225830690465
0,0348309255046286
0,033753582037471
0,033792273235074
0,0338595421050195
0,0328326078396397
0,033422082886202
0,0339362976164763
0,0326460925152921
0,0318159256162445
0,0303511135837701
0,0312510452779948
0,0302076642483126
0,0318480962782089
0,0308361790652155
0,0295532158609409
0,0315185050549809
0,0319267620319884
0,0314652829041176
0,0306372452843849
0,031880791882342
0,0315977910001291
0,0327564073652388
0,0333304083435227
0,029909161522327
0,0303604813940878
0,0308493474696392
0,0293618356593857
0,0300061315533753
0,0315087803181915
0,0322753440624359
0,030175663975943
0,0287521453860461
0,0303231275325595
0,0287632060845548
0,0303664892529159
0,0311109337558067
0,0291670553982762
0,0281688819005536
0,0287817315714408
0,0308867677438437
0,0287710256331701
0,0289174801543858
0,0291585146891822
0,0309848874384708
0,0297817504658503
0,0272641086700404
0,0277944530567566
0,0281576562295182
0,0286844801414917
0,0292182811231217
0,0266913811626438
0,0296194924387658
0,030967202472705
0,0290372341492318
0,0288931939003832
0,0275896144208078
0,0283077666143078
0,0305743074027858
0,028134456603176
0,029535269366288
0,0273146727636595
0,0272316834167769
0,0273445129323275
0,0281810414309586
0,0275642189758942
0,026655569068795
0,0276942083900929
0,0297371954497877
0,0277159552075434
0,0276167067367576
0,0264281643102826
0,0263885555442961
0,0274389555861121
0,0288638899519542
0,0264946127134873
0,0272843168707851
0,0282432456043639
0,0290537821127023
0,0274938387541764
0,0269133019153353
0,0267187467108055
0,0259046551432433
0,0278518263029639
0,0272847770262545
0,0278260520382626
0,0268702234837149
0,026704212406299
0,0286179784801533
0,0274665565730264
0,026193039417677
0,0270168037038159
0,0275985848436565
0,0264030071860007
0,0288156788057038
0,0284524092577887
0,0265970781631966
0,0237270377677139
0,0244837300734503
0,0258005611507669
0,0262364109956299
0,0289689773597836
0,0272675737735894
0,0264298342618443
0,0258969968225965
0,0268746250721795
0,0256546750590386
0,026908924530294
0,0245584430313975
0,0254672170232186
0,0273393447018686
0,0280834309381269
0,0257120943062216
0,0255203002130041
0,0280433139150985
0,0265906330917024
0,0257416900442871
0,0224277527583704
0,0246551696939457
0,0252611500760908
0,0269251397653253
0,0255820761870858
0,0265286838922807
0,0270316613627674
0,0254433580327087
0,0252316305512547
0,0267689254008611
0,0249792366392944
0,0256110527205613
0,0275108140948105
0,0246757440165345
0,0236433452587894
0,0273534230632345
0,0238738701661427
0,025347347295454
0,0238683617575855
0,0251345943422229
0,0232209713118047
0,027073696520411
0,0254423292294737
0,0246375767294449
0,0229256709344634
0,0268879074560588
0,0267130594950105
0,0257844721655743
0,0256102835132433
0,0263981471573498
0,0248615291319366
0,0261227955189009
0,0267413705619456
0,0258161873113404
0,025829705252766
0,0269238409419068
0,026562295746181
0,0238808506837401
0,0272298539225239
0,0249581232255676
0,0240504966921356
0,0229549564998011
0,0252674622144052
0,0270819943542733
0,0265685515273951
0,0263188075135277
0,0271095345179797
0,0249716198224183
0,0258005337042894
0,0248697024979601
0,0238556200970914
0,025315102319468
0,0262817184739778
0,0245306152913897
0,0239671135061
0,0257198203115952
0,0250262691978817
0,0267056021092592
0,0252525898790774
0,0263800395147516
0,0244238547846444
0,0263796910873454
0,0260503101443373
0,0262868379995238
0,0254052616700979
0,0252851874569351
0,0248003294753638
0,0252912566867906
0,0257593295908097
0,0253810149105923
0,0251436880708115
0,0236279393629025
0,0250256673043058
0,026056365571209
0,0257750807490776
0,0266610082790688
0,0260534643104206
0,0260410022528284
0,0245226897558238
0,0239117857785658
0,0270286155261437
0,0260780126423431
0,024803543577094
0,0241289159157932
0,0245438721017241
0,0258426872275182
0,0260286166917303
0,0240712919486607
0,0248769275604322
0,0256616293506083
0,0240828382183465
0,0248040769627399
0,0247289055149157
0,0283158750318581
0,0263736141593102
0,0243798559354058
0,0229961569706155
0,0225625737638761
0,0255759859046258
0,0239528779581557
0,0288167706546025
0,025657851004145
0,0262330360729149
0,0273428440583388
0,0266930412071403
0,0268184814007037
0,0238699474862835
0,0277388949821258
0,0241104857676117
0,0277453767934325
0,0272065730010479
0,0264302270072259
0,0269509091826988
0,025528216018485
0,0244591487190852
0,0296336362320025
0,0266350577913424
0,0264208656051985
0,023928126396719
0,0252067371853436
0,0255175805662338
0,0279746271356895
0,0263372420021032
0,0255166685488037
0,0273397496167179
0,0261743292205611
0,0253021577704051
0,0275988267181243
0,0261480402943914
0,0283426212411129
0,0272879622207753
0,027466740453486
0,0278702536952979
0,0287717265589303
0,0287366033835547
0,0289361481140967
0,0299453534244108
0,0275451706501632
0,0267361395650154
0,0283697697626772
0,0264555330265643
0,0271357750713678
0,0275196002048609
0,0257249414285485
0,0311487083442681
0,0276283554432446
0,0266511278911149
0,0269303783383236
0,0290447168661816
0,030467149403519
0,0302625679906121
0,0297560500943403
0,0307702129185747
0,0273079877832085
0,0266821178761341
0,0276886130313417
0,0305620187123282
0,0311302219614001
0,031924352578932
0,0299468973609204
0,0330008227009629
0,0295175173589348
0,0311913153995083
0,0302122421010092
0,0312964425273925
0,0295543426599768
0,0309677560142012
0,0291509387251778
0,0324114569408885
0,0310072908201605
0,0305951106574726
0,0321478690458514
0,0313301034354765
0,0326537920705267
0,03237691059141
0,0331509604993844
0,0286692555232576
0,0315448542213223
0,0370659626212489
0,0300053590999345
0,0329140231353489
0,0368037457242027
0,0349345971118226
0,0325305330221452
0,0334561863580207
0,0318557679975514
0,0317643065629031
0,0359663375173004
0,0320124398564153
0,0365195432162718
0,0337619044711296
0,0344148846732531
0,0367510946327966
0,036689219113144
0,0335303239967889
0,0383788714339944
0,036965921217756
0,0377588505466211
0,0326757719734476
0,0359881795682002
0,0380216617898723
0,0391934895447426
0,0329695859143348
0,0371819383810775
0,0405551071618651
0,0420847444450524
0,0401967459302514
0,0402113075992574
0,038351694467658
0,0408879428894386
0,0399504832316999
0,0428213485329494
0,0435979379351082
0,0459691969737329
0,042238133603644
0,0414453553093934
0,0429943159078579
0,0470548386655184
0,0478675332922614
0,0487139820981624
0,0479858888996848
0,0482039939072551
0,0524077988362434
0,0491690337114253
0,0502872714510029
0,0490001283500071
0,0503033382330631
0,0515933715046304
0,0510932523981111
0,0548348418678209
0,0514775489876804
0,0523203284374568
0,0578590693905054
0,0528616607745951
0,0530817679327539
0,0599108382074344
0,0538960001548788
0,0540561508148093
0,0605021506991831
0,0637436475990238
0,0588586359029359
0,0583584670274114
0,0590726346201295
0,0659053923669215
0,061577899389859
0,0646014413335429
0,0616186769157748
0,0615753490017072
0,0650619424557522
0,0725184082734405
0,0678198350608519
0,0700789781084973
0,0698951529842463
0,0746557881885073
0,0984925695145986
0,0754511654397439
0,0821047778125769
0,0808058842809504
0,0821598486529617
0,0876124993770878
0,0884466002974187
0,0908934061568687
0,0947501272585646
0,0954424409523413
0,101270883566188
0,104467848421491
0,107822738093627
0,112235525586714
0,113718453100041
0,109526498031812
0,114934394574822
0,123914329531367
0,130909706821318
0,132864009947409
0,135221295706776
0,140441775800984
0,145114908379996
0,145365792165285
0,151720342481322
0,15770205288819
0,158245896673735
0,177376785255836
0,172074921278396
0,175284592370716
0,179334479606949
0,185808322840103
0,187827669098342
0,192547225542745
0,193824781147048
0,202055642504791
0,205472059212366
0,207608829786031
0,214776253658888
0,212913849650349
0,231995414181518
0,222258496859595
0,222543056757413
0,230399209256961
0,237427346302461
0,235806928552667
0,23799581167477
0,242128513169883
0,238128383592036
0,253129704205022
0,255369529346996
0,270883522707365
0,246765027929044
0,245865321745587
0,246580381860561
0,247914503314133
0,252217582733189
0,247673775444084
0,251689196244789
0,241861915635751
0,248413267362165
0,249121237754032
0,247107527699193
0,248862940537161
0,253711155016092
0,248230551646834
0,244048451576103
0,255878632776154
0,255467457194717
0,266497642296953
0,264094717666569
0,249305243007743
0,249975852927831
0,248392810023933
0,251058314542358
0,247638356063199
0,247889606380923
0,252569284765971
0,254865491158639
0,242530684412399
0,24582653065486
0,241037814302008
0,242807805214729
0,242771137718424
0,236461951079438
0,240200806189301
0,237364968126654
0,229456814872779
0,229416260655569
0,227201283451319
0,236775810146098
0,228952280718048
0,22702434974949
0,220877120172067
0,225219409053222
0,219843893368929
0,216839699583742
0,220732735783658
0,217355776936812
0,21046832629731
0,211516341402269
0,216724284902319
0,210038353151576
0,207481946625775
0,216180606067839
0,20921685003079
0,207294048078824
0,20707051161079
0,209573482875705
0,206217426642278
0,213247239115162
0,210103512320172
0,211678625144785
0,209176373582505
0,209574784030911
0,204398900572738
0,207991157280515
0,203081460288494
0,208069799855371
0,204193572502649
0,20586515838378
0,203150157604316
0,200367683460757
0,201003361538705
0,199464795964064
0,203777277889615
0,197322388573827
0,200298703587179
0,198414335398514
0,198547449688018
0,19923579313843
0,191727526763879
0,193081556478935
0,19271377822323
0,193102785002441
0,190326883666963
0,191260557615162
0,183421081946506
0,18734259350631
0,181897310016539
0,181649185512906
0,188876712462417
0,184510865787635
0,181429165206239
0,176341860710811
0,174020270234157
0,177219539020841
0,173769574944681
0,175062630832708
0,172090364796372
0,180145613449464
0,179293897639943
0,181948277241084
0,189094320607569
0,168622217173947
0,1629374184769
0,160611984645303
0,164827730079562
0,160813495998481
0,165638265855349
0,160378356269471
0,162182415606346
0,16032148113216
0,160295418597569
0,158128753687588
0,15534079473932
0,161783336299767
0,161706074916498
0,152586290242938
0,155303753942751
0,155579111313633
0,152609521592006
0,156400005136933
0,157343559989288
0,149294217731588
0,151150820456371
0,149468645005175
0,145427526116594
0,147359647888895
0,157429815868034
0,146298199758913
0,144136781954358
0,142873702079343
0,13921860271606
0,13858185192866
0,13898660305397
0,136448132371392
0,137711289283574
0,145853809544324
0,12913094283857
0,125326908181549
0,13203336320763
0,134122785125067
0,135442227026675
0,132644087133666
0,12631466029524
0,132721408298048
0,13083109282722
0,126941112935584
0,127489199725427
0,125043474297538
0,121635411680362
0,127644307544809
0,122129308076867
0,1213836340607
0,12375838877529
0,118865902460708
0,118534129298364
0,118278612161193
0,130114859054109
0,122653847720105
0,117569620046844
0,11975874882572
0,121433011171445
0,12250755168583
0,121681638587635
0,127361032586826
0,125272943075138
0,12146779396941
0,129967645347938
0,127122094005189
0,122979647584871
0,129059004976485
0,129475724736602
0,128826538819606
0,134643862617151
0,13886220401479
0,138336679520291
0,140057815033498
0,139917779400279
0,144099523070637
0,146372111679601
0,143967571938369
0,150440182924007
0,152485203240637
0,158371658965032
0,161818235952053
0,163620633098105
0,170449641711374
0,173408471822446
0,174243338034149
0,181214068236909
0,18080007486544
0,194776025340493
0,189924073854888
0,19253821693249
0,204694040303657
0,203811274147703
0,205702274763526
0,209492431090222
0,216182776288113
0,220938178970587
0,223994931920158
0,224690529602309
0,226284970201054
0,23128456340051
0,232161497626004
0,237912242203046
0,239235195390633
0,240289848742362
0,242726282057649
0,256059861850675
0,252098993745303
0,247958848523428
0,256716548838131
0,250003828182958
0,257688293238815
0,260189511131717
0,254488994614659
0,256057900709321
0,25806070372661
0,265690592622211
0,265757502476972
0,262346834728025
0,264848386571928
0,267375201757922
0,271914541139406
0,272407342078217
0,272330060548254
0,27453182263091
0,278720374985016
0,279484234179602
0,277973630717332
0,294607662082203
0,29215251874087
0,288804143970453
0,287860994038129
0,291899055386185
0,301689625372711
0,298379385614267
0,298087912396201
0,307843983053723
0,31027918464375
0,310359490211055
0,310203872152981
0,308617854934823
0,314521946167351
0,323524328859645
0,321286655256398
0,32452729617374
0,320351198836862
0,320016873301811
0,338402277840451
0,331099708325451
0,331570179694989
0,330053704526319
0,334858353000059
0,335858345452267
0,337110686181712
0,33604428852489
0,336451942184428
0,336762451816638
0,340468137617046
0,336503215972958
0,338646067943207
0,33497547155576
0,334558994533472
0,337529954267819
0,333208734664502
0,33314545598417
0,333881350025547
0,333384295803106
0,331127846018051
0,335665481118509
0,331471629313982
0,331845389460992
0,331889619431892
0,327827696871585
0,333860822360138
0,332954966516405
0,331502258006085
0,331506865625892
0,332668124075002
0,334878473481878
0,336331897886572
0,333548302408233
0,341522957395014
0,34318465301701
0,343785243087686
0,342640964708231
0,344755256220771
0,344216847181759
0,345197785525283
0,350335044478038
0,350571499320937
0,347988619278901
0,352318169995407
0,35392758227828
0,35016304538458
0,351753107727866
0,353298068339446
0,350174695728754
0,349299198679288
0,350165432579681
0,348566409380664
0,346503778133218
0,34342362014678
0,338143615604073
0,337542706487069
0,338644778350338
0,336138279670179
0,328900437406981
0,334279842166736
0,32603949135059
0,321522942906453
0,318644297933752
0,315783632493131
0,31837660980995
0,312327373847556
0,308972460546568
0,309405060044215
0,308534211101614
0,304244879491741
0,303086673637558
0,304343472911454
0,300735358001646
0,299940857091643
0,299382001729517
0,296464536838079
0,297440229772324
0,299231055681684
0,293756824390831
0,29417914621665
0,296451115811589
0,293928783414646
0,292932086195541
0,294861223999451
0,294257352938369
0,296245023286294
0,293871032660189
0,296739568170624
0,29596829874775
0,292603042257168
0,293133073144143
0,293396270229526
0,29441426460669
0,292001130321592
0,292518518832042
0,291856992251025
0,292037359404314
0,291406931188662
0,292979437384431
0,292276309780083
0,289402601354497
0,289298341492277
0,291209519309505
0,289590467722914
0,28835220166847
0,289691701522912
0,291122726617262
0,289372612231061
0,291771937789587
0,291585654650283
0,290068181699703
0,291142321723875
0,290657404670162
0,287428828095296
0,286427138603652
0,288898965871384
0,288500342368487
0,289482171136544
0,289897781341847
0,288783581185859
0,287897300144821
0,28331878788804
0,283674839205502
0,283679051544229
0,279089660171109
0,277567255231502
0,28027545021457
0,276826945433387
0,272366517160545
0,271546212475149
0,2661804474113
0,266587319559246
0,265570838812526
0,260203014110432
0,258017206244733
0,258137882053019
0,25479844735357
0,251830922236921
0,248200182584095
0,246612260539615
0,249024427710296
0,247869442266914
0,248921803456443
0,2461612469774
0,242764748185267
0,245353649575761
0,246873161273826
0,245463226477642
0,243786230605731
0,242820424160532
0,243753059849303
0,243852954505493
0,243049315242941
0,245983814167883
0,247018470774116
0,247007755191388
0,247138632995938
0,248154392020603
0,251679989731868
0,252122824327539
0,25114901895706
0,254050271086866
0,255806963738846
0,256964507227045
0,258535249727766
0,257112616645438
0,256610344405596
0,261015811747794
0,260439690047571
0,262239598984077
0,261616833001309
0,262264048592721
0,263000702633532
0,262795989606825
0,261297495693817
0,260963450106652
0,259279609084452
0,25745990292493
0,260046407718513
0,261430624572767
0,260119873471023
0,257351106011465
0,258846374636318
0,260123573549093
0,25569882014483
0,255380377898797
0,257106650461375
0,256032127009413
0,255816463510332
0,254670304647909
0,254704247584494
0,251440791065392
0,250632561530799
0,251210484654885
0,246847460030227
0,247581683608146
0,247786314444879
0,248575231331871
0,247871016227839
0,246094028330956
0,246418895373335
0,244003678511354
0,243615436208762
0,24301434253
0,241568837409374
0,240471664437317
0,242724637614579
0,240438635097499
0,238472489571779
0,239637448067316
0,238288064233974
0,236935294021626
0,234681175298639
0,233164824894852
0,232574298821453
0,230112250542735
0,229811411139364
0,230165991022161
0,229004799238007
0,226266375476394
0,223662115315004
0,222190831023461
0,221920038522414
0,218707608699627
0,217368244462515
0,217852978379636
0,215125361954679
0,215386007717372
0,213888725534277
0,214650616057364
0,212895215189713
0,211766898489795
0,209956355307694
0,212368451493772
0,211903090978059
0,21094140108686
0,211903003955669
0,209786764965652
0,209834814091113
0,204596883294335
0,202525180147385
0,202600326035861
0,198194567203807
0,197123522003517
0,194685115917467
0,192833557590048
0,191047678530588
0,189367384801174
0,188337569622441
0,18988454198093
0,190677568728867
0,190753272043419
0,194525826627389
0,199707288321908
0,204581871844594
0,209131728154741
0,215239620856867
0,222738980334102
0,232152317512492
0,239947014613164
0,249103000874352
0,260258497694639
0,272029898209772
0,281557228220296
0,293320298330115
0,305393291285623
0,316515300245089
0,324590295348948
0,3389659648156
0,3498947470636
0,357365408381087
0,367315870660508
0,380959202920662
0,389501037567645
0,398145178830346
0,408591017471535
0,410476467512499
0,421382307724939
0,427535346234856
0,435977025248647
0,443487056195819
0,451943681296097
0,457224160069557
0,462528737489057
0,465558515414622
0,470664170046566
0,476801974265983
0,473785319689259
0,474540791028961
0,479304767174219
0,480231062959599
0,480338764886552
0,481351701726642
0,481920475818329
0,481457403018632
0,481778066064607
0,484637264594858
0,482484270656676
0,486748784765272
0,487843210439555
0,488090568031626
0,495070672960799
0,495006896205482
0,494725689980357
0,502710447178829
0,507942644408907
0,510217128257486
0,51403131705711
0,517398729310799
0,526983817126237
0,528734096134273
0,531313740714312
0,542259969843654
0,551450682532925
0,555786671360032
0,561741264166444
0,573394682758756
0,574845523518143
0,587404784114105
0,591935977383264
0,599577344226412
0,609656481975706
0,61141555448692
0,612210768531504
0,62024113677168
0,624867490711707
0,621486767515536
0,623827534342834
0,622499092560212
0,623667460085079
0,619221722842755
0,61637226759168
0,61697419815256
0,616077657559718
0,614786828518475
0,614639736966071
0,615628469556561
0,630065122192127
0,637805234824759
0,639528140412042
0,652001783550759
0,657888708663111
0,67098759798517
0,681497018493059
0,697761040673368
0,70117612311411
0,714707430524061
0,730325069023201
0,737093379495381
0,751111018281875
0,760722631224385
0,775797274124609
0,788354058484415
0,809026115881461
0,81535239725805
0,821951197551534
0,845361156542563
0,85444106119308
0,875283053863497
0,88726920183414
0,910773526541321
0,924543600387186
0,931776574436203
0,957649011593248
0,962189640451012
0,984793644248447
0,99525844308908
1,00771812161336
1,0307826875064
1,04119920805028
1,04546237098355
1,0505953902434
1,0716873371278
1,06561661080991
1,06386849043205
1,09464112045463
1,09023734908742
1,10094585749229
1,08641953904446
1,08198717821717
1,08156652851011
1,07324711654058
1,08029524354442
1,09267027637261
1,06758973483483
1,06066589690507
1,06845984910914
1,06901139805288
1,05401082410656
1,08253381010604
1,0788371936204
1,0962505324373
1,08765829609124
1,09524559914118
1,10519184782255
1,14959170885491
1,1477447928284
1,15868118979624
1,16965248767672
1,19229154154061
1,17257080570571
1,19343177564691
1,17644916094281
1,2154805514828
1,22744654935866
1,22128155957015
1,22194206792519
1,22836191015624
1,22748490746093
1,23287518776293
1,25862024826256
1,25815165544691
1,23698523172376
1,24012791593336
1,23271886316222
1,26222260764463
1,27860566476639
1,26952956076146
1,24113383918041
1,25955114191882
1,24794335218776
1,26960352277157
1,22938394445602
1,23877715980265
1,21795227181808
1,25222616258519
1,20173363176338
1,2223908421744
1,16672178809815
1,17532586597475
1,13764144884111
1,12709718841213
1,09403088203458
1,06763611572526
1,05500574407347
1,00938465873073
0,961455008311881
0,918746264628962
0,897582965578396
0,862274957009319
0,820995569846672
0,794056091897606
0,748669256090055
0,731709412473479
0,69931642698806
0,684396238506431
0,664804625663118
0,659269801748405
0,641134400288562
0,63444804831859
0,630463556679111
0,622630845552553
0,611212557107986
0,613052466345315
0,594965452061431
0,592536349617083
0,593087521660729
0,575826441692122
0,562822004275528
0,562627572154518
0,555121731768462
0,542833988154827
0,522887622591869
0,519550170718056
0,496784885119561
0,483742078699022
0,47114239122447
0,460138271889165
0,435267579485541
0,423936325102595
0,404109450463169
0,389388080858058
0,366394708954561
0,350510802658104
0,334668147767389
0,31755445786075
0,299613268580837
0,284043384202172
0,273242043997097
0,260583494671617
0,246036205716367
0,231033287287846
0,225781616195465
0,214018928290308
0,210929392088528
0,202417063717945
0,194768924459097
0,187878682110239
0,183176045588768
0,178490438897923
0,177372853796582
0,170778960891167
0,169812040324537
0,167591065750771
0,167723139186077
0,161758956781481
0,167618134641507
0,167135127752948
0,165718548267764
0,170021044224609
0,167196577320422
0,167251188511626
0,165514933066073
0,175709328437308
0,172021166278482
0,170950702959685
0,17308475645425
0,174308345859089
0,173400356076982
0,172495622350299
0,171237846750412
0,170325162761855
0,170531017093447
0,166938385116911
0,166102783755909
0,166763376712019
0,164963669955164
0,163030706960227
0,16148284159922
0,158156705290199
0,162025303875631
0,162083930702556
0,163631269362402
0,165753189595297
0,164752167648337
0,167850130335056
0,172324064355575
0,166689559110049
0,168152953428537
0,174323005442396
0,170613877561843
0,17477317255851
0,176042202333008
0,181075937958404
0,179028303417828
0,181530743284315
0,183805043078145
0,184422117550202
0,185158968390923
0,184918872793932
0,18661160918585
0,187101099810102
0,186785202497791
0,190074395027103
0,187317384801656
0,195880643439989
0,193478213244967
0,195101623229218
0,193300551510044
0,201170335634496
0,201190976433778
0,202633874628453
0,215052457802019
0,215555734700977
0,213823390988182
0,226104882966429
0,225471937711718
0,24077135966519
0,245088534168294
0,249211642454911
0,255588175014139
0,262632537370231
0,267447761895968
0,269048344939513
0,270732468168807
0,266582970513118
0,261403427941911
0,260477416865567
0,250025537365395
0,252346013266354
0,239394855643564
0,240562754291133
0,230563987578434
0,230793498730735
0,230617815708563
0,231119495541492
0,22771958440697
0,233587576676657
0,220580786761762
0,229119417124119
0,226913530670997
0,22860074005504
0,227947560054514
0,227016795899198
0,226954402186514
0,225909738200647
0,219999977907185
0,222365644271892
0,215993423192739
0,212138617817047
0,208568125973111
0,212972234758727
0,20463892382412
0,200910956837583
0,198295867540244
0,196730782895865
0,196056391627277
0,195606453000864
0,185451228716748
0,191213783600844
0,188321506251607
0,189745937346779
0,187760799916153
0,188342424488982
0,187338121118376
0,179697742455133
0,18455108212756
0,180151976928196
0,184233188606708
0,183012917239114
0,177494037747667
0,177950135616654
0,172838405723876
0,171141599459802
0,170840247497373
0,170544240413334
0,170264109424812
0,167708363522827
0,16850832877793
0,165109986828959
0,167422792553304
0,162620601693963
0,152715623031712
0,155491277854078
0,152069728393296
0,163923677633665
0,156574084901365
0,157170583606003
0,15675540102689
0,15706546411653
0,157918911439808
0,158944250205422
0,151466642771476
0,152081549353626
0,14595641794251
0,154808041701052
0,159612694691504
0,150307742844967
0,156367715169898
0,158743619152543
0,162291251721173
0,163310719692668
0,153614692055083
0,160715608959666
0,161548956306245
0,165773373579455
0,163126739333007
0,168799689184325
0,167201574810298
0,168885628358461
0,162170343218716
0,172402400984505
0,168364024348757
0,16347495789488
0,184663430876562
0,172169010654732
0,186081161096856
0,184258166952192
0,179854284508049
0,188621891543036
0,193543322372925
0,198611326807454
0,200716100931301
0,202401785660624
0,21951046172446
0,21676670955331
0,225824708621908
0,227917206461926
0,220725090247085
0,258412683571208
0,26482787978288
0,267634619216682
0,262634709739408
0,281240720315922
0,280174134949438
0,299498542916025
0,289908117281205
0,300901502009729
0,321295348532696
0,327823867239526
0,297387548807735
0,316659888621356
0,325136838017621
0,325394591637902
0,308743884568458
0,311380348509724
0,314288233373231
0,316176789475862
0,290017533329444
0,320811793104825
0,306309349541037
0,31608075007247
0,306439877101029
0,308339748599451
0,305236485363599
0,292008386167445
0,28236389522821
0,289069409659085
0,285075872923415
0,287562399900763
0,283662523515884
0,291185543920589
0,265932576862822
0,263681960119043
0,273870303978234
0,285705705437546
0,279137387299012
0,254149519328532
0,251586796690581
0,258221880999422
0,256657266933843
0,254646382613868
0,245412035560312
0,252963278882237
0,261066090607597
0,248280876583346
0,240654827193921
0,26206415003378
0,25799440512789
0,259813581109802
0,249753612462895
0,243427774464496
0,25929772845543
0,257629589359788
0,249434305785576
0,258171531819388
0,282485691946676
0,252644942970021
0,261896752005219
0,247672873392716
0,258305546700929
0,255890476834241
0,274012127602081
0,297250265345509
0,247486400608953
0,265936889398224
0,280677587886043
0,252964532767272
0,277395994277431
0,283257416239045
0,272197512163953
0,290530575356056
0,275455615769254
0,283003411236314
0,2776828241922
0,274913208433332
0,281065017506968
0,29731775512493
0,281170713448344
0,325904668349443
0,320841933551993
0,299738086315033
0,327839153295564
0,329728181937633
0,341441369267353
0,308721397690182
0,328289152434299
0,388038157962349
0,350016361069464
0,345584151457076
0,368378955199478
0,348994349349165
0,376353813603477
0,401915017165941
0,364558805100616
0,407340655114203
0,37483616461254
0,406960231967279
0,3802257673797
0,372928595046037
0,321669402947193
0,391690656732924
0,402424657330126
0,317154151369275
0,379357624446469
0,359736964595238
0,393102944595617
0,417402281202169
0,366459361821245
0,42015489396565
0,327789099997659
0,306721874565796
0,334562122170444
0,375418358418483
0,269845446149906
0,388419956694927
0,362815783799682
0,371614656717876
0,327382612895513
0,363954303813115
0,439812249903296
0,340933042522974
0,363291964776286
0,396938779066317
0,376040964323974
0,338497923580412
0,332676974914168
0,391944678441183
0,346211777803226
0,35016288274976
0,292519666602937
0,357089296071501
0,315547587404316
0,300599411346496
0,214809215938918
0,393327901437522
0,375251951446821
0,496119557000223
0,338924347788979
0,388734772999524
0,328745280637549
0,423758935524192
0,344442853713671
0,380810877212521
0,466483919176686
0,543764236791829
0,456853823870401
0,31926728619441
0,497790324199222
0,251959085265474
0,50358854954128
0,53392456328316
0,157950074481254
0,341783715739377
0,538343290198744
