3596
4000,36533379555
650,420452594757
1
2
2
0,0452409266244458
0,0230321664984865
0,0466127761412366
0,0312605613372914
0,0468582980987016
0,0334549199739178
0,0529227342075239
0,0294537547512162
0,0392150898185219
0,0341778065810463
0,0443926854844016
0,0301711245532601
0,0453491046639918
0,0301864467299424
0,0484329293641576
0,0331773564945208
0,0463658054419618
0,0300831802930246
0,0417188733419399
0,0301076255415634
0,0502097371143312
0,0312248407612506
0,0452750053854987
0,0283919872095836
0,0452459494432636
0,0335939336301819
0,0427645270494627
0,0316125900116886
0,0471131781429265
0,0353377515741483
0,0475264431854833
0,0326862508531407
0,055248214280656
0,0402140269969783
0,0555072830322495
0,0315939922586367
0,0423646748372496
0,0288420767766229
0,0429679670329962
0,028482818979293
0,0479341209146172
0,0294984513616274
0,0475047762369203
0,0270196600792909
0,0482429481017673
0,0360293149741584
0,0458141564784351
0,0305987090274066
0,0374850547040424
0,032602260293259
0,0495663871954573
0,0304106834850557
0,0527485819502797
0,0357646689053203
0,0435514721645203
0,0409216885725277
0,0570023508643191
0,0277029572194972
0,0438049955434147
0,0319444594149424
0,0428804742134876
0,0412269890465327
0,0428089295580186
0,035652885031892
0,0421903624603753
0,0318125921851826
0,0452940367458037
0,0322529208009751
0,0538429132121397
0,023677540974601
0,0457242242548136
0,0250303727348397
0,0554951481702073
0,0317181952378935
0,0444087180593133
0,03100027714728
0,0448354973640793
0,028003129266827
0,0400344117719037
0,0368108807471245
0,0496849466972995
0,0333458627916353
0,0410548229255696
0,0188055325188935
0,0360284666462527
0,0350392980335232
0,0435741376915304
0,0222553393852859
0,0606914632460824
0,0405329386760894
0,0432784222806584
0,0297393853556967
0,0435726607871864
0,0315125136500462
0,0463351532182321
0,0268541799017175
0,0385651614253871
0,0261938145755816
0,0440902085830876
0,0303998644304995
0,0552198186868187
0,017924315462932
0,067767763457981
0,0337812459925839
0,0629697821076857
0,053198639219525
0,0219578656549683
0,0547167370948739
0,0513455089873393
0,0369726064316893
0,0395680882982179
0,0245838791058878
0,0439984819413543
0,037198409872934
0,0429750701949359
0,0333829878912386
0,0806034272780197
0,0370653629644381
0,0478867244478738
0,0269957910597984
0,0336335990283962
0,0144984414469144
0,0795486173581665
0,0258898131169716
0,0582840490688012
0,0267109835824742
0,0297522814109424
0,0254916446948906
0,0753203803002053
0,0262391687534279
0,04194330467383
0,0263175346505911
0,0425522783032334
0,00861867450687629
0,0583935549269226
0,0419918193972315
0,0322438762659833
0,0207111358318111
0,0380846259603839
0,0670754378159889
0,0586319388928596
0,0283557714551309
0,0386184596758062
0,0151342831996694
0,0635396080125786
0,0393475085788847
0,039318137584928
0,0310064361166748
0,0671192469131315
0,0295126130942244
0,0428434165799486
0,0177089782085802
0,0570987968681058
0,029033243858025
0,018780741197388
0,0167182138918126
0,105644375967934
0,0193740799627929
0,0849544241650069
0,0365404611990051
0,0477065310442689
0,0323881148371403
0,0314465595462688
0,0284217219602304
0,0364875170248054
0,0327531757670157
0,03328229988363
0,053474458330314
0,0319125101942274
0,0180252582550104
0,0616073668417102
0,0336948957290633
0,0270195396049983
0,0491232368506442
0,0622709530613024
0,00933191378325146
0,0708495763726128
0,0408605710494271
0,0333750966559327
0,0121433689062351
0,063321597061899
0,0328785393984487
0,0458270706699667
0,0214038702185968
0,0314428241216149
0,0411860865716327
0,0474977755666946
0,0232953365659681
0,0414643612648477
0,0174092132019767
0,0380048309704228
0,051611528604176
0,0638708347274524
0,0370208818199404
0,0439509136465469
0,00870316011763761
0,0436677584516685
0,0613395125115612
0,0444232420836875
0,0385790656118923
0,0426603881621694
0,0216458496623333
0,0377699162487164
0,0232034386299261
0,0316784663671272
0,00614962266294359
0,0633385723323376
0,0563089411818227
0,0352834822078503
0,0277518952392938
0,0362221890596361
0,0265353355645116
0,0572601370594928
0,0637396895174531
0,0424236590947888
0,0364903144849559
0,028591123964327
0,0348726974082712
0,0638901943005333
0,0328538402540757
0,0378413218833093
0,0305579345701058
0,0351679155388534
0,028124104268531
0,037184955697785
0,0324089902885188
0,04423783472169
0,0296036747958444
0,0391988502023408
0,0295921376631452
0,0417837521561988
0,0325715097990649
0,0427258323991812
0,0331679004537358
0,0302895503589161
0,0277154168083142
0,0628134794030185
0,0321840005653714
0,0440660395803509
0,0293888490717531
0,0340927084640533
0,0294758426903257
0,0389810574034419
0,0279652527927203
0,0415830874101986
0,0146373767245731
0,0528018484587302
0,0450501678756534
0,0350776010107087
0,0276824595098664
0,0339729530862064
0,0483847029051
0,0344844298945989
0,0342938194758851
0,033149902165786
0,034323798105218
0,0333588498251001
0,0536994713186224
0,0474210162095522
0,0304137076288295
0,0505069022257424
0,0414362440317576
0,0296346796343545
0,0324828273667066
0,0106583412573538
0,0634029878622184
0,0596316110455106
0,00135364725698024
0,0778434137057214
0,0564457052290124
0,0455125415681946
0,0347041518790974
0,011396230957018
0,069616943714934
0,0785550223247098
0,030706315820018
0,0454451996489336
0,0453401900944958
0,0450704120351057
0,0254390916654118
0,0354417259713442
0,0256405972723425
0,0609602896904147
0,0609237757532563
0,0913575411207806
0,0311539855066478
0,0247847401406102
0,0706664601360645
0,039633780109561
0,035369481801393
0,0347240986137701
0,0289128236652455
0,0406586675139359
0,0485358772458974
0,0478297056563064
0,0393824456859741
0,0291973632568287
0,0482072502165298
0,0466939723519489
0,0345260237742111
0,0369036500750882
0,0453406584107973
0,0475265728601839
0,0319680834528247
0,0391435564790331
0,0374081470107425
0,0359564688986626
0,0173599573158573
0,0678263700435718
0,0458274669451498
0,026793139895147
0,0515853663260347
0,0434257204319306
0,0295596698048989
0,0415978339302766
0,0414192697361294
0,039700557607698
0,0284810659062839
0,0336647634922416
0,0441403251628849
0,0596440019147468
0,0254756600143573
0,0446799601409096
0,0292589544131963
0,0419601918233013
0,0300129000338008
0,0442323310064585
0,0360843324907381
0,041558580065601
0,0215308187374257
0,0494344886308738
0,0505650592204212
0,036823738184013
0,0303132726628357
0,0804378615311627
0,0418612391554527
0,0455848136341153
0,0395411302095118
0,0441515228116997
0,0374614011394663
0,046383633474471
0,0349638258940698
0,0386328082357402
0,0479550025373267
0,057859218023189
0,0313083444824673
0,0336466671117757
0,0571863435766976
0,102352621782369
0,0541937652044136
0,0447357797133283
0,029831240374493
0,0516762853473026
0,0719188863987964
0,0496594923127505
0,0586270822614391
0,0498517798533624
0,0429619055257734
0,0445152498985779
0,0417518204693849
0,0524572409587033
0,0416493859469722
0,0538041091676178
0,0425661774295718
0,0565903341537108
0,038224656815792
0,0429003731556156
0,0336375389880226
0,0832589913957216
0,0635735631377315
0,0585013331669983
0,0517568458604173
0,0521512791211811
0,0289586709168729
0,0913050524068456
0,067555365389093
0,0862976807881886
0,0513787442905702
0,08390402751875
0,0682482310551466
0,0708201600207065
0,0548980581379966
0,060428990711381
0,0593524661190256
0,0663746797541166
0,0597397967636772
0,0652258109665299
0,0592083514534988
0,0704282753210179
0,059487310705588
0,0643017149020237
0,0560944690548981
0,0703742864783735
0,0814846503565573
0,0704222354626081
0,0663474935933941
0,065833109256356
0,0967780972300401
0,10791193089266
0,0905610771944271
0,0764034224935935
0,0832168408451291
0,0757365191691842
0,0818168102641013
0,0849923799487928
0,0831552354222184
0,0882310613995415
0,0869232536831503
0,105459013863042
0,0880120469427138
0,107660744234744
0,0861479913754512
0,0915376156808411
0,0959279424095778
0,0878514673427906
0,112851140348975
0,108556378744487
0,0917603252079739
0,10146201150218
0,103075351167713
0,100010349464416
0,116194384658382
0,11896376814817
0,100540005238332
0,111316543164883
0,100799366726409
0,113871634975867
0,107079034160666
0,128945461892302
0,113820012752265
0,125798295377672
0,124502869388926
0,129728171153667
0,12226663004686
0,134252670975438
0,119804157223416
0,137085797738563
0,131101311422029
0,132506976422237
0,125496401260806
0,134616786600674
0,146872503296716
0,146466447845761
0,156154397248646
0,160255058793681
0,135296484189717
0,157574304110182
0,138171687957801
0,147097800656122
0,150227370511939
0,167515343323828
0,164116838204598
0,158954135662286
0,156378657766289
0,173987517715272
0,169520970602311
0,168546306511477
0,166456190246058
0,180281791418028
0,168051319549388
0,176213846452095
0,171409730393761
0,189155646740163
0,211101352480276
0,209633136195143
0,206302539711335
0,206463838664325
0,185846445612894
0,208820364103087
0,193796223642862
0,205995272188974
0,200746909428493
0,220810079782611
0,200657039475395
0,213942291058929
0,213281826318087
0,222535868121084
0,216330583665291
0,232624896328428
0,22525973900023
0,243252343523757
0,236482115593629
0,247042642641891
0,217628011043094
0,243612789718196
0,244046641246581
0,249612276595845
0,237210528147319
0,261262262710106
0,249360567210946
0,259475405114092
0,244577125816976
0,263911240350124
0,248127520611285
0,275346436391663
0,267002402605727
0,278785254874826
0,274296571531728
0,282287244195774
0,277856002489705
0,276003252813327
0,277545819925057
0,289171537556966
0,287748126008348
0,312053189514119
0,301279780434781
0,303916463914906
0,295814273843509
0,316485620975211
0,297284733877283
0,312834772764107
0,323820744282231
0,324147666581098
0,319119980843013
0,333221253102102
0,324097696445512
0,324353407365499
0,331660170384437
0,34512463333822
0,336376286132196
0,364990226345108
0,343776284474671
0,353418859233194
0,34978456783822
0,365861743670823
0,375396397406685
0,377517738339504
0,356297906285729
0,383915411548065
0,362773231526741
0,371828065363864
0,374925868029176
0,377085952428968
0,370283734285477
0,395914439397459
0,391374017208386
0,396989074042186
0,398340118874716
0,404922994226595
0,399707736686972
0,419102988028473
0,412148762719182
0,409985634572944
0,403039357808556
0,428783022687127
0,418945397279938
0,443288878066728
0,427342052990911
0,436408891840785
0,447032498604665
0,444814117971694
0,440322608082476
0,450534614074653
0,445611405047422
0,46310282573256
0,451097804089526
0,452235378075125
0,45124361183381
0,485506426917855
0,493095304164917
0,475533183537144
0,453440709446311
0,477566173692522
0,468137558100261
0,493191787903039
0,498626224555236
0,496196308048272
0,483112008087237
0,490086503578536
0,483208253840161
0,500524610011372
0,483958985123693
0,502825843208888
0,514928619530919
0,520285998137498
0,508848986322876
0,522349307980567
0,529546775773626
0,518093268891591
0,524396497118633
0,551570780693667
0,52992358136782
0,539129547554289
0,5293271168932
0,551319686348691
0,555833360187211
0,555126253994236
0,565344092887142
0,571233743198088
0,549854696722542
0,562949814109826
0,564474436741391
0,583760301248146
0,572816045809362
0,5733192619922
0,574928221400661
0,580804326225223
0,588133627448796
0,584059474576446
0,565699357288498
0,590941035948624
0,582523851231644
0,585952929694421
0,590623109698394
0,580357851543166
0,587990988189214
0,607219687904886
0,59833658791829
0,63320718576007
0,61099981030926
0,616436200963567
0,620854437771398
0,615446696435142
0,62993377937085
0,638258643047162
0,620267972485418
0,624140430644867
0,615245382752038
0,633594641672576
0,626953887744942
0,625416545796117
0,641738008937213
0,642658903061298
0,650757564958388
0,65911011051443
0,643438967688173
0,642493315720326
0,647634862681665
0,636686508126295
0,632274464779842
0,656109884262447
0,660493608634709
0,665389595959403
0,659725616899618
0,675930127343851
0,683813305246947
0,685088201461015
0,653278245518383
0,668510415175343
0,659275599621092
0,647573695255178
0,689846765412825
0,687740395609245
0,671263550989318
0,687560661613989
0,690473122933486
0,716801917561515
0,707244811314026
0,699598046713398
0,686911965924855
0,683423677315088
0,701942782466375
0,708739999364492
0,715629515634191
0,705423695300501
0,702469159013466
0,700579715372751
0,701168172723809
0,719448323726377
0,724293586609037
0,715569866251284
0,725703330090112
0,72165275134287
0,720324062665451
0,718664281881972
0,693536602969115
0,702054886112225
0,705773271869635
0,732472142107499
0,734148350243727
0,715221150129111
0,720446735892064
0,725564766844717
0,707371717969704
0,712842787282674
0,702390233391412
0,695576013262752
0,710801745029336
0,721040928806943
0,724429273269196
0,755149034712651
0,74514599646336
0,750093119310114
0,747121430710591
0,755255744982602
0,753815082498805
0,717907673723408
0,726839370209448
0,750110606838565
0,757909999907886
0,760231920151531
0,74650082157993
0,755778629405812
0,770069793534683
0,723333750032395
0,712262115212027
0,725926921664554
0,724844526753675
0,730096956655397
0,75404955897569
0,753913286354466
0,757253290201337
0,753955303335751
0,756496903386386
0,742303767766552
0,745178951271471
0,742370872151401
0,727924225994313
0,733329420426517
0,751689730300193
0,741779538357907
0,738177678986217
0,740485674983362
0,746064863583588
0,735735862260664
0,749593329858276
0,743786285854817
0,744679269375616
0,739080958132644
0,714605678548241
0,726199579001116
0,724236322525976
0,725809065894424
0,759109799304538
0,754888454494714
0,736706554936726
0,730736966960349
0,736692860414935
0,736246490065461
0,733380293196156
0,753647996723432
0,750357847166254
0,739835950643336
0,736816459590582
0,74083604003991
0,739904709333803
0,701576417461771
0,714620731896972
0,728557074071732
0,723873309089094
0,710783056838441
0,718965650661464
0,742822868537312
0,7278082025747
0,699492599033368
0,710179479970396
0,726653234844984
0,725964584083991
0,725794830000064
0,715680451960685
0,683729209059241
0,704265860407816
0,724163449121546
0,713549842146462
0,701431609992854
0,724290568345243
0,720176509748659
0,712306444072167
0,714000252900091
0,703246788356176
0,697047085652323
0,697512687953594
0,718703337747497
0,715170665593212
0,681666168037491
0,704637944774577
0,695773878383556
0,702390930206614
0,711586206068274
0,688926304208216
0,689930992254898
0,686588960884382
0,688105184767447
0,695977338961604
0,683132885734823
0,697672135201543
0,671741283260213
0,671650476060192
0,687771503935468
0,691652895599742
0,672536632517899
0,680838880206031
0,684453298515998
0,676114141161228
0,662571994072162
0,671398557199953
0,654690730570071
0,646369732358119
0,667183648567972
0,644498567047533
0,646888988352448
0,657311639987175
0,637577346960768
0,643723142353391
0,653023920092557
0,653349115243029
0,634947875299255
0,660724285645948
0,659144899402946
0,652163780349281
0,640798757348167
0,642282781624672
0,642188118849345
0,63914365518549
0,634671499652622
0,640689821437091
0,638107826913064
0,62749964369684
0,618827705378366
0,617686976571867
0,621567571090076
0,607963192597388
0,605284200007045
0,6247748487997
0,61349923184346
0,621676559919765
0,606512383509666
0,598156687658478
0,599533657843646
0,607697202110819
0,601099720786489
0,604825565554969
0,603274940718236
0,59335654741498
0,591625682881002
0,596141280628695
0,60074777724962
0,577063735935454
0,5711662833164
0,583590319406398
0,57154938812292
0,577807790037458
0,575322504246862
0,565713416753269
0,554999046382998
0,575711345030432
0,567552771214551
0,551043731459848
0,561597588216962
0,562217697525418
0,5542963017033
0,557637708904898
0,536389590781621
0,543175947331245
0,540639279164764
0,536610225287256
0,536649734536159
0,541451415736319
0,526333481565048
0,529597781664213
0,528345736206486
0,521949719049558
0,531250692227581
0,525076032900116
0,5088219487727
0,525839322028384
0,509425669314465
0,506967391799136
0,521698735781477
0,499854628810648
0,494456958421825
0,505388719275372
0,50141612406169
0,501029139228574
0,499486833351245
0,489336578380741
0,481905837213404
0,481800361312027
0,462208835292165
0,471206602533852
0,483944431339062
0,480834067900691
0,465010354182454
0,461409228805996
0,459423630426828
0,463486037433846
0,455551970419548
0,465091033047139
0,458222620915562
0,452587833741903
0,454457763687059
0,45138467269251
0,439263389117002
0,44912408754945
0,443261456500401
0,444822734184356
0,433276609439503
0,434058308171155
0,423275023925728
0,437188676816218
0,431358688446632
0,423108947699841
0,417195077464062
0,411263216824849
0,409809250136539
0,412939762732606
0,408380715132553
0,404928216878835
0,402802097412191
0,399310037159311
0,40554360969554
0,39671542480981
0,390050432234041
0,397709694047315
0,385692416057219
0,380339430507823
0,386657145275629
0,386357150469343
0,375335903491478
0,376446303811499
0,369043137013124
0,373996220436794
0,371349539983145
0,368451112608722
0,369350628320862
0,370892128739728
0,359166008221839
0,359546159157774
0,353813793935283
0,359847312513378
0,355790264375372
0,351167527199276
0,344208166303425
0,343379327461682
0,340220331311934
0,339922048659303
0,338285505577132
0,337664234326331
0,333277526168956
0,331755409870855
0,329601879168694
0,330022363445549
0,328349115725176
0,326485415724133
0,323935801838632
0,320584542096915
0,31438703615739
0,319198127764944
0,315846062800557
0,307810190565796
0,306763457381958
0,309401234356391
0,307816925385589
0,298095726706151
0,300127380048387
0,304967052615516
0,292716767096547
0,294831548743266
0,292111318236671
0,286672578481882
0,284539510150459
0,288480459091425
0,286125834549139
0,287477331285732
0,278161629543959
0,281955650964855
0,278684802531197
0,282167089335879
0,275410958388085
0,273672982921315
0,27330168058213
0,266663132112989
0,263319665535852
0,271801603294863
0,268128986752616
0,265108594315646
0,260474936257843
0,259459479174222
0,258183953199593
0,256421967717316
0,25830174387432
0,256999584397823
0,243556422244039
0,249471123641216
0,242646852126171
0,244059685916253
0,250238009593096
0,242029083532819
0,24094243161188
0,242451448154187
0,240570303551478
0,238509103990516
0,235522152335034
0,233888076352394
0,230468717594847
0,226507866473222
0,225187924958542
0,22821605792125
0,226064413299962
0,226458320721522
0,224071880878195
0,21825969935892
0,221580725016663
0,223979478915071
0,215930137949011
0,214985883809905
0,21124840187275
0,216700674441533
0,215290924742372
0,213361833645961
0,210918913003735
0,20640840836697
0,209889657775437
0,208457528822091
0,204367416445114
0,205958082819914
0,200906484307396
0,202779049689094
0,199368519693196
0,200731057880387
0,198471947406154
0,202948144890282
0,193060069495044
0,193904437390344
0,192255224864359
0,1962785659854
0,190105786183685
0,188689111042448
0,186145281084441
0,186211512247563
0,187291028191546
0,180953498060825
0,181923389293656
0,180726470064235
0,180197717763898
0,181343880187409
0,172770762996727
0,173913809147107
0,175012953461893
0,176381631919718
0,174627795527951
0,170051495598972
0,171338316871688
0,17672112986824
0,170521539736036
0,169454629147645
0,170558950831222
0,165749495645315
0,163191853871748
0,16630511369144
0,165682956343862
0,161917328243784
0,158317020917671
0,164119704650402
0,157915769296314
0,157634048573064
0,157092471411474
0,156696549724964
0,156895066779193
0,158596276701783
0,155659194388816
0,152586065116586
0,151759228531464
0,15655623420697
0,151116737351833
0,152272954616495
0,152949519373853
0,147645925720244
0,146712497118308
0,151178414575922
0,147181342014613
0,147895768515417
0,148331133578526
0,146778833618615
0,14619641456526
0,147841796604759
0,14744784418383
0,14803913745683
0,141495105857852
0,146087656790862
0,142608493640936
0,144556167141244
0,142244036882801
0,147237961076009
0,146205815066429
0,144339801629321
0,141090407648353
0,141390555216413
0,146045619161199
0,146704752517608
0,143072150968657
0,142133691247511
0,146189908935683
0,148759045355744
0,147567234910483
0,149364339848732
0,146207480733992
0,150398636301172
0,147832482832166
0,143132081421197
0,147341012018517
0,146370462052828
0,153260909830382
0,148101869815667
0,146647737215395
0,15341410354109
0,149843967179148
0,154981895951539
0,15850723031622
0,157520368065901
0,155883507742513
0,158716704733199
0,161409174972143
0,160183022452516
0,163826534692092
0,163871556349476
0,159078810504418
0,163745759945456
0,164258701904591
0,167810952302552
0,162062405409198
0,17078084230196
0,167952989676409
0,173010156853027
0,170003285045756
0,179608986771563
0,172347865607264
0,17831062169302
0,179962575211277
0,179411250742074
0,179580805576061
0,184265024312112
0,182475875240495
0,185006349554843
0,18727072927119
0,186906033885885
0,192348263198466
0,196228040265918
0,191508391969615
0,20238201785369
0,200312322785019
0,20412716291569
0,203825865661875
0,201969935940638
0,206573548761359
0,213195612194331
0,210985954040045
0,218880183927656
0,213683861793131
0,219615542319154
0,21305657796597
0,222415714305502
0,221015343568065
0,225524602913987
0,222790731458924
0,226254389711029
0,219281141104231
0,222053196511433
0,220202493954884
0,227916270818927
0,224930380876226
0,228195821550266
0,224886657378224
0,225794407464939
0,225092310813466
0,226536790382551
0,226102118111006
0,227582112897771
0,217302319606297
0,219846089089865
0,216212601514933
0,216848974823294
0,218994271142649
0,223259813781325
0,220460424476549
0,22339729513966
0,221615631756909
0,221127541622632
0,2232845179521
0,217401319878843
0,21820830650005
0,219936497777977
0,216870564443938
0,216383169490692
0,210535902235817
0,217854238256122
0,212169251094712
0,214485436836542
0,212250619980768
0,216721812311873
0,213236379305258
0,212644269060868
0,212942873781483
0,212910747069439
0,212150814759738
0,215954960926398
0,210146260155184
0,217184735956677
0,217375413591141
0,21641947769676
0,21164262599346
0,211101611430123
0,209693836298989
0,20888938299544
0,209633840562785
0,215111132145314
0,205113609462635
0,21107435265263
0,205281190156559
0,20154641599664
0,203196202181115
0,2056513145895
0,202389824339626
0,201505752660459
0,202361362494598
0,197639265182241
0,200400157139062
0,196837652244564
0,192127807286105
0,193945094754159
0,191803851187816
0,19429794430422
0,190638217234341
0,190852291046435
0,189389215968184
0,186645408769335
0,182687289626749
0,18223755064982
0,175206562365489
0,177030427484214
0,17273135410558
0,175858266080533
0,171323692728887
0,17067991734437
0,170576278497671
0,166922270861356
0,165679272734244
0,162666855880299
0,161202206529983
0,162565370963183
0,158074532144655
0,161498035260548
0,153835512350923
0,159666855260538
0,153438594075804
0,153633774822745
0,150573299652584
0,152223402411901
0,148212903271422
0,148826430587102
0,147336924770244
0,147070562899105
0,146750851419737
0,143642463008198
0,143659471376461
0,144184994025642
0,137142936751953
0,140433620482519
0,140229235529577
0,134147440395836
0,134623154756804
0,138690345220231
0,135157909488526
0,132369126735808
0,128902875538842
0,134129214930755
0,127319759680316
0,131003891084335
0,128235679797651
0,129472777551189
0,124442865028628
0,129121854360821
0,127113062539273
0,124577415315952
0,122550294637863
0,123726151368718
0,122229579332846
0,122022675793863
0,11807270724274
0,122826853111475
0,116454842486866
0,119847340590594
0,119167013419051
0,119869603820676
0,114316008964124
0,11741561360392
0,115834054020289
0,116772339393493
0,116489732571067
0,115928729178876
0,112704425633135
0,11486900076794
0,115091922236635
0,113178989897499
0,110447737088127
0,112079883455571
0,110857193121405
0,111823050229344
0,106453093410892
0,109503366804208
0,107059950088506
0,10520348230692
0,107541052894836
0,111801241892385
0,105796901799558
0,108640934170295
0,108051557286149
0,106688455148923
0,102233978663915
0,105699924457139
0,103512518352499
0,103983341963734
0,106855829542285
0,104601258531163
0,100536140035088
0,10654008175624
0,101243534141488
0,102885407517484
0,103059557597995
0,103449597675869
0,0980806501639
0,10321083789718
0,100199825627293
0,0994849089976264
0,099022633597988
0,100783052529437
0,10045802445149
0,104669221606584
0,0959130838203574
0,0964379189416422
0,0943680103350857
0,0957158644648888
0,0975136213017023
0,098672094152424
0,0974482262737513
0,096965579115489
0,0942263035283767
0,0960278038386416
0,0952009154195937
0,0952139274606878
0,09374826901005
0,0977022680967316
0,0927102965599454
0,0948049358817247
0,0941157235022294
0,0969626151539556
0,0888917480707497
0,0929627972337477
0,0900370873681443
0,0932212935796468
0,0886323249474716
0,0939322937391148
0,0903246833734635
0,0938233748637514
0,089511543331828
0,0949985496958486
0,0902738390444397
0,0890183776765323
0,0870579992216927
0,0901044023640785
0,0876868060842272
0,0908791650889223
0,0897263187177279
0,0885903468372191
0,0914514715997848
0,0926260305311855
0,087240648511121
0,0868144255079887
0,0897073995452492
0,0887093744971413
0,0860639132776948
0,0900602579971059
0,0843434580735372
0,0880102622063468
0,0878055208982094
0,0878924643744636
0,085839634113494
0,0872086462754985
0,0819314543516255
0,0874509367055089
0,0847856815212838
0,0868406234586583
0,0869245548520357
0,0882930168572698
0,0838183712657283
0,0866437516637161
0,0845792042570628
0,0864157859801567
0,0842521515169013
0,0896918391790421
0,0827396516973595
0,0829944344535209
0,0837084287125192
0,0873757565031534
0,0814836129018567
0,0845154683813271
0,0813156801588067
0,0865700701558951
0,0819274316577497
0,084033213069765
0,0822550073931044
0,0845062204312575
0,0831293755907735
0,0827516232301685
0,0806906322017579
0,0814004833468377
0,076263069995148
0,0777417773042779
0,0813237565809422
0,0816412216861838
0,0785071867656775
0,078582667164756
0,0772445956229382
0,0808739156469411
0,079416036806764
0,0803460093332723
0,0781719318822483
0,082074865088102
0,075751141193789
0,0790187761595901
0,0764731472015177
0,079884614144699
0,0758083548385685
0,0779766568364708
0,0730205404003201
0,0741816401759923
0,0722006657500995
0,0736404622348081
0,073255483658829
0,0759207320082212
0,0716261795226767
0,070198844324013
0,0727422660155768
0,0752784203322168
0,0756657832165436
0,0757787433170235
0,0723402328517953
0,0722684029658242
0,0688839132841723
0,0749981153244868
0,0712073109551721
0,0715645845278489
0,0711655665701203
0,0722425215529361
0,0689517352123454
0,0701007101041048
0,0690017614627161
0,0718974499352325
0,0690402581737571
0,0728084126298107
0,0689547929953011
0,0694099316459178
0,0664151800441433
0,0682198791555467
0,0632952746862939
0,0680190995617959
0,0662992897821688
0,0665767239423216
0,0626843914982776
0,0682067627202668
0,063514182352901
0,065444988505829
0,0617103962993085
0,0625454271221395
0,0644807381229937
0,0667807571760423
0,0624667494136473
0,0634903685426051
0,0611282600134746
0,0624206429936454
0,0611497996075463
0,0635881206776359
0,0604864511958612
0,0599368600739063
0,0608216746502669
0,0601456268808861
0,0615117695283831
0,061919100220563
0,0596526407335069
0,0586056693009529
0,0572303938286107
0,0605221371629367
0,0568467812764998
0,0592537647028455
0,0593096557164682
0,0589016074661557
0,0573839272280255
0,0597379711620046
0,0555993701887521
0,0578975103852044
0,0545118475514506
0,0580646819145955
0,0551919665333978
0,0579637264306421
0,0550551197734534
0,0568376085640905
0,0544323204976698
0,0570593888171922
0,0562611648561226
0,0605787686969635
0,0565250989786924
0,0566472294891585
0,0535639519065785
0,0548310939690282
0,054843187037749
0,0537759114938483
0,0522921253920078
0,0581376372264841
0,0545316904970863
0,0546281757564689
0,0532920211865261
0,0562930866423809
0,0509282992997567
0,0548081565693648
0,0510297248329179
0,0538557495257978
0,0504756373426425
0,0518577109224439
0,0533096070571834
0,055725371982113
0,0498594486665195
0,0534972981156033
0,0501359952941728
0,0507260428165
0,0526105865996793
0,0520555452814722
0,0470800943909647
0,0524894955335276
0,0493666094800315
0,0496995100409121
0,0493776831799642
0,0500531398092443
0,0489780979975259
0,0490595674086953
0,0480759540090093
0,0494672943895528
0,048738369858367
0,0496809593782683
0,0443905426946126
0,0479217077927551
0,0494440417424939
0,0479245036758219
0,0480834411171659
0,0519446889976245
0,0508655145475914
0,0493244755098258
0,0446564702165164
0,0478574994557734
0,0465905698619366
0,0490032131318571
0,0476213863894983
0,0508505422329392
0,0465979375886466
0,0484476357114028
0,0482845984157632
0,0496724571387606
0,0484381366889228
0,0495262914374421
0,045545803241119
0,0475826675616321
0,0455421032409147
0,0490273193644793
0,0430703938784821
0,0473837859694049
0,0434287272746482
0,0486192730583904
0,0437279260491924
0,0421955288426104
0,0429305617442516
0,0449113836136527
0,0449931224525088
0,0517089928763604
0,0481400916302449
0,0485488536408302
0,0454532716476435
0,0459906745534238
0,0455450686174288
0,0493392412945042
0,044118967467447
0,0451124432668472
0,0420216214488033
0,0480372634393513
0,0456328121718165
0,0467086438960457
0,0430654420544836
0,0437864800989898
0,0413502505265502
0,0450460758999981
0,0425514613608999
0,0453760202613129
0,0424407076991035
0,0439139034537982
0,0397941185935115
0,0419749906402746
0,043301110980786
0,0461725702258782
0,0425339394205471
0,0442613292849901
0,0430180138592056
0,0402337379310267
0,0386733849458858
0,0412718501152299
0,0408933311699135
0,040471651680525
0,0419283569689409
0,0409225469902824
0,042192449073678
0,0429386656833881
0,0412011738503544
0,0442209495184113
0,0408662655393588
0,0427511650322064
0,0399201918580144
0,0408872210386285
0,0401649129771876
0,0465501539833854
0,0420803513227865
0,0418416981564875
0,0397226019399219
0,0440864791494031
0,0411179236485858
0,0406798847200905
0,039936128256244
0,0431083564654275
0,037225170798242
0,0401949566311026
0,0388821125861343
0,0394040166709968
0,0393551387674755
0,0408130390412091
0,0401947856878903
0,0397976649966504
0,0372794139621077
0,0411699576858523
0,0375553268666929
0,0387184186469779
0,0375134636820904
0,0402387568863383
0,0361035973311373
0,0388839083828021
0,0378389571219317
0,0402722686853225
0,0377777472955672
0,0384314090791582
0,0367728060155059
0,0405211746061548
0,0350651051931123
0,0401868620222587
0,0365494482996803
0,0373943688262004
0,0359471456573423
0,0388817265384941
0,0356364606463138
0,0365040097309503
0,0363270038987067
0,0377476959507779
0,0358472545299636
0,036998362285684
0,0338867426430737
0,0382573176177038
0,0338594078697331
0,0387990559365236
0,0340727042795861
0,0358485092640105
0,0338325807439295
0,0377706758035892
0,0339035810959339
0,0371649565166672
0,0335285404859148
0,036407831985355
0,0300709507729676
0,0369552565807458
0,0336490978529354
0,0364275317203539
0,0308595245344838
0,0338130198580963
0,0338637631358807
0,0365872983973825
0,0333092398202358
0,0341857326123133
0,0329888079014516
0,0319558565930403
0,0315343461673595
0,0353750513927061
0,0311877905995455
0,035257167262437
0,0305669586636716
0,0341296082989804
0,0299582019261754
0,0328667274456995
0,0298398618375577
0,0331074895991439
0,03234358840714
0,0320292157956642
0,0287985121261324
0,0326289660644887
0,0307841984307463
0,0325151960172747
0,0306491896389946
0,0329624941660588
0,0312409339467547
0,0324128871404945
0,0281964000063251
0,0314567819315052
0,0297116017305587
0,0333141952410616
0,029720165796207
0,0311429334872797
0,026262959955078
0,0312050118459692
0,0269522295544883
0,0334403662029603
0,0278500030468716
0,0315612809828673
0,0265453350760128
0,0303219912354445
0,0282460186263641
0,03225299162481
0,027966991072728
0,02870460976445
0,0258108051329119
0,0328234301093772
0,0250446867033128
0,031032510699151
0,0267210493451936
0,0305685953060781
0,0272234563247386
0,0293966979542431
0,0265789184864454
0,0292811898082628
0,0252305669362128
0,0295489021713162
0,0257543377303419
0,0288728541625153
0,0251757283134096
0,0305961796562501
0,0223890111586895
0,0271049363346246
0,0270985762010712
0,0310937935116389
0,0263146858401742
0,0300396077809215
0,0261884115555466
0,030757240641951
0,0263327921630329
0,0293396815819763
0,0257441587782797
0,0285298467092829
0,0282311412322203
0,0300480237089089
0,0303504500819676
0,0286691414381373
0,0251863206834322
0,0316271653505058
0,0234942774899746
0,0304075137926789
0,0233126237384484
0,0309132224876131
0,028760505037888
0,0352105932891495
0,0309177399648929
0,0298338017003628
0,0168296624383602
0,0270054687908049
0,0263304885412811
0,0364026408807453
0,021217651085418
0,0375386430106203
0,0235427505300394
0,0274590332625194
0,0203169489526115
0,0329035690609904
0,0217151905055421
0,035387200832108
0,0235737345437977
0,0356767876417492
0,0210711319163945
0,0367953270201787
0,0247668012445228
0,0312592170343894
0,0248008692859925
0,0350300167718911
0,0162294441658017
0,0287163350255152
0,0193794697166606
0,0297796830092806
0,0143919732742914
0,0373117866885893
0,0123096421974359
0,0367849047010601
0,0129067795063864
0,0356191744843443
0,0120184485129006
0,0379131889173944
0,0107572874399906
0,0464140314078009
0,0119573292821564
0,0468419418331916
0,00520282662979965
0,045107620488862
-0,00310443580025251
0,0497359418157164
0,00324212158829098
0,0650347879484068
0,0023847597928611
0,0504021992590946
-0,00719321877892588
0,0630868376900199
0,000658883232095034
0,0566235977747864
-0,00557346696465936
0,0556766931379263
0,0107464377728937
0,0409827854171868
0,0114270413839109
0,0392285698418334
0,0269106267472759
0,0202406486552583
0,0312398148145192
0,0191163466388306
0,0403566600754713
0,0135502026238201
0,0439133995954638
0,0101862951708085
0,0366819326757102
0,0168435765416364
0,0303041820198971
0,0243259863553786
0,0258878455609367
0,0261575183432683
0,0230205034453315
0,024108877688024
0,0230976317878757
0,0236392996903057
0,0230818003117232
0,0210559914810206
0,0250619107763797
0,0223483503558161
0,0266308439570365
0,0217467544199512
0,0259693756481237
0,0231117934037876
0,0229695569712252
0,0239972105029927
0,0226341447431547
0,0251214205414186
0,0240360885103294
0,0221970128699675
0,0235440927546408
0,0221185868240678
0,0235951948990217
0,0229158847204274
0,022528921248266
0,0225699593561625
0,0217595765971059
0,0234906486293608
0,0234150102224676
0,024396370728715
0,0235453818948622
0,0236713995965491
0,02456623110199
0,0213630223493462
0,0210095373965584
0,0238759065801052
0,0241329546736864
0,0240252132801984
0,0209937574146946
0,0235821605516937
0,0226815467635237
0,0252892439622295
0,0238161358267717
0,0228455752132221
0,0226309375307848
0,0246435548699815
0,0231642607661746
0,0227272675368242
0,0241497114328845
0,0254910789750577
0,0251293058161058
0,0240030327910584
0,0227025495190795
0,0227720668861753
0,0248430971037397
0,0207712715054593
0,0227486339214583
0,0235681053670514
0,0240733967339796
0,0247148545336977
0,0246119965901242
0,0244367536103958
0,023590013600693
0,0229212479683032
0,0218852606546746
0,0216551455014244
0,0213323292030299
0,0240383212062781
0,0220835388226988
0,0250795031192735
0,0251560482552605
0,0227727429304633
0,0221019322201592
0,0240405764268458
0,0246677285897879
0,022989104812818
0,0218938136184025
0,0224034002348204
0,022054296532539
0,0253961504448007
0,0227261196692928
0,0212346485051218
0,0219968605223298
0,0233207818362841
0,0237100891727943
0,0233293932895556
0,0236925040913396
0,022876475141528
0,0228752714564563
0,0223110628499214
0,0220707298589461
0,0246424677165996
0,0220843493104418
0,0247446286332654
0,0229540402163147
0,0232390339747109
0,0233021280076057
0,0246748414983657
0,0221163485876167
0,0233129707274669
0,0239601507364386
0,0236503361553795
0,0242093381685093
0,0276489699921919
0,0244816158832437
0,023578818805729
0,0242819162456018
0,025740959086924
0,0243952042177367
0,026204087917616
0,022206694458697
0,0247317537248491
0,025680906219791
0,0240449959098248
0,0225119324297577
0,0246026121063347
0,0228816886025631
0,0243675369060315
0,0237820503224412
0,0260386133310266
0,0228447159161922
0,024653469424097
0,0221434445514359
0,0256995956418088
0,0226718203118343
0,0245826442072635
0,0226402220998538
0,0240634785847038
0,0207028629665698
0,0253982266175725
0,0229514308537856
0,023817785752923
0,0251436163103923
0,0254589015492903
0,0234281362812613
0,0250588260391514
0,0243269579103796
0,0254719362095533
0,0241083648143266
0,0235030450980338
0,0239772278706758
0,0252093834253634
0,0243929710781808
0,0245435162283936
0,0241769554802035
0,0255780635597029
0,0229018389483647
0,024577516836924
0,0241420075916619
0,0271997063052409
0,0229315050614808
0,0258789194360472
0,0255208812868058
0,0252936985841796
0,0249873444724795
0,0262157133580886
0,025252979648247
0,0260611980646802
0,0234985849714346
0,026347295444338
0,0251239486132924
0,0244880946997794
0,024256107999547
0,0263042617266886
0,0230886936387874
0,0258172389863451
0,0241201191597534
0,0251219601988592
0,023633536350649
0,0271677674834646
0,0219422535566402
0,0250238771239826
0,0246629005318104
0,0257206127427411
0,0240205854188391
0,0251079892946166
0,0247604350173418
0,0263782930154738
0,0260147807766662
0,0247385946454482
0,0241114773558567
0,025443500294593
0,0231438974849664
0,0266692494939402
0,0240234037297615
0,0235480268324879
0,0234845913125386
0,0245992192829192
0,0238581653223975
0,0232905620370523
0,0218887275013924
0,0256863340411379
0,0248857584274249
0,024402673232111
0,0231662967105045
0,0254041332337725
0,0229004343080642
0,0238285372611862
0,0226051348458406
0,0251896838064427
0,0244549888917775
0,0237476893475629
0,024661541454152
0,0249247951168114
0,0226241375188535
0,0251327802547182
0,0217209974711011
0,0238912248086498
0,022864507496016
0,0229615250117525
0,024829600549879
0,024015941588663
0,0226602627111301
0,0258426378348463
0,0225774574187626
0,0234789731018799
0,0240593346832268
0,0253789675818184
0,0237476183178997
0,0215434511236537
0,0217372081783386
0,0245325731630231
0,0224677983812835
0,0236820240925566
0,0232767164242486
0,0242809542433035
0,0229336839247211
0,0233703835894513
0,0215653829090207
0,0251241277219083
0,0219427456383346
0,0258437650596938
0,0242202392502523
0,0212081801294326
0,0209167191668692
0,023317252330832
0,0210513758400768
0,0235567523856777
0,0220082957317327
0,0245029985945391
0,0248031331480302
0,0243372856538477
0,0236237439021648
0,0241576621685742
0,0231147394831003
0,0233611979093373
0,0225159429480194
0,0222129645641793
0,0212610377017772
0,022992642028983
0,0222684937841295
0,0234337685561272
0,0244649440602994
0,0221402476398773
0,0199380330836667
0,0242231963520242
0,0229489521088802
0,0221439836127897
0,024120682751349
0,0251871572756134
0,0213251831986151
0,0250396705731767
0,0200614050499803
0,0245201625131636
0,0202380504125247
0,0234982593363281
0,0215069034603815
0,0233229540373591
0,0230711257244061
0,0236519221450518
0,0220184365996992
0,0230813695638714
0,0214029738086856
0,0235322548428405
0,0223825564452997
0,0217822778208206
0,0200493682995375
0,0217128010423513
0,0222175647448441
0,0218001380406829
0,021179565768884
0,0231226409203799
0,0186516016209479
0,0231762463553679
0,0234046579941805
0,0205332195756343
0,0220510183964367
0,0242591762783504
0,0200311661532244
0,0219270855081625
0,0204347057654331
0,0212943468515205
0,0204372656320168
0,0222239399542603
0,0214845090756174
0,0225201065987846
0,0208625384565437
0,0213707541726837
0,0191021490978969
0,0195069951230739
0,0188450478345969
0,0229783360263517
0,0202155286022731
0,0224038019166444
0,0194093605735756
0,0193898601736678
0,0216454787151483
0,0210177874502075
0,0203072687826443
0,0197004258671798
0,0246364094070033
0,0202232113711423
0,0188810096037519
0,0205509825875314
0,0203643557047313
0,0205136269135063
0,0187519805206863
0,0202586143982868
0,0197715563148919
0,0221779156611856
0,0201772939715934
0,0214279451776193
0,0186586011512804
0,0211917593337336
0,0196029350093047
0,0201507475550043
0,0182229656145224
0,0199224709152564
0,0168890773678343
0,0192732409050502
0,0169602203039693
0,0188614633291531
0,0192160736661682
0,0206808556124039
0,0185755723392299
0,0209532647039497
0,0158954740242842
0,0242581740030432
0,0193727479220118
0,020901787632659
0,0182316808527162
0,0252391701483311
0,0162998458291846
0,0205187670954129
0,0170221022923989
0,0210102512480995
0,0185053737251139
0,0212939832041924
0,0170944304044468
0,0208315471853915
0,0165471885788266
0,0198937666743333
0,0162048375252386
0,0190012724240582
0,0191522592815554
0,0209709120601142
0,016125253692761
0,0165601837433892
0,0159362847706722
0,0191137107076843
0,0166369829142452
0,0226076505897763
0,0160708546176715
0,0254307948755836
0,0177833740203286
0,0216771227986946
0,0174520285509747
0,020786466264133
0,01813037679124
0,0197211158139325
0,0194928358335023
0,0189631465445404
0,0172213950371847
0,0198278228730237
0,0156072001210839
0,0174450368526666
0,01813151408692
0,0191344462356465
0,0166706360000229
0,0194916765462355
0,0148564699779511
0,0201209654496893
0,015234274384849
0,0198599463215008
0,0165308562415193
0,0201901809701771
0,0169466575582957
0,0220798782042138
0,0184167899371636
0,0135714280477869
0,0313328805847303
0,0165995955094868
0,0200036409888494
0,0169525387438781
0,0183459574950962
0,0195462178091212
0,0195949616163639
0,0173197619772363
0,0174744560518038
0,0159406380076398
0,0206872970093822
0,0171748933602894
0,019639529400707
0,015046108474026
0,016638750121039
0,0170777221908655
0,0194071013105356
0,017074592676002
0,0190781012897553
0,015427612305741
0,0178254122711881
0,0244065519121819
0,0207715564676481
0,0161618460846358
0,0249981142872553
0,00720843667455765
0,0292262508360903
0,0216795059862269
0,0175774899376656
0,0205132439241879
0,0141161009888505
0,0189478267172445
0,0163348084122912
0,0212523577522856
0,0139358638642453
0,0260948970264541
0,0129811653802904
0,0226972943990966
0,0156392201921442
0,0194997514039603
0,0154871678000209
0,0185693996666945
0,0145892137743621
0,0186371297772443
0,0156025452819424
0,0164310196686837
0,0166296172183443
0,0173860492167367
0,018460696738351
0,0166510251114524
0,0123804731741729
0,0249869848348687
0,0178234812188835
0,0206766699939161
0,0156988696638974
0,0176945962664037
0,00838169593754523
0,0381730817054599
0,0110575521115607
0,0244302642235413
0,0140656715495752
0,0199018909285298
0,0162306061060025
0,0198906244267908
0,012871383027634
0,0181965443112725
0,0137188918198242
0,0185050120419289
0,0146659622394249
0,0199586550874352
0,016700110535119
0,0162324857541471
0,0142793782417005
0,0182968541212256
0,0164372806760308
0,0120139493251747
0,0212143835173931
0,0120897953466306
0,0148318280911222
0,0312385976291002
0,0189113216049711
0,0276496012253401
0,0164736355670081
0,0214447460060945
0,0129615945069388
0,0216711637777989
0,0148065224095482
0,0230172312127741
0,0104439918254473
0,0224459690401507
0,0131791761962558
0,021589084047367
0,0128812530509783
0,0209723804471997
0,011154378079541
0,0220169682021279
0,0102981368860061
0,0219936859930815
0,00902497295747031
0,0239589068598793
0,00637839590308322
0,0271430182720915
0,0102298512330459
0,029043812117746
0,00363201254264529
0,0291147912463842
0,0380999449906134
0,0130409479550155
0,0259371508003382
0,0129755364165159
0,0204013076258928
0,0156374480506585
0,0150469412350124
0,0209715082371806
0,0174967179384824
0,0159962039550599
0,0179911069941386
0,0169513243748171
0,0207192266961549
0,0150173404044264
0,00615798899956434
0,034814425731634
0,0203040847315226
0,0214838727702667
0,0188894997123329
0,00510112330450154
0,0351074463469949
0,014914775805103
0,0236633906867453
0,0201303368291284
0,0168084777134404
0,0187940061347143
0,0173467579953261
0,0159226545201529
0,01819588434415
0,0201466517585839
0,0156270667156513
0,0245151098261363
0,0114295154885317
0,022963042820127
0,0159218540025897
0,0234302895924493
0,0256538634143308
0,0149749918927744
0,0204247619063896
0,0209469461401314
0,0153507304419728
0,0220138999291343
0,0149881051572952
0,0174068898467962
0,0182206473878436
0,0310427278200869
0,0125408955184318
0,0271508592286498
0,0256306080861739
0,0153186984956993
0,0202158600596354
0,0217129118212467
0,0250538673857471
0,0184946204750143
0,00127853358260037
0,0530358782819099
0,00620215561645626
0,0460952510918057
0,00775372313867599
0,0316092995968608
0,00964977781351381
0,0309722799840085
0,00262644929924679
0,0371403788561057
0,0138975038537045
0,026018389721628
0,0151493881666446
0,023225237741554
0,0282514762265081
0,0208190916200174
0,0210341664471862
0,0204632352971651
0,0184779004717641
0,0238326317976966
0,0275875567508382
0,00208975258521835
0,0372653248220016
0,0316525169407652
0,029282571164744
0,0336591853869905
0,00298641344497088
0,0550499665568437
0,0203476256353282
0,0242163900547773
0,0189270834991001
0,0233249350303456
0,0235271805965499
0,00725790057474281
0,0404170879338277
0,0307717280186492
0,0152227280095237
0,0328868063855631
0,00654242165323088
0,0348791790394254
0,0262697826714033
0,0280446679388018
0,0181703610609574
0,0324494434697575
0,00394758434123809
0,0447243035521719
0,041371552747
0,0141450551442819
0,0516299104252124
0,0222588017213388
0,0380017324765232
0,0223228451802362
0,029733968784172
0,0224624240450844
0,0415726355448463
0,0256797054407442
0,0230372774665862
0,0182729247594606
0,0569127637568098
0,0141267102824739
0,0392514041423449
0,0244967258414632
0,0206103431136945
0,0288414111914802
0,0645900610376749
0,0435689678122606
0,0388688724765397
0,0215886219839474
0,0517241823542732
0,0335866774866068
0,0303681406684363
0,0328670958519649
0,0324646409375407
0,0327107266072569
0,0253813792800992
0,0401072033264295
0,0353372809730882
0,031306511263598
0,0348580438623121
0,0232425459199714
0,0382167972987119
0,0365128044915596
0,0729851992780208
0,0233077234698694
0,0730735821564548
0,0509539890141923
0,0425660130532493
0,0397679192744493
0,0314621834785558
0,0490908642644078
0,0399102850276057
0,0395285888471222
0,0274325451583773
0,050838015204418
0,0561068676986327
0,0227206765091684
0,070525087584979
0,0310777201065925
0,0590176849821546
-0,0132434255211526
0,194265071224662
0,0561858882709378
0,0580963072400968
0,0557934534053696
0,0177795355559508
0,116894929098241
0,0555692562397179
0,0548284137939293
0,0557984247642202
0,0543792379084979
0,0551696478050319
0,0627828779429482
0,060483838542093
0,0713064009975662
0,0701166912024508
0,0586330760703798
0,0620126184116584
0,116579862395977
0,0952534757797669
0,0957879278414511
0,0673758910430809
0,0870878899761329
0,0907560934450311
0,0804069685178195
0,081470616643816
0,0886474300743818
0,0518865504231111
0,149208229783326
0,0778390314116212
0,106918834802482
0,075475271301536
0,134252618245806
0,0725283462691316
0,129132617140613
0,127363386627438
0,104541612228699
0,114341084704893
0,100200736090925
0,118415600506979
0,091739434722081
0,135694777909161
0,119552823603411
0,112662518897899
0,126029041027879
0,116614586514013
0,124739906532928
0,115619608889993
0,135018921167438
0,108003211351521
0,151818203069607
0,0943204577501124
0,206130160632229
0,156536757044607
0,122874526631736
0,141319663182051
0,116377078516082
0,161609965486043
0,127518571491923
0,13719490290503
0,162128248321812
0,120078165059078
0,139313566696605
0,122487024740737
0,141436759448513
0,121536125311539
0,144519222468101
0,11140431282952
0,146105496242525
0,131269285685513
0,107733290770025
0,200130506970409
0,121213752536779
0,132300446988858
0,123438293665216
0,129991099177374
0,121254347663327
0,130914347705709
0,112901027387137
0,152291099310775
0,111371006313182
0,135725343586699
0,111563071006341
0,133087154048563
0,143833771014874
0,116345094615875
0,126660858051906
0,114711639013168
0,125325169111659
0,115667863656807
0,0891375985669574
0,165534969183936
0,110500356828997
0,126183859751595
0,114772887049112
0,11526744846651
0,115046277573899
0,11240283976429
0,112643023426166
0,125299302652056
0,105048210728375
0,118770779976037
0,108089474011981
0,114389887970434
0,108221016482068
0,116835741539199
0,110582281387078
0,110523319065889
0,117690705061027
0,110568019387616
0,112578360680817
0,108547442652866
0,110455033762976
0,109051352458691
0,107736574127014
0,115702247142659
0,109025017362637
0,109329748088533
0,111955152696373
0,109214056823928
0,108418310601618
0,104101811124207
0,109023346448951
0,107905943853578
0,108059451448054
0,103949627108978
0,11160826284772
0,104013087098432
0,112237942698097
0,103695439428473
0,110753750361027
0,0950185800478326
0,115240509888317
0,0873255418140937
0,128037401891272
0,130272850134204
0,0920576782893629
0,110058681496211
0,0880706505982206
0,107194350789609
0,0794692359304984
0,113521396170968
0,11559638800398
0,0956833241917325
0,0973491044549555
0,09092713437575
0,0885167925609347
0,110189242361893
0,0821247522832351
0,10221487212613
0,0744912389610896
0,0832000189811078
0,141847287148576
0,0622153542545327
0,161506107439748
0,0970556736662867
0,0925328232057491
0,059068605070511
0,124756412854701
0,0711052247094633
0,092142247573545
0,0737538218491415
0,103201419829496
0,0986854043183776
0,0753301270749546
0,0870680551399581
0,0721209690721249
0,0779161777394103
0,0996992649961846
0,0779989480272449
0,0716334294181768
0,108966276313805
0,0719382655339333
0,102324051089459
0,106650412751683
0,101753856228328
0,0733485579519509
0,0756475946936616
0,0828310619989401
0,0499516498398238
0,121904768834049
0,0747597208151948
0,0789971514175517
0,0772240997922304
0,0609373798355041
0,0774301690397212
0,0679749393683117
0,0916688126534078
0,0492374797010863
0,10780445107962
0,0578813066233163
0,0715505471279458
0,0793742681876093
0,0707507735828461
0,108681413180914
0,0780081066090048
0,0664184462852868
0,0639367702131907
0,105645903060454
0,0640466587061984
0,0836448126483819
0,066981384140816
0,0562586474633367
0,088636393739553
0,0655178137424285
0,0674566619750428
0,0788784797463824
0,0627274348509572
0,0980047141279251
0,0819745738120071
0,100879071111064
0,0789214898773751
0,0620263817340568
0,0703106815969715
0,0661579457485047
0,075495838959143
0,0610025846536294
0,0712014492253932
0,0930940165383729
0,0403203806880346
0,116766329921702
0,0762298477084167
0,0710298184139259
0,0730258732132602
0,0720244997289498
0,0696041900871717
0,088293289747874
0,0923596631350327
0,0955008177062191
0,0717935886143529
0,107560706405388
0,0720683157237143
0,0942288922925659
0,0768565183047909
0,0917228192624489
0,0812422104059836
0,0996263920518298
0,0916117239572825
0,0970965652864509
0,0912460300407554
0,104566524733259
0,0846678963395775
0,142612477351904
0,0865935990175925
0,137287339536771
0,111282292933117
0,139382554275269
0,129810894438212
0,115340596265183
0,12639162668648
0,120811243213152
0,128197462464939
0,133283910012394
0,118379531931704
0,168483124751492
0,127614979488096
0,145452378219905
0,131269933766855
0,148788265196909
0,134671639563151
0,161088988311044
0,148863672806808
0,153079903791792
0,19976067941351
0,148760559014491
0,164018579183969
0,143612002126272
0,161080335975088
0,1589034065607
0,147584934118736
0,160850017170716
0,145276867607122
0,172749087134979
0,160287348602518
0,158504808361131
0,157606503822675
0,153774017079224
0,157658214010602
0,15896901643267
0,160499015782255
0,163775451536842
0,160291828834134
0,175406572082145
0,137389754691099
0,209819581437214
0,181640727268255
0,164513349122412
0,175216748765359
0,173180962287697
0,181871111771485
0,166147262911265
0,183845014070956
0,186562645001763
0,175916217077616
0,185219805412684
0,176689554005982
0,189991236927091
0,178353498251835
0,208239348223971
0,179664632589068
0,19008536168923
0,190013794392708
0,166451266787913
0,237669786541638
0,183425002753941
0,21268745973173
0,188181323109581
0,20098166366098
0,189835977870195
0,194460325376343
0,191022716477546
0,197405381571281
0,191231373248514
0,194448602720311
0,191734498032287
0,189625412155965
0,195401103670742
0,18618714379632
0,204562468008054
0,19268888358783
0,186160337285683
0,187137458540827
0,18860185745917
0,182594182452385
0,189404705753893
0,200803498058536
0,181609566703953
0,19389479865169
0,181906893962544
0,19638211749624
0,193945472705481
0,181984546454477
0,185807257059741
0,186714435485529
0,182787032112651
0,194236156617191
0,174757725408933
0,206207650868425
0,184874208560178
0,19573516198454
0,185178315575874
0,193190185123263
0,189485835834852
0,194793185129049
0,189111392761954
0,19723291809001
0,192712930696687
0,198304105138684
0,196685601948756
0,196446767558798
0,205845797386114
0,204926208067976
0,20561609829488
0,203480259546841
0,196995464942376
0,201064301243959
0,19126442105915
0,203235984609989
0,189560386064169
0,196017322144652
0,189250549294295
0,19513281066234
0,175841372301069
0,20839103876281
0,18381561800088
0,184943114305067
0,19139185487517
0,177621610537658
0,187221170615252
0,178784090020086
0,181515037625614
0,174700261888238
0,180550011393453
0,173787531206186
0,176733001973949
0,176951950914761
0,174961930382213
0,173508468564795
0,175226971258161
0,172574504439719
0,172038015278918
0,174398789533188
0,172287891477103
0,173516448431023
0,167694123879933
0,170610871693108
0,164811322364886
0,171981366805841
0,180193686134147
0,174554001795837
0,17586977111448
0,163085037969288
0,176002612160431
0,16204143016084
0,170192397825168
0,162759191571892
0,169052654566437
0,164639170170169
0,170291540990783
0,164762096477361
0,163733727611697
0,162191628775557
0,165320947220156
0,161494045334958
0,164121720753595
0,161271856897531
0,162286997382246
0,157888165452381
0,16166574074307
0,160489835624667
0,161402046722479
0,166598792224684
0,157529709035793
0,159396993205136
0,154935783462276
0,159444444044009
0,157037972642327
0,156946865791243
0,155186774893677
0,151641489043262
0,155155424451935
0,15499206184434
0,155563106273478
0,154653313815265
0,154956897715386
0,155618474019807
0,152548086565555
0,150917020631186
0,151082741033738
0,150683991681164
0,147721623951882
0,146045769712721
0,146700029868055
0,147715350163201
0,144801852185608
0,142045567762055
0,140232524003246
0,140128920410476
0,137968776904847
0,136144664777919
0,136026021016515
0,135850633274867
0,136105004565478
0,135220561963543
0,135047493602881
0,134202454378089
0,131757217550477
0,130913254864677
0,131652513756702
0,132752412687391
0,132654123559029
0,133339608625989
0,130288865532645
0,129369299845401
0,133722934253006
0,133773481149473
0,130578018633286
0,133666646959703
0,131524624731005
0,133191540263418
0,134485650805651
0,135375068303544
0,136472940695992
0,134943004882414
0,135196432686822
0,137123405541828
0,137352007491477
0,136540194733717
0,137203961079623
0,139815458834258
0,138496822139975
0,140791442551951
0,140124640145452
0,139267573994652
0,140040734311819
0,140314919315189
0,142278482709643
0,141227869634602
0,141448366596066
0,13959831612052
0,138953697365416
0,139150565605967
0,137991933971285
0,138077165181973
0,140620881635712
0,137458798223304
0,138083892928092
0,139027805690748
0,136390457787881
0,13638355613382
0,136470293093246
0,137028285049188
0,136954779073366
0,135576634215677
0,135240512670951
0,135045450744292
0,133404046352698
0,133880854059373
0,133602620648971
0,131960915384357
0,132291583018412
0,131261980159582
0,130199328777823
0,130953166144778
0,129698089562314
0,129105119559447
0,130169718187418
0,129164943517255
0,126885994989852
0,125644538304048
0,124813135857746
0,124380884909452
0,124831653216671
0,124796991666772
0,125721452213141
0,122850449099064
0,120962689241767
0,119833817838157
0,120149331812822
0,11928843409696
0,118889812230232
0,11909672309891
0,117582742606058
0,11726716803548
0,116380569156396
0,117452556075887
0,118033506649585
0,115921919314973
0,115077291946272
0,115060752141976
0,114587328493724
0,115314150537298
0,114779071196558
0,11329640393932
0,115223538972383
0,113152397085222
0,112366468105338
0,11286896358768
0,113492837993311
0,112541667897579
0,110436594231135
0,111157631170526
0,11077378379682
0,107815927907785
0,107809404440373
0,10590534917807
0,104964631516904
0,103999223057531
0,103150424525118
0,101590896789054
0,100425770582418
0,100804581080508
0,102668489910504
0,100017128132335
0,0998348842241701
0,102535407274989
0,104028369937095
0,10557174410946
0,108427932720626
0,111308700358363
0,11467199994437
0,118747947058147
0,123390667871724
0,129927475762415
0,134346401943725
0,138029506477643
0,148368309352014
0,153490086420758
0,159974799069724
0,167785099800054
0,174880738431738
0,183433492637614
0,191332013684027
0,199923143327211
0,209722414345408
0,219348931315835
0,228747046717375
0,23951214776587
0,248471662667131
0,25683704383331
0,267859120628126
0,276643856847901
0,285390287081206
0,294123257525079
0,300018950562664
0,307935690057064
0,31558851936571
0,319516406002592
0,323919505405321
0,327518723928523
0,328862327891811
0,329506578268677
0,331243523719661
0,332295529297281
0,330790826542713
0,328524919995275
0,326375371001134
0,323901520499988
0,320197387155834
0,318321733505957
0,315257276118641
0,314687766988283
0,312188164548539
0,305784803745953
0,305895166257285
0,307368525115805
0,306576524048954
0,306988069676149
0,303645220532818
0,30657744439765
0,310901788820404
0,312364881951742
0,313277238491231
0,315085420050753
0,32127543376312
0,324625001544806
0,32652779807941
0,3280217458275
0,333489558627742
0,341576947982921
0,346233577838685
0,349160119082123
0,354487148666363
0,359678936034488
0,36062347375236
0,362075509872878
0,3671673372254
0,370134821109231
0,369940467179168
0,371424249620452
0,372857113341113
0,370295724555403
0,373672851271859
0,374385886558024
0,372048963744135
0,373726532995348
0,37438915387179
0,374812134922758
0,378260337602301
0,383085088296986
0,38496724544764
0,386676147093131
0,390870066051566
0,395625294848796
0,395437582694905
0,401405695192342
0,410538852233245
0,411574249719424
0,418999473524753
0,422423002734461
0,427372467266678
0,43815067666158
0,440986058478288
0,443054522562083
0,451730003806478
0,461777262611064
0,467993941190368
0,475547933513723
0,490140330000374
0,502335070928374
0,512494263014917
0,526377936886753
0,539139442097824
0,551831616602821
0,56161514578734
0,575078844331479
0,589756023889763
0,600518777071086
0,604713060822998
0,607186609472934
0,613051640037396
0,616403430235318
0,615403329021877
0,614834223149509
0,614520643742254
0,611534143767082
0,609521559264053
0,60779952739467
0,603378514376839
0,596231324718282
0,593620223384611
0,596216772664317
0,588060347922068
0,58468023505964
0,589270386342753
0,583103020035581
0,584457732678403
0,590513391504246
0,589021724170528
0,597837202327878
0,600151773673932
0,604112265607979
0,611760358371111
0,617575998549419
0,623829415757902
0,629216036958936
0,636519314147649
0,645423603160093
0,657409961729581
0,658255659673157
0,670059017513186
0,678547380023525
0,677124703893754
0,684108733730371
0,688639936662387
0,70376736501
0,70954069818271
0,713200570473543
0,720188420477348
0,724483264796797
0,721457089942114
0,730568167118701
0,732794958549868
0,739126766491265
0,740972611386216
0,734736909127093
0,746215579010567
0,755717687586446
0,749377401584391
0,748593952931671
0,761288914010076
0,760764131578857
0,751376445002064
0,747272700660348
0,751270941872905
0,754602948678642
0,752447070375549
0,745638618333778
0,743110940535804
0,735032059050924
0,725276698642124
0,716049110051551
0,705781823490164
0,688716047624975
0,674920213421391
0,650921410329561
0,635006061974112
0,614032981138803
0,588094284341221
0,571256617520493
0,549595074544316
0,531262068329175
0,512133917423036
0,498864941943091
0,481392466776337
0,465409458595873
0,449619394577833
0,437659880851574
0,428692197948883
0,417901994279224
0,407972672516938
0,401140287892
0,39613759952242
0,39231133664558
0,383051055393879
0,374519632033934
0,370423663214132
0,363888461429997
0,353302486285521
0,347089702057682
0,336158951691279
0,319460110135191
0,313728245296085
0,307343505016138
0,295289583472585
0,286734880516935
0,271417327595415
0,257481626469316
0,24793119341234
0,235608384569854
0,223206645728279
0,212003739543003
0,201172018497657
0,190849332379084
0,180672337428324
0,168235876998878
0,15850966952609
0,14984585829466
0,143552429606191
0,135844964148187
0,127919108022448
0,120793425679189
0,114102751950476
0,11072236955265
0,105233546865421
0,0985653730234065
0,0947883415538646
0,0916925235720473
0,0871939120973872
0,0886717588286337
0,0838612314002471
0,0809738221478832
0,0805780822494889
0,0788267818413603
0,0778014651697773
0,0784240773855836
0,0767599653245451
0,0757510104166099
0,0755895588369742
0,0750952636832839
0,0738354662235608
0,0741631994562008
0,077304951270721
0,0769450499074798
0,0767964121766715
0,0811292143654125
0,079236527304244
0,0808162377252668
0,0819853072837474
0,083156891370277
0,0847024010452017
0,0832706397592976
0,085742874833665
0,0882727729240317
0,0894414852311377
0,0910886467303506
0,0880268655907796
0,088439500103918
0,0922654108566929
0,0907601082723145
0,0894742807708241
0,0928892788735934
0,092033442867238
0,0914722509042063
0,0934935628977141
0,0922685659975988
0,09200966982302
0,0945502672658107
0,0945803788897379
0,0953218615940167
0,0983414350829223
0,0981241967625868
0,0962281652652349
0,0965283292942894
0,0943071520372874
0,0979726888802297
0,09564438310699
0,0975282354683202
0,0982383793048197
0,0970697094140155
0,0954927328553188
0,093920399306302
0,0928137685133433
0,097763628084475
0,0944132512524949
0,0965637080313392
0,0948349712306842
0,0949288921929438
0,0891537360261575
0,0918925879980126
0,0960188917680438
0,0946372148034235
0,0952460358151402
0,0959533736213769
0,0975985656352727
0,0994774530392825
0,100940846767412
0,0989749327157521
0,103467281189971
0,105907468332149
0,106738862481159
0,115216053991498
0,113227058329969
0,115301866405447
0,119401945634325
0,118178722850895
0,119479969684822
0,121810233524443
0,118526150755496
0,118385161347213
0,116287572251994
0,116221378185501
0,114208819878298
0,111243638809926
0,105073869154151
0,100334161525759
0,102124700111442
0,105901374619692
0,100555723620596
0,101471415720604
0,0964414132392971
0,101446382063841
0,101833079456279
0,101306250493435
0,100247759847444
0,103419641663443
0,101814007536696
0,105058829476221
0,106870792143776
0,104617430621981
0,102025556957607
0,098621960819047
0,0993241125956773
0,105703095307132
0,104200297050729
0,102670071861426
0,102692976990601
0,102638172475808
0,0996450790520952
0,106852206146601
0,101859763999054
0,098302996654457
0,100045543157052
0,10125021336323
0,101283106974894
0,100966275257974
0,0969809353270125
0,0982240600668464
0,101727399073045
0,100670070329975
0,0964393988414208
0,0939256115661599
0,0993666397561173
0,0993216942874623
0,0928842701692361
0,0964135177940103
0,098396008337378
0,0991880317568503
0,094441053651742
0,0936702521890636
0,090280361284607
0,0957018281201855
0,0926734037115665
0,0948597128681752
0,0878272878972159
0,0882058679355267
0,085650564891361
0,0908281163282023
0,0828699194657282
0,0902236853257881
0,0939262699829745
0,0876389500736199
0,0889947451311879
0,0839481604490441
0,0816247856962101
0,088751460207736
0,0888550904120455
0,0914191509708724
0,0825351571121034
0,086536758376847
0,0768056733181229
0,0824812011600496
0,0923507909039272
0,082597048182539
0,0909420450229514
0,0890887760437611
0,0886336294715725
0,0887871942633206
0,0893036262442432
0,090258294877253
0,0902443546146637
0,0910054491249308
0,0911368900755183
0,08943397059658
0,0927426575872367
0,0994929257538549
0,103865890225453
0,0966302239111693
0,0932171421283008
0,108755870943115
0,101730702564582
0,0976880831842274
0,0955139008129178
0,10248065910821
0,102004206670526
0,101743762718046
0,102373882591928
0,116292689074561
0,112121389483313
0,118357192249105
0,121979814512039
0,121399268357796
0,128618717554887
0,117996034311764
0,133452820845501
0,13360645286529
0,141788856475616
0,146581574350572
0,145358465538673
0,14394877944888
0,160065593376285
0,152941160981428
0,152943264775676
0,154551443413798
0,160522248032457
0,167328387995739
0,167363865268152
0,170171338234447
0,160268814097407
0,151695670481906
0,152435179577357
0,150222947946918
0,1485211359616
0,161664566884128
0,155815564665383
0,160137049965003
0,15190670619764
0,159046572001361
0,159935480334361
0,154687830040556
0,15201209371448
0,165832729389138
0,156487297521815
0,164247268269916
0,157219851044369
0,148235335947986
0,149365948541865
0,152846354739089
0,150742525534536
0,157802155424044
0,150389191704092
0,153294216861551
0,155214967441412
0,139167901516977
0,137342770051097
0,142481202518523
0,161419640575568
0,151939896766601
0,142348257123352
0,145588618832256
0,147420964964303
0,151492560818774
0,14958308196254
0,123936489289107
0,131760629233678
0,126501479640367
0,147127224528843
0,144053055137347
0,127667977909459
0,134721092586613
0,148061567824332
0,134645519294292
0,136813562836523
0,15632069094368
0,143295516182594
0,148293679198993
0,144709070940005
0,146526045425632
0,153201907213974
0,145487344019281
0,132885881634508
0,141279135520879
0,141774886579075
0,159825065633903
0,150196888144434
0,160675622466389
0,132326351060026
0,161946409328315
0,185352742715002
0,175317159735022
0,171471955012238
0,182002450374673
0,175331705397132
0,157103552351106
0,151941102458216
0,17055471354947
0,173064819585786
0,14645706806206
0,162422578376141
0,196116590898632
0,188044452584193
0,180666536399368
0,209148696350693
0,20889256747218
0,182738336788806
0,239428911546704
0,166375134996534
0,22861127592796
0,226120585800428
0,188350545792893
0,236987763187164
0,217233074406101
0,206924106541264
0,20994204572931
0,19237749483573
0,195119757996465
0,207900772949488
0,240092254880353
0,196489092557915
0,215335657822841
0,192989696869632
0,175983316724202
0,202840188189902
0,179768825701266
0,160317142600177
0,160078212678322
0,187958705766334
0,191853002774109
0,186343019264154
0,16744109398358
0,161146046378775
0,209403505548201
0,194124094789669
0,137957478764598
0,153189939809315
0,212620978246573
0,210486399532539
0,233429198750533
0,210621473988377
0,169328487066189
0,256012650856947
0,157370183443779
0,215856339705429
0,265387579272551
0,260046607874857
0,204130071235844
0,200837437085478
0,163038479844165
0,281826669256766
0,173589754888348
0,150774316023316
0,182891118396381
0,161539505816346
0,219847332496983
0,125026133242515
0,298782334709895
0,203444308167249
0,263584437293346
0,232820802933493
0,197303854987874
0,113165366706535
0,104602049572172
0,208018810213257
0,106962625647171
0,118394267506607
0,227500328945511
0,177714071791348
0,199254766595076
0,0119903633378254
