3596
4000,36533379555
650,420452594757
1
2
2
0,0495976354043381
0,0235626841809561
0,0504233065475601
0,0329290297068278
0,0520647296144154
0,0350210980427667
0,0480706233269564
0,0241514314192771
0,0433020108194794
0,0362626833053787
0,0447628741078862
0,0223357938117206
0,0510891871925497
0,0293647629630517
0,047438194069261
0,0327329609489027
0,0440105368864637
0,0288955644517626
0,0455159720876011
0,0342562496072719
0,0519141977389908
0,0345589909231944
0,0471494762232968
0,0306525052780494
0,0498343734446121
0,0325360527946573
0,0422393600990172
0,0292298401969898
0,0543939567969119
0,0358070265557032
0,0401071827446126
0,0339892521346163
0,0565470316095727
0,0375848297849262
0,0483550370582643
0,0342443009553221
0,0469599509856404
0,0255576525272028
0,0441021803033564
0,0311229379047994
0,0569038888250933
0,0325050124186202
0,0392050816710385
0,0302556984328589
0,0496366588415816
0,0322758736155967
0,0526820183812687
0,0348996681097826
0,0452328790679301
0,0339186956333574
0,0516000442208275
0,0276236157302733
0,0529970048099455
0,0365095456820895
0,0439779620806003
0,0375602327373909
0,056004502442764
0,0259714136286221
0,0476216897618033
0,0293819635819857
0,051640622476198
0,0456877845268253
0,0473231960550734
0,0327095193630648
0,0464109269756924
0,0296480788516403
0,0439197180922167
0,0403309084719403
0,0541750496123124
0,0262155276993776
0,0483029751025146
0,0277686918759069
0,0586265362079751
0,0290771208814416
0,0431158752566647
0,0320355886255654
0,0490379098196681
0,0336228983564337
0,0433920958090428
0,0355606612449409
0,0559224218734391
0,0341364538674136
0,0444849740211252
0,0236634427690425
0,0363763145694698
0,0425205874551422
0,0452847912440366
0,0271739316012914
0,0545187040631603
0,0381679656449606
0,0404269721289657
0,0360875663827808
0,0450245090785921
0,0237492446386871
0,0431973939015032
0,0333524491500573
0,0410927213264323
0,0260951419781713
0,0449300645482819
0,0263806550439755
0,0533445684403923
0,0171304486420778
0,0755463646227851
0,0257464659361633
0,0758071148216987
0,0463384924330507
0,0285796488931304
0,0702133376369819
0,0547176590063043
0,0396759878609957
0,0451295824907259
0,0221511829474222
0,0423533576267901
0,0337532206601322
0,0366664099051338
0,0390295933545069
0,0783500650064256
0,0349174131301867
0,0471845870998359
0,0231864448328952
0,026126796709727
0,019056790740049
0,0791884279540945
0,0239065055648336
0,05452869554405
0,0272991028682457
0,0369690496161348
0,0301897762984458
0,0762664110830849
0,0306855110085491
0,0444747035166291
0,0293267221536674
0,0438200181130576
0,0128183654420628
0,0732083957121699
0,0408319329008249
0,0396442958126437
0,022499242323626
0,0498672095677413
0,0682809129849792
0,0596106113465444
0,0296358396332403
0,0392086097064175
0,0167960414124533
0,0686770637623716
0,0463531866940935
0,0438228398528155
0,0349832300850567
0,0624780044043963
0,0271077426837847
0,0467342608068131
0,0159049551816973
0,0589423964360052
0,0310605823053882
0,0236125477680923
0,0349782666192019
0,0995024488652036
0,0160305776489199
0,089016348344346
0,0347206592961681
0,0588583456051821
0,0302826570307007
0,0406410044643827
0,0303036983532214
0,0376765412521912
0,03204241455823
0,0317554422285861
0,0529402947699062
0,0433525860809631
0,0150529872076645
0,0634305300167268
0,0281539228364884
0,0285679838043219
0,0715283097544387
0,0661220875711692
0,00850436947920227
0,0715949927056828
0,0377967951017578
0,0366263810535016
0,0198471935502576
0,0652290002402868
0,0263261342201128
0,0433577810710848
0,0196225972246368
0,0430883147842814
0,0470866500086341
0,0492936035702481
0,0220382941300583
0,0405164337799114
0,0139082071640132
0,0496437455581807
0,0561155872564722
0,0721339911584372
0,0366256739917487
0,0525792332121526
0,00412102124445445
0,0522239171088761
0,0598750555704378
0,0406310597122451
0,0320409153826339
0,042051759378863
0,0237929908805342
0,040379875248379
0,0231155279170976
0,0340147527548687
0,00127516840362642
0,0731803323893292
0,0494674206589737
0,04218411387037
0,0268230373516442
0,0357861530715124
0,0138072780378638
0,076631709764691
0,066294629740257
0,0455060786644945
0,0352957702019731
0,0345886776529876
0,0299059845252543
0,063789349229234
0,0288631208404556
0,0406443588951034
0,0287876759205714
0,0356114177572027
0,0300254193633494
0,0381775783607179
0,0350733592491265
0,0470043371872206
0,0277870665015123
0,0398972030321062
0,0316744116303509
0,0492404651939383
0,0366312557077366
0,0424608769924342
0,0292266244968494
0,0334599395621602
0,0301610620679888
0,0651535028327295
0,0357620482675438
0,0464018698275928
0,0249562839844086
0,0348003154568642
0,0274050343395912
0,0435025191769618
0,0293104782022591
0,0432505925050737
0,0103926045650147
0,0630007028072625
0,0440145992852935
0,0405501585320812
0,0287356272678218
0,0485109778771487
0,0460344843527758
0,0388337981823317
0,032845133905159
0,0387151621729654
0,0288541595048135
0,0319104706800484
0,0577621250867771
0,0551303353522966
0,0296175701205632
0,05941613995527
0,0401801366700618
0,0297543105483621
0,0314916834639714
0,0122614298441699
0,0674475892282118
0,0518530057156901
-0,00115006887784584
0,101725457558826
0,0494012464581458
0,0454355586457472
0,0327750263173425
0,0144368835243409
0,0864502988576059
0,0885818653096948
0,035098026088469
0,0430710357037646
0,0442499784329276
0,0419646397055739
0,0232175345002011
0,0366690779797699
0,0250459832453203
0,0557115081521414
0,0570680867247235
0,0967612189667123
0,0214471842244561
0,0431183193081123
0,065445669415694
0,0445980763612284
0,0377934311186207
0,0362933640334836
0,0275501669627112
0,0534958090610402
0,0475884668479118
0,0482123836626574
0,042737282473038
0,0308117077720471
0,0460721744606688
0,0488717485271182
0,0354026230756506
0,0415262255242554
0,0479722751078714
0,0463786388324952
0,0328044407545935
0,0346452757416115
0,0346836951014043
0,0385221747782704
0,0145498879846713
0,0751865781631206
0,0445156650814417
0,0299262624978161
0,0605006706352695
0,0525377193096888
0,0365681294634406
0,0370207096049091
0,0362282613016012
0,0400090056232635
0,0323455796854361
0,035238947801028
0,0471530508117577
0,0611285078924369
0,0267411515434698
0,0462869594586076
0,0304740193311241
0,0418215982609085
0,032689231090807
0,0502543700496986
0,0375764758396862
0,0423168031933116
0,0144079572906805
0,0563442305130953
0,0555935092329071
0,0297834323604584
0,0333539070568632
0,0837929670000505
0,0381071520646812
0,0416355923188288
0,0376487039048663
0,0499437658053687
0,0346385107679585
0,0468002698463326
0,0343659967246836
0,0393157913838972
0,0466030028396018
0,0602582577446401
0,0310345611333081
0,027905925324929
0,0522337009695322
0,106388577353346
0,0516906624500567
0,0458297769396048
0,023252095545846
0,0461803188877542
0,0656389742901045
0,0512844914677758
0,0609990936837863
0,0452852823737833
0,0463160761760294
0,045680870745325
0,0448284407043775
0,0503613992835573
0,0406355785909549
0,052132574146257
0,040942843450984
0,0532499343871188
0,0382401379087566
0,0394780596696778
0,0306611137525537
0,0871865826322786
0,0639494214733066
0,0566629614454005
0,0476145639786394
0,0450110579069634
0,0293012695684177
0,0804505920739921
0,0564123782281086
0,0860606979898969
0,0552031260453803
0,0918466581400405
0,0531590758494181
0,0654903218009043
0,044781019835982
0,0585179060362997
0,0557180367481954
0,0693579686476847
0,0535640898674209
0,0564411446283627
0,0532780552474789
0,0689948082015176
0,0520854951496121
0,0568370425652611
0,0433437826723665
0,0695652536257275
0,06841157775631
0,0632192671189541
0,053225378918416
0,0645555832528481
0,0875159661334774
0,103056613361234
0,0794640178970157
0,0740055783658308
0,0732816513120853
0,0708914604209132
0,0743685821380816
0,0769588013249924
0,0727027669219062
0,0708643334178636
0,0739813303367818
0,096587514537458
0,0822470132368896
0,100003852535236
0,0691461014686135
0,0853292870319399
0,0809587304957042
0,0830008651518708
0,0958025409818815
0,0957548508066682
0,0712664504361418
0,0872217078458822
0,0990531916147431
0,0872798758116996
0,104980315015955
0,10250072674595
0,0849715020257733
0,0963773172468515
0,0880464783074764
0,0997072559519597
0,0897202003701915
0,1128473954746
0,0963201368911875
0,108558311788536
0,100378566628534
0,105422928740472
0,104823985327275
0,116294219022352
0,0910559359391108
0,123015814287172
0,106597155888135
0,112710845044349
0,0966177225611887
0,105842371227806
0,124888685797424
0,129724609530388
0,135218380881069
0,133796752607955
0,122428000916755
0,136411121471243
0,112542092985093
0,127489233309205
0,122915894491089
0,146347300288264
0,137184598963525
0,136812869951921
0,131937791652184
0,147818622775402
0,135722379468036
0,141597847981507
0,13771264917828
0,155326192281508
0,135552431716407
0,151177078572513
0,145576031169817
0,1575218286384
0,178246711813069
0,183382206327376
0,176009680387793
0,181163175648775
0,150129326333332
0,167138173192616
0,160097297586348
0,167306880654594
0,160625892722051
0,185680210293333
0,157723268084031
0,169900654109648
0,171757864077995
0,185197822033188
0,167839058871536
0,18714983196101
0,175276667131352
0,201270087590307
0,182118698415498
0,202284414633144
0,190481298517092
0,212385101894149
0,195241964476821
0,214887471046732
0,20636957552612
0,221174557742853
0,203896105996398
0,224237450801578
0,198903730026225
0,219824673303359
0,209445579238298
0,223253456086501
0,205646529840952
0,220520596734716
0,214090504303948
0,233455359228144
0,219787060718241
0,237565970956208
0,211202940081499
0,230856602375722
0,232372593113303
0,244308868827848
0,240502541731251
0,256687938224761
0,238822834624121
0,256405388374735
0,248223949576313
0,255482311064625
0,260953971359277
0,272820500525854
0,245121029189867
0,27497351337627
0,256511809035476
0,268146900429813
0,266681555404959
0,277248930169515
0,27249399062573
0,279520978444628
0,267739326084267
0,286666515988186
0,27485829260506
0,29512001858026
0,281843524257933
0,302415224326118
0,296878750168869
0,299621474450802
0,287067793243256
0,305640939261094
0,287832985521997
0,322922006935976
0,306839590107836
0,322382786820256
0,291480548542482
0,317785374829182
0,307631616156953
0,307193098775342
0,323145574513209
0,335023930483862
0,322836583457437
0,336053204412766
0,326158146901056
0,347238623974371
0,347987411298356
0,352045715312835
0,316261109575208
0,336615862083287
0,332034018550955
0,341501159993666
0,350403356797529
0,361278310817075
0,349013820004981
0,351382673945325
0,343386658363855
0,386962123032602
0,35689479232517
0,367483920832408
0,370160700078272
0,384009938314343
0,373834361485317
0,37488364199567
0,364126880588087
0,388447259726099
0,375138389727438
0,388211347541952
0,370351923450247
0,377035889898428
0,387323633580379
0,4097754391761
0,390526535793676
0,418074440791777
0,404057544678434
0,408799528112619
0,394841948143277
0,41688828371739
0,400675896424822
0,418193262401958
0,414632850041175
0,440040651894031
0,415025017108111
0,426333604310909
0,422661742473468
0,432891292803239
0,420803116537547
0,436280305933229
0,43733901289152
0,441836692538772
0,420519767466208
0,45451742822286
0,437105406487934
0,44436712006594
0,439610666265028
0,453449170000859
0,436202651268587
0,448671359414396
0,456900466302103
0,464029748347515
0,464711613588857
0,467744497340964
0,448025281549042
0,462181468265148
0,456737923057418
0,47105898915192
0,447973519018573
0,457091400675174
0,463659233326317
0,464729718341536
0,461943448942848
0,490269653987366
0,488135057827573
0,508574462614835
0,484123894035019
0,491817411392196
0,491565396128632
0,494139985858362
0,495090335316916
0,497109224157115
0,488327391996225
0,498885422685611
0,481350868513697
0,504726282111169
0,486168980289055
0,501084466294652
0,502498211532065
0,505047186198419
0,502424478495013
0,511003142841427
0,499664715485906
0,521573091307148
0,499145953129144
0,514345716690798
0,518225579715497
0,53575524107775
0,521056993468414
0,52453660542748
0,512740108340589
0,518555311774414
0,516894021461906
0,51770421958109
0,520121923108667
0,538188092625552
0,509847520993835
0,522028463479939
0,528939910957141
0,560154978847307
0,540065352537115
0,544054833704038
0,530472527500073
0,530069058316716
0,542782506346581
0,545650262713482
0,535353492677375
0,548585282948585
0,547634293008369
0,561130695031037
0,567767024815316
0,55819461183549
0,554399435306233
0,574962895905737
0,537647132728809
0,554795370659227
0,558032618786166
0,569054188416951
0,551835714105818
0,565489373358967
0,569868150809233
0,566422217293035
0,565822174510349
0,572146936683936
0,548691971399984
0,557552866077335
0,536592281838185
0,559994344660126
0,537817657818631
0,544023620988857
0,542231919792533
0,558785179656206
0,551869011973505
0,567494020815182
0,560014116405676
0,572741305545734
0,559393020968019
0,580736655326212
0,567504061200281
0,568195688259477
0,572326696822276
0,571887841468955
0,560396576749807
0,573227880072861
0,564401990337967
0,578601803696293
0,568536587859165
0,562181566407608
0,557151691036065
0,571114828529552
0,567787054362143
0,583941994457711
0,581508682672412
0,568325284663132
0,553024783477399
0,568074332948969
0,561939383697809
0,572360424687626
0,557607432021513
0,56230375071455
0,56981871350869
0,560961235324387
0,567883153315222
0,577536725444508
0,566469615738416
0,578342622721755
0,585842585685874
0,571081490518025
0,54766064893809
0,576284760747041
0,568929904948002
0,576766721603477
0,561482663315147
0,568183376185095
0,565285960637961
0,561348205364329
0,555386568428322
0,569030343458714
0,54574814411558
0,55087596352659
0,561585977948224
0,559862609867258
0,547924224869579
0,553032457298693
0,558744728328463
0,569685853901167
0,556548507528058
0,542893703495766
0,550452489735866
0,561558746779282
0,541811279139256
0,553612343004742
0,563045864114885
0,556772959251185
0,542132133597383
0,538005448474456
0,524264699324235
0,542986327570635
0,544985971451694
0,558362701374961
0,55586195733596
0,557695515599465
0,544248526503252
0,554545470561554
0,543655784633706
0,534802013720855
0,537770213684366
0,541331306531417
0,529784958866151
0,529964087722518
0,537029871390466
0,553369008560235
0,551100685634575
0,550613662565836
0,52502917723958
0,543726966551091
0,537207191459932
0,52887172368784
0,529627544879857
0,531763517199321
0,529292455780914
0,5328076359719
0,527746206325543
0,538844931501738
0,521944895132426
0,526687412411948
0,53442809671339
0,51439763085372
0,49992903679494
0,518742254522545
0,523471505861013
0,516339816689091
0,512671801315043
0,512081846114783
0,506484222411748
0,517326600087056
0,513836313807068
0,512661618464167
0,506980542417524
0,517619691176811
0,511264636422361
0,509843075463148
0,498516994292905
0,502300832816373
0,489157442441144
0,50415427698012
0,498502861411296
0,491418904014124
0,501883664231955
0,496438303739216
0,488675164634205
0,495812816432748
0,494784771066106
0,512464772770611
0,488341067529559
0,470872966785802
0,471414063328935
0,482921261059579
0,478197148464439
0,464343992451323
0,460904934680494
0,472867914646068
0,469767397734671
0,487480628844789
0,479748671286699
0,466184746753238
0,471263000354974
0,468133770863736
0,446965545158152
0,454330605106809
0,458067202984574
0,45860646861227
0,452415152648704
0,453832359849842
0,45375551035132
0,454419261895788
0,447438124738061
0,45642181454686
0,446390073625991
0,449165628612422
0,439965137161411
0,434193623652368
0,435244068698515
0,431871993570662
0,428430578186845
0,42964106756063
0,433003324379357
0,431864939291048
0,435938093144949
0,432911522115051
0,414549558946386
0,433856024815304
0,424056459542137
0,414683835156199
0,408579099662346
0,408327612362216
0,409408785861723
0,425156081545993
0,417135544745262
0,40843480036247
0,403603806695506
0,406611687284833
0,40124240494473
0,403190260112515
0,392025146722407
0,396109494748195
0,393203651434821
0,391081031975007
0,395090664463427
0,390543986177808
0,383236092604755
0,391068026245937
0,386016294075046
0,377015767059054
0,376265018913898
0,38757365578731
0,375651466393369
0,375586894393658
0,372751809184321
0,36954782623114
0,364997603817509
0,363803041188976
0,363882258104673
0,367106014527678
0,360636384257092
0,356203951449108
0,354457870225327
0,356805425275177
0,354334234831348
0,34513538560093
0,342039408906559
0,351920193441432
0,343156471413691
0,344579575741912
0,34086363978464
0,328679677813996
0,3290820868242
0,343738182325292
0,332060285365555
0,32656494794698
0,324099020930231
0,321824288849377
0,322862952954398
0,325319798947037
0,310679934300849
0,322465411223038
0,325871535378798
0,312449428707083
0,307760293887439
0,312987976301788
0,304684930789027
0,30381513199152
0,304822543316681
0,310646540885483
0,302973093903861
0,306177760904507
0,309768652488345
0,294582865805769
0,286598219586794
0,291244655696649
0,2918022779854
0,288095535867368
0,281909766618221
0,284648570617611
0,283077565783673
0,275265654209183
0,273064547123339
0,282815929264198
0,280755350204513
0,274043858064657
0,270039948293894
0,269137328623944
0,269977016888015
0,271088569317343
0,258675492508938
0,261889422133898
0,257690826891143
0,261291944467166
0,258846988549462
0,256892570680921
0,253233726995472
0,256135918754771
0,254171828635162
0,255029418761989
0,253799161268157
0,252139291797596
0,250892890087964
0,247900856519094
0,239482168458912
0,238175779188478
0,244797795883868
0,240018799053988
0,233473161151427
0,233433354242312
0,232731664203046
0,235562540738839
0,227612997674206
0,231523378231736
0,229635980623128
0,227669449891374
0,226914561035142
0,22269505328385
0,223664396892153
0,220654385100426
0,215844169961193
0,218505205289183
0,217903822499458
0,212414803741082
0,210701336003307
0,21031805043033
0,2071655006854
0,210739426983309
0,206822922678287
0,207251053102517
0,205113510608669
0,206071374477135
0,205314312047315
0,202351099868455
0,201846513501053
0,198420547750991
0,195790750108571
0,197102032079857
0,199020096529959
0,199285970000966
0,196270966698308
0,195968037506669
0,18587777836454
0,188272732111297
0,189969973170363
0,187376526405648
0,184160567474258
0,186316557968543
0,184534348047721
0,184620706508678
0,178803113458008
0,180219360603078
0,180573002114753
0,178972290848506
0,179216589059884
0,174755443220472
0,168654932030559
0,170418320949368
0,16684720247845
0,1694437880584
0,168034982524736
0,169832590981426
0,169678922543814
0,16752997806683
0,163801483919627
0,160488105490117
0,162867507335661
0,164863015412284
0,16741101809742
0,160330266277415
0,156464559517751
0,158574346149995
0,156053937660003
0,160211191906821
0,160480718780862
0,154793989198755
0,151462625560564
0,154544628114714
0,155282698427721
0,148205386190774
0,145121821331273
0,148818827846876
0,149260770257684
0,147247906057794
0,147920415923257
0,147987298365568
0,147521970160592
0,144438023652512
0,141809970743178
0,144823700108358
0,141368383772012
0,137796033846219
0,138092867834435
0,139158732607245
0,136975723777565
0,135029826733793
0,134555922832338
0,134847859228717
0,135684727015339
0,134516707017143
0,129924053383746
0,131431357954014
0,132896420113371
0,133649151882183
0,13223939143436
0,132963165370422
0,128028375917513
0,12660009363101
0,131142951878759
0,126494740124532
0,122263977420963
0,124887322872606
0,123474051873018
0,124921506521661
0,118758508935727
0,118919909207488
0,121433849903754
0,122178895777376
0,119069716747156
0,120783521090502
0,11857733818789
0,113573169896845
0,121450793186293
0,120892781135249
0,116875650586137
0,114430621564404
0,114523691348333
0,113480228405191
0,115301885749375
0,117447419234249
0,114913917316776
0,119177036535126
0,113710286206994
0,109257402931077
0,111986448322681
0,118078063912391
0,11760920830783
0,11156579485348
0,112100376080257
0,113245261185271
0,108519006748849
0,111738631063792
0,114817207337231
0,112156420029267
0,115498123733931
0,114881293086519
0,108773673514818
0,111011086207918
0,117112813514924
0,115094790897163
0,112356931962904
0,115809956445499
0,112928181927073
0,110593853723141
0,112501445017268
0,112938297760526
0,115811684536522
0,115373336304957
0,114501430453615
0,115196989210191
0,113163759920564
0,117790356582002
0,115490789486353
0,116719088320189
0,122286719955755
0,118410476356635
0,119397285457113
0,118950808565894
0,116003866344108
0,123127397131323
0,120183352748063
0,1268081638813
0,126064084517689
0,124590331314351
0,125960924611633
0,126447376549201
0,128637491131689
0,134903046031841
0,132679759306792
0,131341899602311
0,135453623876631
0,129483928858848
0,131377252320904
0,134085882107444
0,13784028499826
0,136729253506188
0,143329976392587
0,141342226267452
0,13786159855978
0,142236152223566
0,140606052731426
0,146299764330448
0,145802234371267
0,149638938902836
0,152322905776098
0,150793304024952
0,148752956531376
0,155073798454715
0,158571192481696
0,156778353212589
0,156217847749921
0,164111054686058
0,160174667586342
0,163970029999732
0,168500083762216
0,165429514729444
0,166498309796836
0,166563751338035
0,168022531201574
0,171911183982445
0,175820746606055
0,174438017328264
0,178614799997968
0,172948881799696
0,173751177455739
0,176677016660947
0,176703335033189
0,178125595813187
0,179377826892427
0,177970020725526
0,176434030489119
0,180074378321087
0,180455650233708
0,174281190189002
0,177877778212653
0,176568661841187
0,174940227546812
0,172256706651676
0,169453013728164
0,175257174084696
0,174740977846026
0,169901199544932
0,172999981448009
0,170667967173771
0,174415020169397
0,177252650447239
0,170659338320979
0,168884779126197
0,172288024279202
0,171679333335195
0,1726831684323
0,172602665753261
0,168366686165502
0,166237901597739
0,164791401309126
0,16482272041627
0,166859681639683
0,165684600409638
0,169374613125638
0,164855579961209
0,163030450251506
0,165343803149025
0,166637820601642
0,16324329287506
0,170247789556662
0,168710245152696
0,165788686178225
0,165727287494184
0,163809916063569
0,159799249449338
0,160268199375265
0,160384164393171
0,161336534479047
0,162262528451607
0,165521502452781
0,159760042873953
0,162417094112663
0,15856731903702
0,155074453691293
0,157130652777654
0,158856445870263
0,152141148398719
0,157379876790672
0,154607602568438
0,154222137113414
0,152936531374787
0,151701792920624
0,14601916451956
0,146551285131118
0,146195202986561
0,145926742496162
0,144788961435949
0,147312080896585
0,146958439212214
0,141923764575554
0,14098909495286
0,139801406682957
0,13377072977372
0,136811634580343
0,13471549526709
0,128894753644527
0,130107709027042
0,133155401982619
0,128590707703104
0,129379616969109
0,127247904785104
0,125757443930213
0,124644660917535
0,124701261731435
0,12116441588727
0,121040113329977
0,120030011841705
0,119278598972862
0,114422950724711
0,118792459875271
0,118384608405118
0,119531112623888
0,11578079306598
0,109226747494246
0,112753029803893
0,113501789556782
0,109672835763972
0,110062743052611
0,110449016095094
0,111827575481377
0,106384107799202
0,107826865731211
0,108246071688922
0,10635742114156
0,106011399852749
0,107037520488757
0,108384353981128
0,104463373816808
0,101896271098161
0,103682015461343
0,0986156889736077
0,0998078029636534
0,100718133271209
0,0995547890231067
0,100047633492966
0,0997150596776343
0,0991189591853734
0,0951619684131722
0,0947252968284974
0,0964147737815834
0,0979528349971884
0,0967025696926347
0,0931420763236692
0,0980770119542145
0,0937482724303423
0,0911020583785658
0,089768381034565
0,0930299303849474
0,0934140366444009
0,0903769703879388
0,0910117885738437
0,0930364015803443
0,0913808377104214
0,0894144491274554
0,0876801981942345
0,0900729295967924
0,0858095318182136
0,0900546082688449
0,0880777774598435
0,0890910431215783
0,0876961632977659
0,087626032999344
0,0846756677669025
0,0851770959131467
0,082820030331985
0,0830060897760985
0,0848731654392769
0,0856722248062892
0,0832291446716324
0,0838252603839316
0,0836384612584149
0,084292239398635
0,0813103319649705
0,0838773638002535
0,0802815173315408
0,0853508797853627
0,0832735859234724
0,0787973122953347
0,0758103681475017
0,079670591785876
0,0784820591042891
0,0831969133261981
0,0796049158396816
0,0808779717549493
0,0785472044113479
0,076599320665928
0,0782243071472211
0,0786480752190738
0,0790149211246739
0,0774607637693508
0,0796196038385047
0,0806432731099515
0,076944843435702
0,0776567627769669
0,0736749595155627
0,0769082713438484
0,075614821533319
0,0725524688406932
0,0754390798265821
0,0774934497620718
0,0760772209721454
0,0757580727569427
0,0774837746689566
0,0743556847836658
0,0731286138560256
0,0772188220826536
0,0712916795848778
0,0741851099227537
0,0753089665152765
0,0776298914420605
0,0712272279107689
0,0716435417853442
0,0721267884102809
0,0749303397706975
0,0707393457921742
0,0704906407123947
0,0707282791369065
0,0734505786033051
0,0688555851799692
0,0712283099338215
0,0737435273111176
0,0694570019421459
0,0716023827383002
0,0707706937753418
0,0708172873410771
0,0716204442714761
0,0698666355931434
0,0727128856997797
0,0718465122085894
0,0721879464620352
0,0704139685304723
0,0683416714995666
0,0684647149729411
0,071893131946623
0,0670749824410557
0,0694900003709608
0,0682324221377432
0,0705271831065671
0,0704443586440976
0,0698167237549486
0,0655855680804431
0,0693323906872796
0,0680401707748095
0,0674754941642363
0,0687780212590094
0,0708268435408159
0,0691123956887228
0,0703308052903438
0,0668681960978103
0,0675930402760794
0,0672710131354621
0,0709859307898567
0,0669742880685492
0,0682791806109001
0,0664435795635679
0,0669543327717242
0,0690355394701003
0,0678442467241927
0,062836011938044
0,0672010587015272
0,0630574278724955
0,0670935849420815
0,0677563666074972
0,065300968740105
0,0649764603882302
0,0671896146984239
0,0638254643247453
0,0672856065447577
0,0633669910139599
0,0658960873819778
0,061415517613129
0,0634565266680049
0,0618121182594352
0,0643659326503537
0,060585476848848
0,0625068094971405
0,0609288249589354
0,0624085524566315
0,0631331931654513
0,064025542621213
0,0654395610412161
0,0636752969914508
0,0618479589428629
0,067149656028487
0,0627188038451417
0,0623988837709551
0,0627301995313632
0,0610211983899214
0,0598758707648147
0,0601565421088075
0,060302771196852
0,0609543817429932
0,0563570327604377
0,0608268611454682
0,0587030761574536
0,060067950747854
0,056535454395674
0,0591543836007515
0,0585015535675306
0,0582694467678299
0,0549647388451797
0,0579530880150699
0,0560377774429657
0,0600297476742638
0,0583695898056108
0,0567769148890926
0,0559195032866732
0,0552879798437635
0,0562650707726135
0,0565221431295674
0,0561370250975632
0,0566434313948541
0,0577123764840302
0,0574496287425777
0,0541554522477617
0,0548356674130046
0,0556000424317317
0,0534275267296222
0,050452173564135
0,0565606589323944
0,0552660000978756
0,0531087502558316
0,0512185669805856
0,0565799426931
0,0520340965081957
0,0543016210141248
0,050696617948612
0,0527605746410562
0,0519478619854661
0,0526360254621623
0,048326334302506
0,052449768064932
0,0492835601636897
0,0520539152697066
0,0485277569187902
0,0505086114775599
0,0490699230658055
0,0494995708839392
0,0514053255072299
0,0487918771796072
0,0441837232971067
0,0482898650598906
0,0461950217829557
0,048578125677522
0,0493485419420438
0,0494128235503632
0,0477900504246984
0,048037137069201
0,045076021442673
0,0482377970052462
0,0463547404004652
0,0485344393134244
0,0475850660799025
0,0492879748112488
0,0439249422606447
0,0473059246902285
0,0455364966105972
0,0454553164376353
0,0450645288759008
0,0493339265070875
0,0434836440336591
0,0479183913472084
0,0433434371820347
0,0486195895138726
0,0457125737262405
0,0447439209841938
0,0468530663294862
0,045352417930153
0,0449072616900615
0,0442925528473474
0,0454763773292189
0,0485201345848925
0,0427302051099557
0,0441755529394725
0,0442390864917737
0,0456527121603228
0,0416155326454919
0,0416353227675336
0,0399293927771373
0,0443223483030931
0,0421530821821517
0,0439844544435047
0,0437406866140891
0,0435655876904496
0,0388863681971654
0,0433486710279482
0,0422208166326882
0,0425560881035914
0,0420234134623139
0,042120997125294
0,0386612208707469
0,0434399143360777
0,0408888096003794
0,0416255331580442
0,0389695504426211
0,0404117063525544
0,0377577915393128
0,0397119920050842
0,0397722680443365
0,0412003757639932
0,0380312820435026
0,0424958664810781
0,0391480040279259
0,0422023542405466
0,0406086593261863
0,038157226565004
0,0383608227343969
0,0401485787154232
0,0405189592974865
0,0425123923287842
0,0373939036752354
0,0410051330565951
0,0383137865224382
0,0404283158698984
0,0397829966469342
0,0393929998503695
0,0378717853693835
0,0400845293417126
0,0382582462961665
0,0407152222585366
0,0389512236826492
0,0392509682659503
0,0355782095099193
0,0383054532509758
0,0398647126922011
0,0412846711442101
0,0369629457344577
0,0397176194510558
0,0358179487925567
0,0406583457241734
0,0384708315985876
0,0369036811776527
0,0371255788551857
0,038546583478966
0,0383157947156117
0,0423821736969989
0,0385624801535098
0,0409214963775783
0,03476492849698
0,0389241801061833
0,0383632170568721
0,0407250865332622
0,0348484706313165
0,0381153080544657
0,0366052600351196
0,0410382394173473
0,0364066130648265
0,0379988503208147
0,0349253995795393
0,037281904784684
0,0347057973059186
0,0359298965691272
0,0335394506453134
0,0372946584524499
0,0360120603656077
0,0368931905084718
0,0320743397547257
0,0359697757403062
0,0374694828365831
0,0380654341053333
0,0342939709596273
0,0360307448195922
0,0341905525421732
0,0350862489470741
0,0330906328108308
0,0328904190432743
0,0348751040911951
0,0348594042469766
0,035020159867394
0,0358545321268703
0,0336315334101503
0,037613055533723
0,0345508852363882
0,036610557860199
0,0314604359836744
0,0330450674481183
0,0325932778475388
0,0340633119469299
0,031191650270613
0,0391051286077856
0,0351045517154204
0,0349819446583786
0,0318678065536799
0,034802224202054
0,0322255077837412
0,0348390635728855
0,0329194214330825
0,0368642369142273
0,0343668616333177
0,0343100871484355
0,0326910116602605
0,0339420510904196
0,0320088755960922
0,0337218853961217
0,0333893446421642
0,03316590320962
0,0321499522820256
0,0332605467856123
0,0314400153822086
0,0342947246971468
0,0296078652369529
0,0348365132574507
0,0314877395563902
0,0330144066765658
0,0328652293900044
0,0355794862431559
0,0313052534236225
0,03410061519325
0,0298484652703737
0,032591994477332
0,0276189091527864
0,0329922477676985
0,0301352759243179
0,0313613758079825
0,0313893358931329
0,0311610697796593
0,0295104616398624
0,0307415398123733
0,0286507098053324
0,0310744186506343
0,0290749089520557
0,031958729401065
0,029647118279798
0,0297569618312819
0,0295200947310861
0,032031802786024
0,0302932168999651
0,0310394946533517
0,0299788786893637
0,0305199825708245
0,0277973574359579
0,033212565916049
0,030606254787934
0,0282688531163832
0,0267584817761929
0,0316196210246865
0,0276161825997118
0,0318730967792994
0,0281764467174016
0,0290294150619986
0,0303188107631102
0,0303656188619523
0,0266770582877316
0,0303989796912503
0,0271563618140097
0,0299444174648169
0,0282632812591964
0,0301676750064786
0,0264299244455077
0,0340453641517512
0,0275647973834374
0,0289127276674928
0,0253542095539497
0,029111821593032
0,0248813217731775
0,0283592496153275
0,026662435985924
0,0291368041215481
0,0250591546384561
0,0294947056862371
0,0263200467613435
0,0300092844008439
0,0252085892927682
0,0292958390661737
0,0272695005168445
0,0282677328479264
0,0248765436830477
0,0295948062194608
0,0253781483637225
0,0275727962540753
0,0229221733751873
0,0258992930520737
0,0208601168798801
0,0272054790611922
0,0253215867130302
0,0284682688082575
0,0229929309795154
0,0266637473447709
0,0228777711093573
0,0283034179628377
0,0244807473231226
0,0253302858726611
0,0235329831292799
0,0253777196264741
0,0237754678470061
0,0266195138842367
0,0206238048113942
0,025074895017665
0,023659633635521
0,026192179825373
0,0235163276935928
0,024530248327268
0,0206903398263957
0,0257152477826965
0,0229671900885541
0,0261581522139434
0,0213724966580898
0,0248800661855855
0,0238630793466094
0,0244377043875857
0,0216675957618208
0,024093429315637
0,0230140735222521
0,025571507221219
0,0207561987790793
0,0253913096568691
0,023752460310647
0,0244095006139181
0,0222876244360151
0,0256755992541565
0,0212273977524712
0,0269692321053405
0,0237888293062454
0,0275670379796869
0,0262564148639094
0,0291991103229566
0,0230041001037577
0,0264844114238859
0,0229368998309959
0,0286221686577758
0,0219922332778805
0,0277376622957729
0,0238311081151259
0,033084976370572
0,0278093814228175
0,0265835437797153
0,0152217769580649
0,0223448529140075
0,0214902788651722
0,028566377594524
0,0193986341107246
0,0298649192872541
0,0234135772856082
0,0198580553511688
0,0175153936672245
0,0280855996698237
0,021323069405409
0,0296289667193827
0,0202878830982707
0,0320776798728455
0,0200365753854504
0,031127385595429
0,0224755865357494
0,025264831196781
0,0229409058753918
0,0291320074704579
0,0142645714633922
0,0240515776291697
0,0171238631488114
0,027310372951173
0,0115907238691752
0,0318621176278525
0,0124689718240007
0,0280733995879423
0,00949121637150757
0,0281337245865041
0,00884358388381728
0,031791648936016
0,00871087216684976
0,0399772171197777
0,0113514408804298
0,0413842339118642
0,0047794992436675
0,0382522927566645
-0,00360872117848445
0,0405873229399161
0,00354240772568517
0,0622784948797127
0,000522394766269721
0,0483482821346208
-0,012069868138852
0,0579978940993713
-0,00163115088761785
0,0566314480530987
-0,0097833041287388
0,0542862751725088
0,00519761481263219
0,044201328908263
0,00304954026121847
0,0395031620740618
0,0199412225399904
0,0247240108920156
0,0210548373590366
0,0192864613463641
0,0350483206274386
0,0120127826252561
0,0390739099932527
0,0102534052465478
0,02834697191494
0,0158124474958819
0,0281710653065492
0,0183938034208302
0,0225082121524023
0,0243725363248423
0,0197284483588326
0,0240911102321121
0,0184247735830081
0,021924066402218
0,0198445772689947
0,0186960448514753
0,0227396195408673
0,022584946380788
0,0223231860146802
0,0209113407841166
0,0225980183147017
0,0224709021155374
0,0192651644071309
0,0214253716569734
0,019945603991998
0,0224450379879337
0,0187934778822875
0,0186509068790603
0,0199831300175842
0,0204358275297845
0,0199914887945978
0,0227534479833564
0,0204656939900529
0,0178959249930727
0,0190583581987002
0,0205163004354339
0,0207737255532024
0,0207751650387108
0,0194810009531656
0,0220241888830213
0,0222014330619356
0,020219514902698
0,0178128861895019
0,0203185858460654
0,0185146630586066
0,0215534062594592
0,0180792139636761
0,0229430706893037
0,0192923208416432
0,0203439701814304
0,0204472161760845
0,019363959337792
0,0195857340596571
0,0221116217814657
0,0209366156633945
0,0206798516850749
0,0209495637601123
0,0217781994042826
0,020953773329567
0,0206943367418539
0,0175438259094244
0,0212723866024779
0,0222152111912299
0,0202669983403386
0,019699364187089
0,0213834451354078
0,0206638632862639
0,0216897190320877
0,0200980924351635
0,0196902472503745
0,0202327941448204
0,0204150552517497
0,0200506937971005
0,0204402918778367
0,0184651538527521
0,0210484982966548
0,0183633437176771
0,022371842869038
0,021740055645376
0,02047910123789
0,0201411060947164
0,0194783463047947
0,0194217147738465
0,0202048379300369
0,0187310863079274
0,0188741647478882
0,019457612354543
0,0191017398473164
0,018895800504866
0,0202760389118907
0,0181071665975471
0,0184771371953282
0,0213286085718292
0,0219610605856567
0,0195773438434114
0,0218294786939648
0,0171048667481181
0,0191162544502546
0,0207020898108741
0,0218550241753512
0,0208981837421346
0,0237106734065704
0,0202844196273394
0,0210830149656538
0,0219870062206561
0,0207289656007889
0,0192931916417228
0,0238941500480331
0,0202563383410553
0,0204028907944073
0,0210148659395543
0,023894471165326
0,0209057088508053
0,0219483142477663
0,0196457843849389
0,0229172576286762
0,0222324275149844
0,022213031559669
0,0202820159428278
0,0206998886946425
0,0208751148875573
0,0198283727165615
0,0202009085531973
0,0214317221486747
0,0193290055468911
0,0219538517920575
0,0206102083427748
0,0221887911266719
0,0191685242888819
0,0214761447027519
0,0201795359217355
0,0210226958392661
0,0178051122098605
0,0228265356893471
0,0222408129725708
0,023286805069806
0,0198942885230974
0,0228000195244551
0,0188435199329402
0,0204237261576168
0,0213119762951319
0,0229768733799735
0,0204989292875501
0,0213912304364179
0,021586099974209
0,02192052772104
0,0205386232648651
0,0194389559544601
0,0192351059893029
0,0234404016844867
0,0199525800884332
0,023328927060642
0,0202801858883832
0,0209516732363073
0,0210865488756302
0,0228095291422286
0,0225939856905002
0,0235549658338657
0,0201986131754769
0,0223647071207502
0,02068455588958
0,0219111680425457
0,0223335974618553
0,0227357623538474
0,0193795935536306
0,0218186546368146
0,019668897166366
0,0234225157360997
0,0211969581926407
0,0208900579307208
0,021785859212819
0,0222856993147297
0,0204699882525264
0,0217201702524376
0,0204779283733474
0,0218041558235533
0,0209627873987468
0,0228276456977142
0,0202800443652067
0,0211747780916381
0,0218596023192676
0,0218821211718162
0,0199864273024903
0,0220750936048544
0,0214772497747045
0,0225419237855274
0,0220441199982778
0,0226727446571141
0,0209337270750278
0,0221518255609681
0,0200296621842948
0,0243370821194289
0,0203344121336882
0,021061411590671
0,0183078295527467
0,0212341078911149
0,0200001958022466
0,0211249720847351
0,0208778962202762
0,0219469868775163
0,0183641278632068
0,021132859230559
0,0196774541103301
0,0238681925483649
0,0198657949541518
0,0218236407576222
0,019492100364219
0,0233249008975499
0,022283554909156
0,0225235450028061
0,0211370388989921
0,0218693180368432
0,0190051835442495
0,02120580673853
0,0191750173213269
0,0226427330803696
0,0207119667716505
0,0216566694925545
0,0197229040609356
0,0208773278011481
0,0193399982955477
0,0221658853495612
0,019002416862259
0,022157084251778
0,0212544092057993
0,0238118232129003
0,0206336618087151
0,0190181924901997
0,018094809464899
0,0217999187244437
0,0197803107826882
0,0224366335879212
0,0205590657719951
0,0215781399180386
0,0188246277775411
0,0196813303938651
0,0172368108230293
0,0197448528058668
0,0187101388725454
0,0208828308194688
0,0202862630748665
0,0216734121835723
0,0183708597408202
0,0210347182327418
0,0200462667250902
0,0194416402371395
0,0193614727317153
0,0220098360677536
0,0194674555823805
0,0221127529138508
0,0201001075256955
0,0200042429354816
0,0193247562093223
0,0215364817416308
0,0182973470292136
0,0203549669787634
0,0190275949999778
0,020952758705163
0,0196031162655459
0,0211015847517751
0,0204740716613411
0,0191612530945021
0,0184170312290375
0,0214215167489396
0,0196700926718786
0,0168526821835474
0,0222624733385511
0,022595381695387
0,0175188940594852
0,0225055967210061
0,016853142888742
0,0213641221846703
0,0193032688527706
0,0208947469852809
0,0190073394947073
0,0200993224146274
0,0202758810276853
0,0215339599729383
0,0189981560613182
0,0190493975856884
0,017982053597126
0,0201797016895876
0,0169671123666821
0,019631321289172
0,0175383463601517
0,0208734765118938
0,0191428313207493
0,0209246746153517
0,0171540454544948
0,0208390112176613
0,0167575171459685
0,0206406503824653
0,0221425360121801
0,0187858741227684
0,0184007307549381
0,0214105257159033
0,0166298672292787
0,0196556922872111
0,0180244098872572
0,0185560525180768
0,0194705508740882
0,0215501087142949
0,0192993750453659
0,0203992166191766
0,018297729790867
0,0200933456907994
0,0201369049426756
0,0194920201771968
0,017308202846036
0,0189066712694368
0,0160385302318788
0,0193456998385364
0,017145392752172
0,0180636142455947
0,0173490503707399
0,0166850764689755
0,0188982379275177
0,0149446133122479
0,0205965133361104
0,0193494950026839
0,0178341993282399
0,0167077057529984
0,0154811390910636
0,0178049501146189
0,0176551142105942
0,0179974749159791
0,0185716901259093
0,0197503886215122
0,0177309712652517
0,0185335426201639
0,0158412622723513
0,0172883013165569
0,0169164086418278
0,0166603878254024
0,017517635766747
0,0161273773384513
0,0167492463896371
0,0179083678018806
0,0169938069143933
0,0161057346499639
0,0167884256933462
0,0181996055196248
0,0171548426646895
0,0171793516879127
0,0153493514789457
0,0242415543597125
0,0165387115491879
0,0177128772882296
0,0171045411201351
0,0233936273889991
0,0130054753394193
0,0185747843788697
0,01469256079576
0,0185077541505611
0,0167653729189287
0,0187738857368636
0,0139341582065176
0,0174825216946303
0,0154660381035421
0,0188026519834507
0,0122935728160582
0,0168950202393004
0,0178663511455138
0,0185779754392797
0,0153843042959128
0,0150036655986486
0,013943447733094
0,0181772703127024
0,015177759838208
0,020103438850309
0,0123033604146308
0,0220497062167939
0,0169698173565128
0,0195956703339532
0,0138323477134645
0,019271649100457
0,0151137423634249
0,0181568127803507
0,0144283679140271
0,0169827649058251
0,0161387095581298
0,0179532688180542
0,0146981513439346
0,0156371301929124
0,0157947250037443
0,0184726629007876
0,013452149005307
0,0178751587530871
0,0151656145302231
0,0176160430315898
0,0143125623479465
0,0165191694050821
0,0158011074027842
0,0198729653007193
0,0128216344376904
0,0208357763356859
0,0159059358667018
0,014138177750541
0,0309607037246369
0,0130777934904858
0,0188157444430897
0,0154370547003487
0,0169448189377828
0,0161623244278977
0,0162164308415816
0,0149817912121688
0,0159698987827183
0,0138060974794416
0,0185171954628644
0,0169839256815506
0,0156670970265425
0,0127908878193234
0,015431751396768
0,0144149309266283
0,0185955281848327
0,0154709568048151
0,0170743577187313
0,013123731251251
0,0171259181064025
0,0228279113865751
0,0190017225405414
0,0146136936734253
0,0218054772754475
0,00691920303986616
0,0287514134670381
0,0182956606714839
0,015167805430595
0,0175901825446234
0,0148757145472916
0,0171124310952666
0,0134784947762485
0,0171282936020359
0,0118000278596312
0,0245450696675228
0,0111090161631295
0,0214834683704253
0,0130532698898066
0,018231411555555
0,0130205630871808
0,0183399053984479
0,012461341353205
0,0168628834263891
0,0127244382225167
0,0144035943486125
0,0146521970435759
0,0156125305427143
0,0170605630901819
0,0129308086010861
0,011668984436561
0,0211742819234764
0,0176306663123452
0,0166962657933018
0,0132701615918964
0,0153580696666635
0,00769879259772301
0,0342845346059694
0,00872194579124114
0,0220720719540356
0,0112027288889987
0,0197261540106189
0,0127759826605742
0,0193756673512498
0,0117068245620674
0,0177207104616061
0,0120602404338728
0,0179599027884553
0,0135775485568909
0,0169445545460929
0,0147706941650516
0,0152199423660307
0,0128357195477811
0,0155530205144408
0,014460670896679
0,010519144997451
0,0183496577027448
0,0110470671865875
0,0149981794426582
0,0306130958934177
0,0178658665574849
0,0250083049294877
0,0168077306866312
0,0188067906343541
0,0104706256290004
0,0215262053164612
0,0102199070298242
0,0211168493374552
0,00913914703044997
0,0197474193380269
0,0123078851998741
0,0202578323585286
0,0107188075143904
0,0199641235351646
0,00778971492572458
0,0203708394094194
0,00900868164161103
0,0225352792565628
0,0084666331542568
0,0237310510187159
0,00308414923107876
0,0271531674371085
0,0107343113728597
0,0277728730441339
-0,000789234365878003
0,0317061282471443
0,0331391547044727
0,0109645206702453
0,0260836957430223
0,011507975002393
0,0191885131971626
0,015946478855661
0,0131707560869467
0,0199156559668532
0,014781534218664
0,0143474422690953
0,015752430180114
0,0146789621626029
0,0189667773238932
0,0129267332651021
0,00371418076053184
0,0346554953867642
0,0182256827369768
0,0225821121976921
0,0155976123276674
0,00224272625532924
0,0349664514006795
0,0122632884750411
0,022724352527695
0,0174328670707129
0,0147229372093839
0,0177775552695644
0,0146675583148639
0,016084006440626
0,0145040176047318
0,0184609584770973
0,0123039651972013
0,020514995649221
0,0097101817178589
0,0225659713905534
0,0121568063018501
0,0235727357632608
0,0246613421966473
0,0133541443582406
0,0193207839832716
0,0179648070435091
0,0147234658207225
0,0159916584908885
0,0128248925759731
0,0133093193638971
0,0159638318002431
0,0297683376982087
0,00815105213759756
0,024332915934384
0,0238946025193577
0,0144775567513361
0,0198350053127501
0,018427019443372
0,0235994921428752
0,0140348150253135
0,00270418928026539
0,0490628812394171
0,00417711898590712
0,0461661205434465
0,00510007769548871
0,0299412915203172
0,00671313912642274
0,0291735093014495
-0,00215007742900301
0,0367961314206408
0,00860302475826641
0,0267829630418632
0,0109334475423318
0,0258432533393843
0,0262185338084818
0,0175784547332191
0,0186214555090793
0,0210615198382624
0,0151901115998343
0,0250380018915542
0,0232265889522207
0,00157687549548209
0,0359453926568581
0,0312336096638338
0,0288470658748298
0,0285733422504771
-0,000985888352143972
0,0570489212729478
0,0155133833419126
0,022529870219347
0,0139744377159286
0,0208712472867113
0,019378408014204
0,00348848689175801
0,0410304465194126
0,0249880503244171
0,0137779703745976
0,0312128393870961
0,00338252751058947
0,0325998414517445
0,0223933773784476
0,0251297859263223
0,0148504179021489
0,0316825091751644
-9,2426078656737E-05
0,0496938528432212
0,031706682783362
0,0140212622369374
0,0454144179900023
0,0204164440757389
0,0329811182280753
0,0197363316612432
0,0277636017577466
0,0190469961820355
0,0389626121469984
0,0252300752408016
0,0181596249153734
0,0189309692704769
0,0553536952725533
0,0109798337357631
0,0378322742968925
0,0197171870475734
0,0144963683877315
0,0259918221695543
0,0620751707667165
0,040866585101381
0,0328392618287667
0,0157194384833988
0,0480650199003888
0,0260160688904591
0,0276728028669196
0,0250870767007285
0,0247398889938712
0,0283923125341417
0,0192862013151988
0,0360305374084939
0,0277179537811524
0,0271383031259883
0,031838987329391
0,0180881873021689
0,032829472071789
0,0314601698484005
0,0726941255318611
0,0156084905589444
0,0644063199718166
0,0449845927471909
0,0363451702610324
0,0338199571425527
0,0267315690841948
0,0403105906905969
0,0318567546216093
0,0338175032194973
0,0200972535021507
0,0438389307628733
0,0452762332479001
0,0184798176800666
0,0613706656676482
0,019758596487554
0,0517148633068342
-0,0205342521694189
0,205921485764521
0,038718609752859
0,0492649574596406
0,0462911382933527
0,0135314426765254
0,10794695567282
0,0437711463172572
0,0431078870877887
0,0438821995455826
0,0416769604432256
0,0420345985221006
0,0510884625492213
0,0465865938404602
0,0591049304446525
0,0560800478163166
0,0410596582880386
0,0445474300653283
0,0972492142652336
0,0767986061568399
0,0801236279061052
0,047795058252457
0,0661111889574126
0,0737505965609337
0,0598776418628811
0,0603502432726294
0,0671871005027577
0,0323867829377092
0,124282478332679
0,0572942585660657
0,0887986614687636
0,0509262194074672
0,113159383415731
0,0450628057793642
0,110178967051006
0,0950299682014258
0,0808022403261487
0,0862758974210077
0,0720617202679916
0,0903374648123347
0,0631230088905501
0,107078722791766
0,0934597344434409
0,0823987840743814
0,091031779779698
0,0817815214918207
0,0926678310255409
0,0858756911573716
0,103960436946082
0,077021419271401
0,127283492174015
0,0567504649798161
0,201886135037047
0,121381108040586
0,0891580781473064
0,109803596625027
0,081088970866902
0,131537891314353
0,0974993965755974
0,110748237240747
0,128759067561383
0,0870408934116007
0,109873208025907
0,090738178923766
0,105828398525049
0,0823403477854382
0,112357342401431
0,0794290950125787
0,11858338953585
0,092248095299623
0,0820141453098092
0,164631404477954
0,0903623197354052
0,099268705938072
0,0893137357071712
0,0948387611811258
0,0881239821807657
0,0985742881518669
0,0787455015047789
0,122140871911822
0,077137422027181
0,100678420332056
0,0727637086671282
0,100050173689485
0,113121737520313
0,082343889415202
0,0938655124717458
0,0807900088333701
0,0902351160114087
0,0796662702303897
0,0572405393206258
0,137911766378915
0,0764153696415933
0,0941952448650508
0,0804026294754018
0,0831037350331853
0,0834987548299451
0,0776387016807969
0,0754305437070954
0,0916633243952816
0,0713841867269477
0,0880979005931192
0,0759882217200792
0,0814583236367039
0,0731914656080107
0,0856472946344081
0,0789192653587398
0,0756234058384982
0,0824873847251646
0,0742921509658114
0,0780911161348842
0,0766261683138467
0,0776938951416692
0,0760802839400938
0,0748774131773786
0,0813231919785954
0,0721937130361459
0,0778796565487663
0,0757054755504859
0,0741108371572263
0,0751450979865379
0,0717561838484875
0,0736910854222325
0,0713944657701698
0,0760516894548394
0,0693598778026822
0,0787205049474482
0,0728424940032982
0,0794652931915055
0,0701763189276155
0,0782217706472152
0,063201713505778
0,0813608895824222
0,0543305234010005
0,100538341685783
0,10100120402499
0,0654552479893671
0,0826083132429536
0,06056774784227
0,0803936238836517
0,0452230034326264
0,0948932963122784
0,0889074300908874
0,068714627111987
0,0704270871610042
0,06555427418418
0,0634695101724674
0,0847051128240433
0,0517429230526458
0,0774392825393719
0,0468103100101369
0,0673665746554418
0,116464593854652
0,0399906691025337
0,135318159945717
0,0700498654687301
0,0705422415610462
0,0399271453871013
0,106429968267332
0,0492629830674471
0,0730594071149339
0,0480514603018723
0,0837997979752526
0,0751797030161513
0,0537262227236378
0,0690031810850193
0,0526707513255488
0,0593849570070454
0,080626424253934
0,0584995708420545
0,0542854032472623
0,0912870970768005
0,0552943890621386
0,0862798287197635
0,0868259249321424
0,0853119629253514
0,0520044037087864
0,0582229910105532
0,0643437196716936
0,032704416272681
0,106127811023178
0,0555989338628068
0,0644445683696634
0,0590078970885278
0,0457598681403809
0,0618990226790121
0,0518753860123281
0,0742427188051374
0,029625981954796
0,0990789947966331
0,0408979045739737
0,0616240989499056
0,0613073335276612
0,0626831950515604
0,0947220786154022
0,0633317601632162
0,0522099730676532
0,0530865942413248
0,0932467891729716
0,048886656969542
0,0696455512329019
0,0526930744598186
0,040868058285842
0,0750094533676608
0,0486223212449996
0,0560533579310329
0,0681654880939904
0,0508870121291106
0,0921093202471364
0,07988126588398
0,0909560132127851
0,0651119126579617
0,0456099844413291
0,0527600597237978
0,0484376240558165
0,0617956329189005
0,0428487517827976
0,0552521183832816
0,0751619419006456
0,0232887384849108
0,102657335217413
0,0592194553905323
0,0548523824460448
0,0582682650848417
0,0570521751251243
0,0539646807529875
0,0675533595673197
0,0760786323170624
0,0789619322949244
0,0527999974436379
0,0889385129655149
0,0514408690603452
0,0745224192881393
0,0588891952528712
0,0730932212498846
0,0581036526086498
0,0783138110682169
0,0698841024138463
0,0745184615767979
0,0686041090836652
0,0807522506181901
0,0612106225340831
0,120813241709955
0,0590572232978411
0,114643399891401
0,0824993172564749
0,120774503697174
0,104135939750839
0,088813150051083
0,0990509217813106
0,0926841250412022
0,0980849288838037
0,102722679247131
0,0844860848085973
0,14197990643893
0,0944585030968053
0,11674509661618
0,0999460935586048
0,117094998631341
0,102110003281572
0,135094377875026
0,115476684178221
0,123171482246732
0,167275113567958
0,115831232788324
0,131947221279091
0,109493662086327
0,123142288169512
0,124372203349621
0,116003198633672
0,124609127551064
0,105667773050869
0,138295405288039
0,123836017792383
0,120434096038148
0,121725750834136
0,121403352464989
0,123773235754715
0,121173343199728
0,122188099752482
0,125696568204201
0,123540369610157
0,139193322537985
0,0960825834394534
0,175068404924432
0,141625465406065
0,128728151052534
0,136488235310348
0,129490156504188
0,140064849177934
0,12226092241988
0,141828306212681
0,144339225736874
0,134137236807816
0,144241346338724
0,134475133310853
0,147636305727549
0,131732600488336
0,16733918046755
0,135377565724907
0,147169803659059
0,140763915896511
0,123427089596508
0,190392823270722
0,137235802605561
0,16939933090974
0,14284062679436
0,155441194329498
0,143899560844803
0,149324473185076
0,143461397420158
0,153862834245326
0,146389694354528
0,151377030656073
0,148069218436146
0,143374331536583
0,147184381504258
0,140027655168317
0,159850864127075
0,146379246432363
0,143328162130158
0,143142968028879
0,142982049674354
0,13804627853346
0,144095656687077
0,156627551384911
0,137248284361388
0,149403901357961
0,139543037921382
0,15044272758647
0,15191930089134
0,138448143223382
0,140495541914894
0,142371701583221
0,138206481112795
0,145977152033785
0,131029705985224
0,166986873616962
0,141176476947925
0,149796421154456
0,139749627671603
0,148396089119445
0,140030787212019
0,148725708342284
0,142782642583653
0,152321431332226
0,145931563622538
0,152139114488382
0,15048379430688
0,148450672347344
0,157291692121308
0,15662774028279
0,159184483336655
0,155254842960086
0,148492901276552
0,152323367634474
0,145034846708975
0,159297557434328
0,147489835351774
0,155322478575573
0,142791643705792
0,152282914597818
0,134610225357229
0,172347743818905
0,144397296681838
0,147558537796061
0,151417449872149
0,137091198806513
0,147505073496844
0,136671253805079
0,142261659602226
0,136699652508416
0,141343383367562
0,136588939716706
0,137702754570004
0,135195042089954
0,139373583621137
0,135368024444178
0,136709052793971
0,137235975963202
0,134971157811512
0,136512712033343
0,133216420684479
0,135630067739824
0,13048103320446
0,134375783168678
0,129836250773476
0,137032836476958
0,144386325080806
0,141294067782102
0,13783661459707
0,12649667834258
0,140491295403653
0,125939746783349
0,134362359579829
0,127490439841751
0,134478421042286
0,127308997378753
0,130875386522562
0,127686159007561
0,128052324146698
0,126141556742095
0,130143995467423
0,124155604540472
0,127526343576757
0,123917819736318
0,126908665458147
0,121079124521892
0,122226187460345
0,123377692864148
0,127136790628274
0,127711618564452
0,119014767302825
0,123541350695974
0,117720404477407
0,122424907715751
0,119869397383697
0,119644236790219
0,121065743185615
0,117553782563348
0,118325501929966
0,117358019817463
0,11882245944612
0,117088441836325
0,116150073104988
0,117318388732334
0,116867197872747
0,115418323035029
0,114327229610331
0,114184094174473
0,113799739134712
0,111123418401631
0,110171484286514
0,112347792457615
0,111708301486837
0,110125506084569
0,106835581487566
0,106961203253093
0,106926115243879
0,10428961533127
0,104725445097891
0,104443495115613
0,10454214105834
0,103533422080107
0,103806072966305
0,103025654163565
0,100668283574717
0,100905064611628
0,0989166209877882
0,100337948039707
0,0997355283000067
0,0988402621508391
0,100908238755965
0,0993369868255639
0,10137540213727
0,101346771507614
0,0987982791286008
0,101611389281972
0,0981198948374571
0,100351388884614
0,100667991820434
0,104622214164725
0,104247595709105
0,10349846551305
0,103898360133332
0,103958348400136
0,105093825010904
0,105292936119234
0,105359181208828
0,105625309986206
0,105624175991674
0,106470102451921
0,105600049522818
0,106506645759626
0,106431811438438
0,105835835433049
0,107526467011012
0,104098260493838
0,106067943851073
0,10547748298618
0,105390897535269
0,105337582114066
0,107397874107094
0,106460628665907
0,105473856175695
0,104435027489534
0,104546330063349
0,103469646554311
0,104367525885903
0,103801219113846
0,103807014850398
0,105141947275394
0,103749985091894
0,102160369517858
0,103171254368003
0,103896464918711
0,102094872120959
0,102536962022801
0,101783786995672
0,100016574269757
0,101287187674915
0,100833180621275
0,101355825224981
0,100200529718874
0,0982368840199128
0,0997932767831703
0,0991013797690803
0,0973385119698661
0,0974971001044575
0,0967999471225163
0,0955576009952171
0,0946343909293914
0,0938430739104367
0,0930864066808765
0,0939664352418435
0,0930362864869715
0,0926070655153065
0,0910828201124713
0,0917894699784774
0,0902905978516506
0,0897022867535507
0,0883419485503494
0,0874059935374545
0,0885041808357223
0,0889183129623004
0,0886545087775567
0,0877949705909788
0,0878167946401758
0,08751472764497
0,0875380501923664
0,088185661693714
0,0873918971422833
0,0874793358538499
0,0864217547383328
0,0885125817040234
0,0884739355976618
0,0856948514133269
0,0857271576083565
0,0871787433295703
0,0858702849594987
0,0841971203815606
0,0855163413727792
0,0840301530665503
0,0825448780618776
0,0836096072873629
0,0813615339486754
0,080677936146422
0,0791639907947208
0,0779858955244464
0,0768759670770287
0,0762241510819807
0,0758292165981664
0,0767036769844394
0,0746277685253573
0,0753138826632924
0,0760070232608676
0,0782746353771173
0,0789494129441596
0,0798648152259834
0,0834555988992311
0,0852909717350825
0,0871730070221883
0,0910791460356125
0,0953823747124533
0,0978795372119
0,101645911482952
0,109121439609058
0,111668381676518
0,117448431393397
0,122409890175039
0,129447592504071
0,136574363502319
0,14291650976673
0,151343706350336
0,159449220993259
0,16800099239585
0,176489774108245
0,186216872390571
0,196922280646583
0,204350572786741
0,214154732861871
0,222745116622948
0,230795214954868
0,240001828620941
0,246173432646811
0,252664525017988
0,257848976989437
0,264752921369867
0,268889503829368
0,269051415894232
0,273420932014775
0,274869604386641
0,27540415083699
0,27276319035588
0,271135058885015
0,269182054115881
0,267259299635675
0,268438093744781
0,261383212073539
0,256988968492393
0,254380038078988
0,251792906629094
0,247202539031282
0,242651906263616
0,241213406946115
0,240790123588328
0,239285814258346
0,239707568725687
0,237234256979552
0,237603493757388
0,23873533462473
0,237907240220825
0,239755774727822
0,241194336042445
0,243486193749635
0,244909018612939
0,248450667532628
0,251051296695774
0,25386908571607
0,258864205857539
0,262536924123693
0,26462012640767
0,269145801254009
0,272681917831166
0,276651302272231
0,277478983673242
0,276587465690555
0,27963630275836
0,282166357754048
0,283599168428982
0,283053298691593
0,28378382864155
0,287065844934346
0,28968226020295
0,288241746636147
0,289582132465878
0,290826175228512
0,292044987153594
0,294260191099932
0,294794309025785
0,297585537242689
0,302112205843904
0,304703174952947
0,30664770140449
0,306323759959941
0,309172518914331
0,313130037771413
0,314666066680974
0,319280476237535
0,319805912667306
0,323187583222003
0,329704484394104
0,330608747462819
0,331369393058342
0,340933304053197
0,351195110972289
0,355686926272792
0,362395775961332
0,373336954077228
0,382751460843248
0,391483080743041
0,401995723074361
0,412464056226417
0,422624588694847
0,435703199975728
0,449492443796814
0,45707785295399
0,464039668574692
0,467311995443627
0,473740645536093
0,476332951274624
0,474168702363355
0,473237935512359
0,471066379758361
0,468806332191073
0,464113721017474
0,460464615861601
0,457417077903405
0,448120212518795
0,44461187128479
0,444877822341216
0,440977603711846
0,437382692176713
0,436118750335256
0,43837779087973
0,439863249420677
0,442227299564431
0,445520424215137
0,449142689289311
0,459147901054373
0,462445413278982
0,466770701952734
0,472877520552007
0,480186672484381
0,487078949660258
0,492322668525991
0,500217918168652
0,506591910905357
0,516462863285312
0,523431434268875
0,528665628653383
0,532761603379131
0,541040027388664
0,552187522554832
0,554406759950954
0,552724152542149
0,566036430684982
0,575514830644251
0,572066644212464
0,57659984887443
0,584070185997593
0,593909039643543
0,596001775404655
0,598367258389671
0,608379120908101
0,606140460170074
0,609939840994631
0,623911572821331
0,618807857011824
0,623745660016002
0,632524054707421
0,625235498532766
0,635003525781931
0,63310764889787
0,631478101559422
0,632746838736796
0,626605002087421
0,631012928630425
0,623174438935022
0,614151237857614
0,609129577905538
0,604149632819716
0,591136998746984
0,575713816895356
0,56780128778936
0,548375361000068
0,532259873019149
0,518754764479128
0,501951337789489
0,490212839773188
0,471418168870668
0,455916844086579
0,440666659699136
0,424758007810974
0,411333165186488
0,404953226074443
0,392311504621718
0,380953186591329
0,371889366477082
0,367375681985765
0,361784870356122
0,356713696494359
0,348630334411097
0,343668726933722
0,336523210287048
0,328943279891333
0,319076682577965
0,312411556725429
0,303489459330475
0,295514741476383
0,28855230318125
0,275963342736346
0,265685698773299
0,25910596988765
0,247174946707174
0,235075450432621
0,221719638927167
0,212554012615969
0,200796946103059
0,189763534251171
0,178029696423924
0,168777278245884
0,15977178768013
0,149637682261657
0,141630015332145
0,129537639126037
0,122696090570681
0,116471300950115
0,108669900245715
0,103068626901219
0,0993667797452617
0,0939964287673324
0,0873797403710517
0,0840977321753768
0,080671546903201
0,0778277586896824
0,0730026171963881
0,0722854232655636
0,0673157025126056
0,0679050526657421
0,0644095475476264
0,06215553042264
0,061750827748956
0,060729332728766
0,0605060719370563
0,0601431026314991
0,058675878671032
0,0587551206832583
0,0599812833463805
0,0598878024023271
0,0567697074194517
0,0575248960414703
0,058403387287033
0,057200868110478
0,0577391532042274
0,0612699993305971
0,06274224951888
0,0623180673325196
0,0634799593205906
0,0643902390386824
0,0631921357042692
0,0660763844775544
0,0683502204496145
0,0723555321909973
0,0732593746211284
0,0747153361211218
0,0714130838241357
0,0716504128772561
0,0755104511563387
0,0764160321618931
0,0747219606686334
0,0731195706404797
0,076925796037483
0,0795069976609232
0,0797318231232345
0,0797759730345963
0,0793000959723399
0,0793837042438636
0,079408536549443
0,0841344251884671
0,0855200378333752
0,0806023704416373
0,0775034689911242
0,0806640370344828
0,0771659241023493
0,0789632376428297
0,081897448660249
0,0815426379429468
0,0799252924005438
0,0789724004353775
0,0807884247209681
0,0780048939381322
0,0736822883394851
0,0803624096870559
0,0734130290415478
0,0737265484463291
0,0755177073547708
0,0769858870856654
0,0748467149322475
0,0733214580840468
0,0728981744150343
0,0739887985113254
0,0725735610379294
0,0760427531334635
0,0726158133587335
0,0737600316305885
0,0774093334078897
0,076865434634004
0,0776265518724476
0,0779905347018955
0,0813744069218307
0,084576208088042
0,0788422170124571
0,086251111606891
0,0876498456393497
0,0875094393643652
0,0882769198908742
0,0883440323415821
0,0835276925633562
0,0855499113183455
0,0804599120683467
0,0793096141442898
0,0820721698284458
0,079829941407604
0,0774734370169417
0,0756051924859308
0,0748392699821709
0,0768236426653195
0,0715515096466575
0,0758927462813604
0,0711727305600083
0,0724322690626874
0,0713790657792509
0,0747410166202141
0,0788520456174631
0,0755696759108216
0,0726270553451554
0,0737427599984989
0,0743635053964724
0,0760428354622602
0,0740985566693333
0,0761226357476379
0,0791607331625301
0,077377218038852
0,0770586255348673
0,0781319859000325
0,0807491793429186
0,0789183655914741
0,0782015731540148
0,0812219117340528
0,0782612574848747
0,078993988313356
0,0750273309627696
0,0791730755618819
0,0793817888920654
0,0815147522672
0,0792606628699132
0,0807160698123425
0,0791535192556571
0,0807545314187228
0,0805591407622341
0,0828451601766608
0,0777263189824957
0,0788604091579101
0,0802573534262108
0,0794179179051197
0,0802642776990534
0,0796539906733273
0,0678834294266361
0,0718738062810419
0,0728634379663938
0,0780672484034765
0,0745909591950899
0,0741814664762932
0,0713649876566376
0,0731298415287847
0,0672574994032735
0,0752749527729715
0,0706279301346181
0,0737134170977552
0,0733128442627907
0,0709690555385684
0,0708111457745756
0,0661919273021565
0,0638716195577259
0,0668108037383875
0,0683378075498355
0,0659163737476101
0,0583423797676207
0,0747384625953819
0,0641986769754543
0,0610604985197587
0,0704222786330847
0,0660843127790118
0,0701414327559982
0,0705167268761627
0,0750165906548832
0,073547283905194
0,0662259880963172
0,0660237603728534
0,0686150955768127
0,0690016880393135
0,069952746865672
0,0730233030469837
0,0718862213929492
0,0784934760892584
0,0760327801194003
0,0704078380467555
0,0680584229405111
0,078720117450369
0,0724730346772385
0,0832707852094893
0,0873336093214482
0,0799439982294566
0,0772644187654799
0,0821077117141879
0,0758022788516566
0,0854923100882563
0,086959705101113
0,088314773972691
0,0902546958764378
0,097179105113721
0,100223484361106
0,090568860365823
0,102046469263807
0,105094263363256
0,110535228298689
0,112535819174179
0,11472609774928
0,110045257415262
0,117376371502122
0,114737071252885
0,115203998973141
0,110225575877418
0,121872626164974
0,127217667470926
0,121830200299728
0,115033409960524
0,125323674642637
0,119233943397788
0,108742657058399
0,115274095136017
0,109125960419676
0,127511729953675
0,115531196615627
0,120050942997455
0,121799396058256
0,129904623501259
0,117112097160696
0,118039995211956
0,120308074430562
0,132016153056451
0,119383950083965
0,119115331581267
0,131728995200386
0,122139023277169
0,119486539710173
0,116181183544654
0,112593860336453
0,121848423274292
0,128738340875244
0,126095470883612
0,11876015198032
0,120016037975922
0,113088697862301
0,109545465278306
0,104310734071375
0,110837515694127
0,118382541938189
0,115658638364609
0,111374562020344
0,117011327497878
0,119497408997055
0,106378600895651
0,103763140735635
0,102864956941742
0,105407504373173
0,103901236418022
0,100842837408217
0,0971319364755882
0,103933395590669
0,12632352223704
0,104991526733115
0,0958633045861839
0,115807829556641
0,131681139392042
0,107662137130304
0,109333660784514
0,105508837648433
0,10384929483666
0,121143871195743
0,114003519973847
0,0964100621383195
0,121631853755871
0,114030162789659
0,126896631631837
0,106344767642303
0,121001795179537
0,137673934231144
0,136899426014895
0,125035089181781
0,130378776037051
0,140185250433321
0,137810287897094
0,145584650688062
0,126284466401561
0,13485456175966
0,142992210968609
0,132325882429652
0,149257332036968
0,153600411820137
0,122192018840262
0,171593874947196
0,168229593337629
0,124239292568532
0,179404025886836
0,141276806593252
0,163162990270818
0,170974332695218
0,146465679218518
0,158272217458095
0,15591691115896
0,148815350637985
0,187422324582588
0,148191596675446
0,137829251770688
0,147122803195328
0,143265215556325
0,126349770611907
0,166132894535167
0,142773105115528
0,105295866724777
0,131831961393806
0,136692180349575
0,139717065221143
0,146515703136672
0,157938207829825
0,157670803465058
0,163742729579421
0,131573969830924
0,124092051209825
0,133920913954745
0,143910723791451
0,109594449827699
0,13170693042122
0,138521461377211
0,100166930650908
0,173391707973645
0,165771109069948
0,156899550005213
0,188283225588196
0,166066582943491
0,156769332600448
0,158356860232488
0,117300415589966
0,159025544175461
0,168322678553092
0,100619907296548
0,17649912154439
0,0160051451413678
0,123735672073571
0,167439174560089
0,175556108510842
0,17587756438009
0,105061552094208
0,139649635891707
0,120964491023947
0,116713880683675
0,266782200115195
0,140330624943798
0,0446973835880807
0,0139013944672183
0,162697462130317
0,154483341922361
0,141234012552973
0,198856854106356
0,126356824223705
0,17511076977485
0,0964894447073667
