3596
4000,36533379555
650,420452594757
1
2
2
0,0513002490395761
0,0357184957929932
0,0536851832939505
0,0347492246426267
0,0584275871625003
0,0359598118622016
0,0554166177079448
0,0269721594392013
0,0514817088572446
0,0423229399829104
0,052665310071138
0,0322855361539525
0,0514038236987317
0,03785072302243
0,0525776203025359
0,0436674498121579
0,0535219726250992
0,0351501769988594
0,0487843473179097
0,0364932450382415
0,0558802697612558
0,036065305192772
0,050400692986839
0,0313609913209653
0,0527586569914018
0,0376542798915631
0,050948723341142
0,0343398807403366
0,0628626106462163
0,0420377534064747
0,0511309424453997
0,0362918260422526
0,0599534186458109
0,0433013845727526
0,0567182213600889
0,033792570382989
0,0517518511522902
0,0389472682835763
0,050791405992153
0,0334467322126699
0,058846405464367
0,0362943058074004
0,0539682378463732
0,0355884301587283
0,0550918561211505
0,0414642738835428
0,0626552137219416
0,0342495524201833
0,0424638663297279
0,041045086484608
0,0542330338471214
0,0360251737565497
0,0624457889643541
0,0456977760543245
0,0599126628955932
0,043032496589296
0,0604308701537367
0,0343959218120386
0,0557734402637256
0,0350741354007852
0,0603884942908969
0,0434755682422635
0,0491021418432167
0,0329939050467483
0,0476014595157437
0,0365878877377051
0,0559564547085414
0,0352895048290899
0,0588002546324729
0,0353171471754939
0,058706578697411
0,0457774837781997
0,0604440149032247
0,0417096826440518
0,0559926735892317
0,0423020514918046
0,0612796969892829
0,0364897098135767
0,046800283635047
0,0479208402348979
0,05976220955889
0,0477465337599101
0,0480461350700434
0,0273035897679324
0,0581865565517793
0,0501688057574719
0,0504680253417221
0,0417099522172643
0,0697486665122492
0,051467213072415
0,0525843837616738
0,0379341108738921
0,0547040335230828
0,0337816380449142
0,0475669818252404
0,0326649923335434
0,0490570177306652
0,0323982505898489
0,0516976985758431
0,0409400700537632
0,0531534452965082
0,0533714357471144
0,0713118225957759
0,0367031894845948
0,084376555943242
0,0446449378011381
0,0511516606151184
0,0587675693876261
0,0756381250930155
0,0425603900750769
0,0513194050396337
0,0299702541064327
0,055900392958261
0,0427111719082536
0,0389956674375595
0,052267918619049
0,0803666205007511
0,0469634220701718
0,0531352778615179
0,0313804308709103
0,0260299647278444
0,046693110509863
0,0829527383991268
0,0444226935972428
0,0624803457366107
0,0396623123860439
0,0399914066128581
0,0553091528091738
0,0771514172341603
0,0446582311221534
0,0498394256466323
0,0450344135388383
0,043831083233014
0,0355577444620246
0,080715795736049
0,0495840575632267
0,0428178659577114
0,0164762443260439
0,0709535730220809
0,0755505720748544
0,075356984714354
0,0326928539794718
0,0361062209193515
0,0422261816064104
0,0732672268321929
0,047825898523227
0,0537369834257215
0,0482175015614637
0,0635468003427814
0,042825707092965
0,0464405593316536
0,0311732859854269
0,0640418326146841
0,0449075713610175
0,0199470762162914
0,0626038682320833
0,0912647023029376
0,0529362181668651
0,0901904280681446
0,045882991530778
0,0568871799513636
0,0403716007999957
0,0460706369590688
0,0368774640993431
0,0515423408699841
0,0297419078314322
0,0498535028765546
0,0543117970208441
0,0501726065746721
0,0276125480782506
0,0745520404648157
0,0398223192144693
0,0413785993874964
0,0886078915809023
0,0632594806834753
0,027057919481564
0,0708721880096751
0,0455939445691956
0,0373751352190318
0,0367284048593282
0,068536366367889
0,0431442065238213
0,0487173282344278
0,0323752448779098
0,0493260844188244
0,0527346842099749
0,0573865818165913
0,0348868328517913
0,0426811901838354
0,0230629202735343
0,0618274840021055
0,0815036303931209
0,0701211450406632
0,0544620034299767
0,0531362537669421
0,0146092731327182
0,0719531806870136
0,0571886619582704
0,0484480453917976
0,0407714080772646
0,0525675400496406
0,030961282912732
0,047230453013313
0,0365821598126826
0,0339069563477635
0,0152988287910761
0,0838677988665705
0,0584210295065401
0,0517665911353005
0,0377450839215397
0,0449134157212226
0,0121997270402666
0,094394086524676
0,0688947667262765
0,0590242674964369
0,0351788415093278
0,0438923157074118
0,041669653881263
0,0650197255183181
0,0382163439826295
0,0458245532961808
0,0352956271093301
0,0505184713701433
0,0397572555743511
0,0465383221955127
0,0389560091356689
0,0532176627881104
0,0359907040171577
0,0473217492890207
0,0397821856452445
0,0579885975637832
0,0396234230733585
0,0507219749077917
0,0373526417323588
0,0370801166151787
0,0434329388568563
0,0688514150315576
0,0393401187998793
0,0480097197523903
0,0363819721960704
0,0417524979562304
0,033714333122443
0,0435790691135132
0,0397884891908158
0,0470783822252566
0,025775811595465
0,0737540551960973
0,047874043600641
0,0504235482793868
0,0292815861687506
0,0656357538280382
0,045369782111729
0,0493997730569951
0,0338768015336769
0,0519907523227442
0,024841744244636
0,0499050894401313
0,0564662426858327
0,065368373585469
0,0325151704342215
0,0726346999053575
0,0428608399239144
0,0483819245545276
0,0253319984162314
0,0290118513718601
0,0817511896984886
0,0533770691856627
0,0182567656184278
0,11283070651422
0,0497196402277882
0,0673758567750867
0,0230085612466981
0,0323795384850388
0,100316915862212
0,108674847857646
0,0354009980323612
0,0569506435907419
0,0531897270778571
0,0472417356041622
0,0377740069599042
0,0477431089126648
0,0379893570454662
0,0665167728024798
0,0740585432250736
0,10788460479795
0,0324467049275866
0,0694231484994812
0,0505499039380484
0,0581743260513504
0,0398367828221148
0,0509958562452226
0,0232642352553195
0,0658748807143071
0,0460266967971698
0,0691312257818342
0,034716286057975
0,0474319778330213
0,0542564188609241
0,0623334547555871
0,0358425719499503
0,053083771609814
0,0444045273397685
0,0527574364710405
0,0396799175924841
0,0402075370875295
0,0471595128293075
0,0421719770062483
0,0255821392148294
0,0972079748040807
0,0400268433523295
0,0486232184640844
0,0601327885396532
0,0593263877843635
0,037597058305244
0,0490015572053557
0,0398895544286923
0,0465580885795561
0,0327690698421695
0,0454245199621865
0,0614953765825243
0,0595059644209223
0,03986328583897
0,0525320099415726
0,0302994434106789
0,0487465412251682
0,0354866923118819
0,0549486073253861
0,0391659417572972
0,0530596815704628
0,015104678521497
0,0660041499373384
0,0617724113640732
0,0339412031219201
0,0573561859500162
0,0819334963470286
0,0468021789134533
0,0504873834492483
0,0434228784955447
0,0516774403068474
0,0440055596562191
0,0516004510940648
0,0329131708013971
0,0476451086653752
0,0527305814800157
0,0607748922398848
0,0398744654636789
0,0433706237588356
0,0492435410264596
0,117819279831111
0,053070388389599
0,0575660114799592
0,0187899794976739
0,0896299655809995
0,056357421563514
0,0770297004949354
0,0598424173696566
0,058263563244934
0,0462203523187603
0,049779217169198
0,0409331739653606
0,049527944776462
0,0429158233281692
0,0536443601081443
0,0443579890683753
0,053110760040564
0,041999207175281
0,0357822286224908
0,0283776140260708
0,0885363607553066
0,0545537566050866
0,059690754681689
0,0533479195605343
0,0417459479891227
0,0422810845362163
0,0683576471263749
0,077313163930914
0,0687469532018266
0,0648187312360464
0,0971936337026312
0,0557996762623774
0,0656307721191021
0,042740245641001
0,0579334415273873
0,053229809092565
0,0624764383324262
0,0460583938803212
0,0554377377098209
0,0494167545586894
0,060674754817399
0,048407647881887
0,0548501581666649
0,0446490570232475
0,0779364532476514
0,0531799969008483
0,0658885413937895
0,0405058968402375
0,0676916263529896
0,071942951821576
0,108647041174289
0,0610567729282371
0,0784074622529421
0,0509839365339435
0,0631502672942819
0,0540161439933956
0,068881088433405
0,0583441961537182
0,0610336732707688
0,0745426590671398
0,0753417276670808
0,0689770275043073
0,0872087704168895
0,049877433418266
0,0876590540811639
0,0566898870497503
0,0819732937365916
0,0826801313433929
0,0850571151172616
0,0461332406509585
0,0879831765550013
0,0627540179836735
0,0872483624536397
0,0756647002152618
0,0801768412454037
0,0640407243131938
0,0782903749075148
0,0680633886649891
0,0782598009647553
0,0736135060245179
0,0920280508121272
0,0737468793317397
0,0834612335992313
0,071900606017734
0,0827097935268983
0,0816056688431029
0,0869338838844624
0,0714521085372156
0,0954419161859471
0,0684194654576117
0,099726797659547
0,0598647036406583
0,107201888028235
0,0849491162795284
0,11153247748235
0,100978102146058
0,101948159162505
0,0783236218904655
0,101923414539071
0,0712223645967298
0,0869284984040074
0,086814602264792
0,104500070844804
0,0821565175803073
0,0906244678667317
0,086917710792304
0,0997846484555198
0,0845621416800971
0,104207789675781
0,0888731889181315
0,10695484375732
0,0777941790580138
0,114355041262412
0,0844794106851962
0,120308588619147
0,101089993360373
0,134847976068075
0,108160312798816
0,122065787067542
0,10112441126541
0,112251457934674
0,0922600844630638
0,119190284005143
0,108321820393539
0,121268132323634
0,0884464581450603
0,115419851549947
0,10104142373458
0,124516921860912
0,106157201396406
0,123749931203778
0,11486556430301
0,138476196210824
0,107859250602211
0,135049559636278
0,107715021078951
0,135734226076408
0,120559215317716
0,139077104868938
0,129493681588952
0,151270116865401
0,115170220652737
0,135922235121199
0,11416775680633
0,149894130918026
0,115004857138347
0,136062096801003
0,113067787809637
0,142891100134712
0,130255577998343
0,142307092619988
0,120293754138242
0,139840900767855
0,128941032632339
0,136467686915042
0,12839029569493
0,155227749875512
0,147617896755163
0,151253554705015
0,137676788285826
0,159803348243785
0,145626748219126
0,161808244980438
0,146860862265883
0,158210065766133
0,146111442633485
0,166876452148889
0,144547048827402
0,15773893153795
0,137882730164094
0,159023074781564
0,147454164965852
0,17059920179189
0,141701874375285
0,164104344914395
0,161280616730862
0,168306726213622
0,161741213174935
0,175634435863569
0,165256615726015
0,176095432493755
0,148990151918628
0,181278262796303
0,155679886227015
0,196799098181408
0,154829207809854
0,186151597098578
0,163012332132957
0,184551447225739
0,178611780016469
0,186097460757393
0,170125559914792
0,187066679906599
0,180443137376353
0,196839780329455
0,172790704945217
0,19060334232058
0,173499014042149
0,192989295112117
0,181592668613239
0,203970146859347
0,17711672985657
0,203840870330928
0,195403057191594
0,181647276536841
0,176690369029938
0,208415801019678
0,19675512498552
0,205386784819739
0,188653487028828
0,213593656391609
0,206961306196276
0,20705265120007
0,184942102682038
0,218745960662549
0,20006811659576
0,224305256095842
0,200704760891119
0,210742252041488
0,19999756985697
0,213484253857583
0,198912141933529
0,225784802335935
0,212591070306797
0,222535148410852
0,205247901421254
0,227661963064677
0,216855930447247
0,237713934962319
0,214029369698131
0,23262377533012
0,211919463219515
0,243137231806962
0,2139908612668
0,237782135533295
0,216934850623829
0,234149783885342
0,225224354043245
0,237511251182406
0,220440749119701
0,237961826903288
0,220561939823898
0,249134103156167
0,233769479295095
0,248353391019308
0,228474566862138
0,259729071752102
0,235391188002754
0,250233882359156
0,246179422677265
0,2478764188194
0,229980732201669
0,25089798117693
0,241941140765985
0,259686199448025
0,232653874841381
0,257040559390831
0,241115258218841
0,250510184342759
0,241243821241261
0,249506092474776
0,234892902564338
0,261838242312364
0,253528021940487
0,26720620170191
0,255367150930664
0,266996466195842
0,248786568126884
0,260146936595669
0,252261131883634
0,277665940580449
0,246793396375311
0,263725188897275
0,248725595030351
0,276257876400487
0,246938627719976
0,270138943657323
0,2578795670874
0,269280495449464
0,247435477732093
0,268256058097441
0,262333717679832
0,281298175085508
0,265437435562612
0,279242930978906
0,264166635811332
0,280982702418848
0,272676195678761
0,288950142595092
0,250992620522355
0,280016530968655
0,271674903536142
0,281427308802846
0,263819719459537
0,285144459992864
0,264990616035923
0,276310456076569
0,26994611901123
0,291961651658794
0,272749868817376
0,295156889812476
0,268621738585468
0,281503646645882
0,282724134586322
0,290063560205636
0,274976408829754
0,293505771226242
0,269568641937924
0,297378324537741
0,273205354486672
0,288764961999661
0,271227085128093
0,286492042623064
0,274303485379316
0,29233863521412
0,274542784260368
0,289878050105066
0,275775093973155
0,298353825950168
0,284560891427128
0,289235642453605
0,280472865074662
0,303258731408819
0,273804256995753
0,293754181976655
0,278018325647942
0,299589826536841
0,282208790954587
0,288908087039085
0,27879923814574
0,297668392502759
0,288013530973177
0,30151527070139
0,27673180973271
0,292274496252212
0,290727198995794
0,305922312551963
0,274620172523832
0,299925036857344
0,277265361875643
0,299837781575957
0,276380500875194
0,296066669931358
0,272303893961009
0,292980909786252
0,280490870926668
0,295828756675425
0,275875515270478
0,296520354570339
0,291195168039921
0,292980576651234
0,2833585147948
0,298120367046394
0,289445411032579
0,301899336537634
0,281964415987728
0,288565495359898
0,279484213790588
0,286439204888999
0,275497025538058
0,295135325003482
0,276881280172227
0,290579918125899
0,283123928140597
0,293380774728509
0,289417937702348
0,293289866770316
0,287837109880306
0,289865372183777
0,279576101822707
0,294800672378898
0,281604976667154
0,300555707258524
0,283745052056748
0,303166510499435
0,278947229466856
0,294292857596081
0,273861830719279
0,292075382583616
0,279287200366492
0,28686105959923
0,280816864854308
0,289961072397682
0,279155738096033
0,288807876407293
0,275786087674426
0,29442994203697
0,276899193528325
0,293612993272134
0,265716001499876
0,284268419604129
0,274207647217556
0,283136726659775
0,27344303663174
0,280064458531744
0,270084476215537
0,284659801827592
0,269085196749352
0,288910708206825
0,274992368369539
0,285801020357708
0,274184515920184
0,292725284308265
0,274037949548355
0,280228540922435
0,281970394594409
0,284624813545834
0,270024073711318
0,283272777549863
0,267556719146519
0,275081445190254
0,270219619717774
0,275324508718285
0,264272870744151
0,275308055772428
0,261835575443662
0,29187040756958
0,270366208695778
0,2719439644051
0,263688459071242
0,278218709567309
0,26170350366835
0,267872653187641
0,264245735938504
0,274928524977753
0,25715921928878
0,266983195255076
0,267281491787809
0,270828058004978
0,257738293687494
0,265588813210782
0,255028343835839
0,273322551798
0,254944149934771
0,268497322333755
0,259299392453909
0,270204702397488
0,255984315999977
0,267382719130704
0,262184148797835
0,263278735333995
0,249940482345352
0,260997011116953
0,254240292914557
0,264389827022375
0,258165233580039
0,25511760423771
0,250505557223164
0,259716262886445
0,247517923250136
0,258346325475763
0,24574161299921
0,258154838669294
0,249243389789836
0,251744569818144
0,243951597914043
0,25519990604683
0,246622221644944
0,250593404208664
0,23985704326633
0,246853463672114
0,239766834007585
0,247786369522556
0,239191322350825
0,242646132643259
0,239764656587478
0,244713535624018
0,228111818117316
0,249108724826042
0,229483798469534
0,243371449954256
0,238401815531285
0,234250169093875
0,22979810150979
0,239159231285185
0,230622506034128
0,236016068744271
0,23118213057934
0,243586160430886
0,229992737949983
0,238578956339964
0,223298985361828
0,232634588164003
0,227133054609319
0,234091722200002
0,223202677943941
0,229710502867863
0,224473420111986
0,225247674441353
0,214984806935599
0,224527288539576
0,220813673840348
0,233539646386787
0,211514442070747
0,217217606238234
0,215229064277799
0,222258352968332
0,208218908193871
0,217311220089064
0,212053410730405
0,21633922425724
0,208197515920448
0,223731183466614
0,208534677352935
0,216773916224488
0,206732450441687
0,212746843445659
0,205428016114752
0,211486387994671
0,197336119615196
0,212556441236501
0,201532008192672
0,20865340036377
0,204942334887527
0,214377595679788
0,197637939835186
0,204704191531684
0,196425697374629
0,199271411625459
0,195043838405169
0,19790861865807
0,191782793156858
0,199621174148907
0,191288188487145
0,195644775792945
0,190371991328229
0,19634480475394
0,187937894905635
0,188330498425965
0,183516507326983
0,194337677072244
0,19095542197193
0,190032032485984
0,186078831048145
0,191731669787644
0,176827031876076
0,185917554549547
0,184300700766622
0,18902402190492
0,171713956662584
0,173586726649291
0,176315521537824
0,184946901107632
0,176243563990326
0,182008759263416
0,169684783774518
0,176710038216297
0,173301368434621
0,179685567393973
0,168670150889798
0,169513996488291
0,163808048009694
0,178431240161024
0,164887344662525
0,171115915229397
0,170302218768728
0,167441432806288
0,160085137184907
0,169315555722237
0,162427086465207
0,165958911430792
0,161536722121729
0,164426957195474
0,161843934669165
0,168298938316734
0,153774393122678
0,163663823707246
0,157752260402159
0,161141308841286
0,150876999282207
0,153480675435312
0,151895370615951
0,155198078243663
0,147403647981075
0,149200719109776
0,144703303034431
0,156689785318089
0,143526089497739
0,154705769993419
0,148277601494845
0,150612210013398
0,141340755450099
0,148283805122976
0,142798685436135
0,146529573537617
0,140708249218873
0,148311978294082
0,141015609204604
0,143700350001183
0,145241810517854
0,144583020859783
0,135262714641264
0,142214159987712
0,138079546261722
0,14201743162577
0,130792886343132
0,141605664645555
0,138479185016199
0,137525450095107
0,132526286321816
0,140736311782579
0,132187772004579
0,133557415159604
0,128195654287219
0,135040152038775
0,130413892731518
0,13059450486002
0,128591295009884
0,131442430186386
0,126714516178502
0,129818632124241
0,126653208976506
0,128167322149151
0,120730699961635
0,127076821784681
0,120599955502663
0,129091647514745
0,126035677720655
0,124388939643768
0,118732941108548
0,12281230624415
0,123255228694607
0,126834405283024
0,112949710073233
0,126794894466804
0,119190407742511
0,119891766107393
0,111695513542215
0,118246180588572
0,117081907780723
0,121927685424342
0,114446496573739
0,118209271895687
0,111813449318925
0,11472891762035
0,109848631039731
0,120346789312771
0,10966704771693
0,110396916630872
0,107982265777722
0,113270976664386
0,105363780010603
0,109362418507742
0,10073672309385
0,110653704869978
0,109547065852825
0,108187925109014
0,109033955735975
0,110534213436153
0,107155097085054
0,106681549412529
0,101316835166172
0,108974043085922
0,105214809200619
0,105720032609544
0,103715806424142
0,106979579966314
0,101950012858816
0,102528304074568
0,0964492459095201
0,103650870943732
0,0990255443668892
0,104360302743214
0,100078727296009
0,103169494646105
0,101933107516238
0,106091192571531
0,0974383659017982
0,0987434731538448
0,0931593909719988
0,0999328441643872
0,0967714944216
0,102442684138752
0,0955238421453403
0,0964876335630141
0,0936024909502524
0,0954212330406135
0,0927609418607875
0,0940458403647048
0,0921062880747484
0,0953768785223759
0,0903638562504524
0,0940576776587195
0,089626109869449
0,0925896161800791
0,0863233474414474
0,09206576846588
0,0883151169090353
0,0951498076375724
0,084748075171505
0,0892858019511503
0,0875433335181933
0,0898766275646742
0,0857049561112851
0,0881918105697638
0,0845810333132389
0,0850484729337916
0,082816672278243
0,0859549448243818
0,0843305776585921
0,0869075153364735
0,0830371638723814
0,0863638194548777
0,0786027056510731
0,0807649123211125
0,0854264979812047
0,0879924148909932
0,0820936461541554
0,083979541628988
0,0805193322062882
0,0814847040601557
0,0790259045722523
0,0856379753976091
0,0798665686299629
0,0871759402854737
0,0788691786636359
0,080375657723447
0,0779167960157953
0,0873577974378018
0,083651093855525
0,0782247962479833
0,0785402099197937
0,0817790915365314
0,0783001164396754
0,083048396548548
0,079663909075028
0,0831878805242107
0,0795119168018
0,0810102703241022
0,0755051393325863
0,0779367201079445
0,0777327316455771
0,0817694562341696
0,0759227122080941
0,0847732715110807
0,0807233226438941
0,0826365837128993
0,0827917763117682
0,0840665655309864
0,0808652858072821
0,0818269005430548
0,0768344205323428
0,0839001857738038
0,077228043579911
0,0842966422813794
0,0769612338034238
0,0788274358684473
0,0808607847524547
0,0840431462721524
0,0803292182090594
0,0893836869408417
0,0810283664659551
0,0844405291348023
0,0870337305876575
0,0903878874469934
0,0849074819898826
0,0875633767592194
0,0828499144146497
0,0836111452154033
0,0850435729448113
0,0881747956796281
0,0845819203330178
0,0874109636267668
0,0824019261673522
0,0865481059592324
0,0845099435983909
0,0935092853117968
0,0930100590245795
0,0915729155056195
0,0872966699088516
0,0895727257151434
0,0865735574205289
0,0938302311509786
0,0886481828658804
0,0974595275022502
0,0918034841211712
0,0952691298499984
0,0930161411116096
0,0962313831138553
0,0936142199661418
0,0983879251667032
0,0981957926914823
0,100093693998827
0,0970115444593669
0,0982504933019935
0,0941808933824933
0,102077315819423
0,104939696116483
0,107377359139263
0,102412109801602
0,104304675281913
0,101740410760472
0,105436481686203
0,103500868135375
0,106697234864531
0,104364574776007
0,107770710930058
0,107003269492213
0,106377842806836
0,106493005143625
0,108781960645437
0,101732041043673
0,109226834726927
0,106194414616524
0,108549843202487
0,106628383567007
0,103307282123463
0,102360760925686
0,108542205848878
0,105046729682562
0,105400365990632
0,102975942371469
0,107005550444296
0,10355521616498
0,106012776393619
0,106376274705085
0,109126652579227
0,10705122738323
0,103323776814184
0,0999360437629722
0,104624826730156
0,102423702150015
0,105405923075352
0,101785495179649
0,103832340220242
0,0997687902946038
0,10349177332538
0,10315884677175
0,100997058785064
0,101256559306542
0,104338356731537
0,0995086838378904
0,10257838573916
0,0981725050389604
0,103430692473723
0,100106674941423
0,102215938086783
0,10217892611394
0,103362111835196
0,102782767899398
0,10686981815689
0,103887959438805
0,107279863528588
0,103541257335134
0,105744244818874
0,100277018444637
0,102455226706354
0,102605135229881
0,102745216890849
0,101024508990255
0,102288208957291
0,0948722938297963
0,101563792371944
0,101677530154355
0,101428550008845
0,10022565077868
0,101463559591365
0,0963873020460458
0,0982589828894242
0,0988693682950034
0,0992977457890457
0,0970720120623087
0,0995556936898075
0,0944756913373051
0,0948723817033984
0,0948008751817049
0,0962023933455697
0,0924041788846463
0,0958751484848203
0,0920541357896787
0,0910529645060771
0,0887450492343664
0,0910963475996659
0,0887374829296409
0,0918454506788167
0,0867798482296958
0,089454719232692
0,0862755053934096
0,0894073572686748
0,086738848333589
0,0859608679157913
0,0825980129814981
0,0826812091627533
0,0822281492373516
0,083751348470207
0,0832852611168157
0,0816113275967605
0,0786583900879699
0,0845352746544338
0,0811407230290473
0,0794566521218993
0,0764145412299084
0,0806114256996283
0,0781283216493349
0,0757519191867352
0,0755875925692926
0,0806981414023195
0,0769398757924986
0,078493830919639
0,0745775684821761
0,0774188444306414
0,071809591109132
0,0772637789851144
0,0779744352811581
0,074527166519962
0,0714751279670305
0,0773979169921168
0,0729305879307623
0,0724814248323549
0,075033302279662
0,0724819303344484
0,0705698557289402
0,0747998054201846
0,0718074005304264
0,0731439900807631
0,0696130230856093
0,0710524180230688
0,0701064858908607
0,0712824149510562
0,0661136833698795
0,0691981896000735
0,0649979384226926
0,0665957423914779
0,0674253923821756
0,0682520461563428
0,068730668253137
0,0697927295749675
0,0698509649914602
0,0682708207041829
0,0628245481369663
0,0680101044882683
0,0675112293503812
0,0660902818080385
0,0649083437672083
0,0670623570655247
0,065934132219895
0,0663679497263286
0,062941958911037
0,0691938620853672
0,0647086446439816
0,0636492260787304
0,0630022087666583
0,0644895406687209
0,063151474885463
0,0628374607630034
0,0635753538585709
0,0642396202089194
0,0599460757425375
0,0629030869868917
0,0622676345333772
0,0622984283418532
0,0621719507853159
0,0622319576016085
0,0591810762955138
0,0618161219309233
0,058530309417326
0,0618069948206528
0,0611268178115159
0,0598816994487248
0,0616204512402742
0,061799640006304
0,0609707831804577
0,063944958182691
0,0607113891207835
0,0620747090087674
0,0602638089535104
0,0613334115288318
0,0578309040083696
0,0585905039578806
0,0613010456824649
0,0607214903613562
0,0578133701418787
0,0588600936694556
0,0576116429831569
0,0597499526610638
0,0563487842144635
0,0603065977466092
0,0569701570406815
0,0569824984783089
0,0588089679331587
0,0589804632710195
0,0562696227086577
0,0588794419680272
0,0576808568261923
0,0577419100529237
0,0547761730597559
0,0582277043397721
0,0599869475386969
0,0547906049308787
0,0561315997319674
0,0602045377107914
0,0566061289465142
0,0555204825027753
0,0545719995885418
0,0543239769322602
0,0535178315433769
0,0538673014836345
0,0542053155202999
0,0554206619419615
0,0500693353883817
0,0532996130439285
0,0557681160626309
0,055591349056823
0,0547407407422531
0,0566350051816787
0,0546129782659158
0,0559215507068731
0,0580101487873601
0,0559360098622435
0,0531531469422459
0,0563847725939242
0,0522178435625127
0,0545187344964346
0,0526998561608514
0,05553710568104
0,0546555384527376
0,0537677996660403
0,0534733186673598
0,0534296789310024
0,0536295719811797
0,0531433218847111
0,050890336120959
0,056326415039894
0,0524628363110393
0,0529401020143149
0,0541450433645707
0,0534297290044812
0,0528339776780505
0,0512340211215778
0,0521722001693548
0,0554867811245837
0,0530526967787351
0,0555430967909378
0,0529385375619696
0,0563521405262954
0,0538285234336569
0,0504395548141308
0,0515119453574006
0,0500615912510056
0,0541689599818446
0,0560741278780064
0,0513864182788991
0,0519925418441704
0,0504101661282703
0,0495831084270618
0,0489836060394698
0,0525206570631625
0,0495043171617546
0,0511057263593032
0,051333145117119
0,0511719181088934
0,048406969989274
0,0488768733898237
0,048226528881164
0,0520050420408178
0,0523638489563675
0,0493036897581746
0,0529762555296654
0,0525176477740356
0,0485275689402779
0,0481660316800132
0,0502246262907347
0,0518263604616565
0,0497511678275031
0,0499717215645017
0,0484225180200817
0,0481618596079189
0,0467406888233163
0,0489314249513385
0,0484791848970448
0,0478650436393598
0,0472038370427712
0,0491567167515573
0,0474378703258462
0,0485608371775808
0,0465579027089742
0,0487701361258297
0,0491235315804083
0,0470318981620147
0,0441515938158756
0,0467643769189423
0,045657580167119
0,0474957092666179
0,0468567390222701
0,0466447361626498
0,0472333545484212
0,045231386652182
0,0431332428607504
0,046812284395901
0,0488010911645354
0,0499379136253804
0,0478174566224213
0,0478937006080999
0,0465207274533083
0,0457410183008707
0,0440011598856745
0,0442907946639627
0,04611835554358
0,0467430634052309
0,0421368224184208
0,0430519922493342
0,0430716684882752
0,0433871397024287
0,0444473155685518
0,0460749853623874
0,0426141569218014
0,044495773757376
0,0422481872462414
0,0416556532192379
0,0431449746293493
0,0426235741537924
0,0452163936768418
0,0417333096058891
0,0411846293073743
0,0431488892448446
0,0413350637117179
0,043000301654691
0,0417600014863903
0,0419409592778426
0,041724847563915
0,0398532416644834
0,0407301818151836
0,042448570614384
0,0392675789063833
0,0416914325131855
0,0408840126124098
0,0411109451799053
0,0412313852792771
0,0401450328638442
0,0407255495778443
0,0395005921272064
0,0401883576148606
0,0411876870025023
0,0416621505958261
0,0407807472739892
0,0392804043862899
0,0398682049701862
0,0427394676820222
0,0413193171154363
0,0383560694303911
0,039792954266851
0,0421062540546092
0,0403798916468043
0,0404218169551077
0,0418202449180808
0,0407872581487997
0,0408425537519139
0,0385895117397119
0,0401048177178533
0,0402607058636209
0,0393796858213139
0,0382091816252534
0,0379434616662025
0,0393220525737253
0,0385949867286298
0,0368627319919187
0,0376135721935356
0,0399444864537665
0,0374456860697411
0,0376037573767085
0,0415884008041787
0,0393466388214828
0,0350249327587473
0,0361530240794696
0,0370167418776981
0,036237952096356
0,0377578386480122
0,0383393108109503
0,0364629425114911
0,0372919114780938
0,038772543434492
0,0378342086092152
0,0394658130018553
0,0370119635657259
0,0345224853184665
0,0373742046344923
0,0360554401088191
0,0366263178363691
0,0372240718513753
0,0364740409339306
0,034285844235133
0,0364221781059166
0,0374391094460091
0,0357231388506921
0,0364801368199873
0,0360899801185512
0,0376504032445911
0,0351873019761164
0,0358064652286803
0,0359210899470994
0,0336410968520699
0,0360477680564323
0,0360422121934675
0,0347199312843508
0,0338629403255173
0,033899937460441
0,038155173099043
0,0350760391022833
0,0362621273975698
0,0364266343203897
0,0323568591899475
0,0345273514935856
0,036100306361259
0,0337659349280602
0,0348150881729157
0,0347336617911965
0,0342975880452522
0,035387211287165
0,0353017353832132
0,0340049310994684
0,0342403744433891
0,0341691557532622
0,0364974104023057
0,036674325932447
0,0366120837415932
0,0345386334658824
0,033749142818854
0,034493886776726
0,0354188723941969
0,0364022124030126
0,0335740663803235
0,0345288579075705
0,0350126368837222
0,0331269244004229
0,0347223716755839
0,0347463209896921
0,0332305607008187
0,0325329362107622
0,0342819799770964
0,0355287375019807
0,0349124437703776
0,0349606972568875
0,0330144967900666
0,0333497411283918
0,0301673168591895
0,0324368583029909
0,0360464883251486
0,0360246309471788
0,0319261226060086
0,0331879620167345
0,0334129370233356
0,0316115307522331
0,0306479163065243
0,0317080322653454
0,0325936740831227
0,0314334692585744
0,032830623272659
0,0327587982614418
0,0302143467265126
0,0333123314947302
0,0316873950154719
0,0320431725241969
0,0311901716635911
0,0317577483870814
0,0323864317825917
0,0312034631021998
0,0296659498897552
0,0340872575403207
0,0351448088897947
0,0325679812674364
0,0311303398231543
0,0310137957360349
0,0325149940888886
0,0310019093055314
0,0315116329159737
0,0324808854563923
0,0308032779734954
0,03204313115256
0,0306798824051443
0,0318559568848898
0,0311359341909377
0,0299084678104938
0,033320644003314
0,0326201482097371
0,0303935765973745
0,0310746121637735
0,0296129116488492
0,030733584769299
0,0320047995966533
0,0320742302543592
0,0292549027523712
0,0300197534748884
0,0302000803157784
0,0309887339996359
0,029973201484979
0,0294207664114285
0,0286007114460695
0,0303379797429878
0,0305877331163979
0,0319831503254745
0,0289395985078073
0,0310810384106493
0,0287694794821959
0,0273898502773203
0,0292625577465127
0,0282342984787455
0,0293671081615891
0,0313417894022877
0,0293798100467655
0,029469724863414
0,0290102435228206
0,0301181994190144
0,0287957893905014
0,0283349314167564
0,0288786217049597
0,0290360152518533
0,0283550624374451
0,0298879728944191
0,0278221141044875
0,0314047245711663
0,0309676695367813
0,0261063683025459
0,0266048085179942
0,0289190449752103
0,0304871899569044
0,0298691132643258
0,0276351857670464
0,027645761394581
0,0285543770676389
0,0296616888219775
0,0288413619856217
0,0273725823428326
0,0275264056276972
0,0288402809376552
0,0280363731410754
0,0293358372100558
0,0293578580630876
0,0300772872191594
0,0276399306850038
0,0270977110913213
0,0269490370659249
0,0277533074570323
0,0266976204741102
0,0291951143768878
0,0274263800762076
0,0260540300962849
0,0278264599631998
0,0300952683655646
0,028697170798264
0,0276539639454884
0,0267327207165018
0,0267247020763069
0,0283022601192981
0,0263446609286624
0,0248356767996722
0,0279177053075981
0,0279945731349241
0,0260714318603204
0,0267417358366109
0,0253302652413132
0,0235110104706595
0,0262019270525949
0,0257287754323478
0,0256465127897553
0,0247114784419178
0,0255095368928079
0,0247384951677307
0,0264402587337184
0,0264082966771909
0,0271648449008317
0,0269927399702764
0,0230128642016596
0,022410093389798
0,0267940510612856
0,0254574249199716
0,0254299775795799
0,0244498354526473
0,0244179779108531
0,02453294497789
0,0243473257425439
0,0252316668491709
0,0241366953783984
0,0253301300436265
0,0236494800665467
0,0249149789163734
0,0235352601252123
0,0240732245170381
0,0246741343821061
0,0223936695416965
0,0257379855891343
0,0250913546143258
0,026187323456976
0,0258604302955434
0,0265777891792276
0,0260362204598633
0,026487145725297
0,0242452854956028
0,0242501926390719
0,0236729497773344
0,0270263459251209
0,0271858110079573
0,0285628618334024
0,0285733394177646
0,0269225851354401
0,0252074329824929
0,0280195113085971
0,0260183521022537
0,0259618531013761
0,0241211079022148
0,0246334066369535
0,0280104136595444
0,0314677794969128
0,0349273457387699
0,0284888535090899
0,0205391977685962
0,0218941391684343
0,0268490845716057
0,0320423659787987
0,0257237152549288
0,0272623300506825
0,0310565906691357
0,0222878105614239
0,0259368234941326
0,0309651855461948
0,0256583420182572
0,0306608016039473
0,0265057426787723
0,0294998789783567
0,0274360603760551
0,0273550035359328
0,030013362425129
0,0257398435362348
0,0282496849080657
0,0288441908276656
0,0236619361250189
0,0190917470889062
0,0251657164215434
0,024422454587856
0,0227401531560603
0,0279171031393835
0,0232344743716016
0,0251627102868018
0,0210487463413703
0,0234754239959612
0,0217585393123436
0,0247058717039384
0,0183569534541885
0,0282959216729492
0,0216166269095532
0,0331861503578344
0,0222478358034526
0,0332593267674857
0,00983237349916703
0,0291827298393876
0,0157146224545868
0,0482463686318276
0,0164141574675194
0,0400335502208767
0,00318300642678136
0,0466459339679259
0,0100670836365113
0,0570004367877801
0,00115404980900248
0,0486700450688479
0,0094288849050632
0,0519659873305733
0,00211551476219876
0,0469669439865775
0,01529929520499
0,0371409405767379
0,0137525082588561
0,0357189599184225
0,0226221521698145
0,0236493047792719
0,0300676063999429
0,0215094739172526
0,0271828106151941
0,0208099170975031
0,0259697066989838
0,0225360217001846
0,0227466298851414
0,0254218854263236
0,0240145169129535
0,0269925082230024
0,020500013095132
0,0252121651845116
0,0190257236124997
0,0249229567969068
0,0227767952719088
0,0236928305492832
0,0218328041450593
0,0251395685649841
0,0240998077614914
0,0234412553970472
0,0212469994840556
0,023702465299608
0,0196263779430456
0,0236037536536858
0,0203534862233723
0,0225372421064653
0,0195778255095526
0,0225582893904559
0,0195488862782677
0,0226691199756257
0,0202274981364654
0,0223508102200461
0,0196545213189379
0,0222913504726026
0,019358209933512
0,0214828555006631
0,0227693218055086
0,0246035735102824
0,0214096988645115
0,0214345753247376
0,0187694442701591
0,0242126311550756
0,0198700699514369
0,0235109597088833
0,0211362045761258
0,0235526151049448
0,0194364359803221
0,0242198869363119
0,0222142318208453
0,0235771022598149
0,020232750078574
0,0236932553768866
0,0210813236557154
0,0226140121309263
0,0209821133063983
0,0242282259574426
0,0216076228841501
0,0243092340136957
0,0206034732435062
0,0234726999212699
0,020749172642388
0,021927735687434
0,0199926145168856
0,0214620727880162
0,0208390587062167
0,0245801660293498
0,0209844586273048
0,0230571108324396
0,0207336834955046
0,0230393535813986
0,0207931523587647
0,0219886678514268
0,0199625567884324
0,0221828501454207
0,0199327690632543
0,0220359873464228
0,0215879334538862
0,0226795456663616
0,0192193614346303
0,0228883894379293
0,0221017746757458
0,0216169452814923
0,0180122896539262
0,0204645277212807
0,020073597722768
0,0204882519780955
0,01919733505034
0,020605260608799
0,0186396983042776
0,021736321877923
0,0207592053053654
0,0231579214433059
0,0225706523263795
0,0240728529738769
0,0205497836674904
0,0222737342789993
0,0203647578472074
0,0226460043020143
0,0197864096421197
0,0241940088412841
0,0209120364624646
0,0208482517481223
0,020195605999665
0,0226813399063208
0,0197303158342053
0,0240067962975776
0,0210921634947899
0,0227662384862135
0,0201538537113472
0,0247988208421014
0,0208076645469738
0,0224200944209237
0,0220368558396121
0,0231773610270111
0,0219480017987211
0,024413464409361
0,0206372035889041
0,0202180830633443
0,0219182104229494
0,0221225278868912
0,0205811554101598
0,0229070448797995
0,0201378632129995
0,0208622260247483
0,0213127986783972
0,0231327217815476
0,0214418470363504
0,0220655177293702
0,0201261046417879
0,0209530933220784
0,0195574664319631
0,021214585992324
0,0233736620181059
0,0228237564476648
0,0189673306269168
0,0213178282996308
0,0194599576790561
0,0213425761059064
0,0223104742389035
0,0238166092067285
0,0211528262077135
0,0226909160993213
0,0218316116416629
0,0232554596229898
0,0218047196645055
0,0223740920392531
0,0187990132534108
0,0227526547762021
0,0210979435681806
0,0210612724291536
0,020631964453081
0,0223947035958713
0,0195673595343908
0,0217254419541377
0,0218390082083403
0,0242223022292387
0,0192248969995864
0,0218901066244379
0,0197412715606441
0,0211857332723664
0,0207567744084369
0,0211366577410708
0,0215227005149018
0,0227697227655728
0,0213847404883441
0,022848019774483
0,0213108938712733
0,0217339929565425
0,0213659186681894
0,0229249939587842
0,021238101667165
0,0219864613144557
0,0195196273516961
0,0226950195475425
0,0191232598775877
0,0218712526860965
0,0205949422355406
0,0216377461530244
0,0207785862643988
0,0231100235522376
0,0213878771058583
0,0210276424804861
0,0212395549269028
0,0254270585403658
0,0221681085205053
0,0219613016797214
0,0218198298266208
0,0214310583583206
0,0211145815212796
0,0230267009034794
0,019725963695646
0,0217322591518108
0,0192734369147962
0,0216384704472946
0,0197074376001091
0,0217028758905013
0,0193469893833515
0,0228739312445634
0,0211095228809553
0,0221996172568666
0,02052719697994
0,0221578790865612
0,0188739086735238
0,0230493597002882
0,0173704976095988
0,020489860379009
0,0216122081569942
0,0213367016050615
0,0189565297225956
0,022005644275565
0,0190819109736849
0,0229943404607687
0,0179344426633621
0,0211128372659178
0,0193275135434532
0,0210190409087009
0,0223750740100683
0,0222653185902205
0,020033453057076
0,021928779191444
0,02007000404158
0,019451901920329
0,0223373189549597
0,0231365734743945
0,0198861617242618
0,0198612016411169
0,0182942956825031
0,0207051612482838
0,017785327962073
0,0225526520325359
0,0209925384562305
0,0205130450936172
0,0192037254334962
0,021339808224688
0,0184810305074742
0,0245554398956165
0,0195987393101936
0,0201508721119032
0,0203210423311497
0,0218878861614035
0,0192170420977957
0,0200740192046954
0,0211285606541949
0,022202203195763
0,017329816520502
0,0217588306666704
0,0202671978725055
0,0223224407173817
0,0202506539924807
0,020695066235916
0,0202235327939142
0,0197817695461605
0,0180252325993117
0,0206574433330394
0,0191928687523039
0,0206469720469097
0,0201230142680033
0,0208288639797044
0,0201780486791839
0,0197568514255853
0,01904280874255
0,0224483937503112
0,0212307700920869
0,0196156708422824
0,0227768389664679
0,022537931938323
0,0182393425133604
0,0199043160375819
0,0175470838910663
0,0209531716538175
0,0184885666191852
0,0219545805630783
0,0179997565957069
0,0195820543383634
0,0180943490904137
0,0199011253749189
0,0190991579179917
0,0208521120937708
0,0175807454806561
0,0209146837772924
0,0174269133898446
0,0192839219045867
0,0181340523714936
0,0184661130599173
0,0179887257073844
0,0220303749498165
0,0175560005744965
0,0208052295204546
0,0182944361952894
0,0229718402013994
0,0218879072748543
0,019465252300995
0,020073396311221
0,0207752918959469
0,0187140606338229
0,0188498700249057
0,0177136562352184
0,0185149327843324
0,0183401166294192
0,0211265582217672
0,0197258668782711
0,0207410787462425
0,0191671436245762
0,0205925483916459
0,0192584789569523
0,0176297835237777
0,0168811539144637
0,0210519370166147
0,0178330165437863
0,0206670841186213
0,018165125150544
0,0182015937707198
0,0185817945810406
0,0194643092632884
0,018987084038674
0,0179236329493799
0,0237356167455341
0,0196181584366671
0,0173649885275997
0,0181864096009855
0,017121837082981
0,0197223583406837
0,0179255959139325
0,0188949327505305
0,0193209448094824
0,0186916672903052
0,0202948891891913
0,0191613286142724
0,0182203666259795
0,0203605565013978
0,0192588311777536
0,0169141787071556
0,0179872619731032
0,0170517642213072
0,0176621851717723
0,0199948548727029
0,0161338578222299
0,0166691820233058
0,0192505889476677
0,018999646365957
0,0191561375454305
0,0172842625781913
0,0182837918383181
0,0232310056577476
0,0190823637673115
0,0193887846978767
0,0176263638008395
0,0256813029321136
0,015956831609145
0,0213197847238715
0,0155363481646819
0,01910425801995
0,0164144969615959
0,0205505668493942
0,0139123468765538
0,0203643794872658
0,0148091412130862
0,0182858928359571
0,0147618123039249
0,0188935148563858
0,0174132360454423
0,0206363825834535
0,0150138731559423
0,0166621192609542
0,0165063348139391
0,0175436123648876
0,0154461382269856
0,0199897081779793
0,0159743136592648
0,0251914304367043
0,0189987799779854
0,0236453174893867
0,0158868033494962
0,0206535810721407
0,0153919551935577
0,0188758985460635
0,0147892799925766
0,016547524715196
0,0149977482726161
0,0198101678934056
0,0138030014741584
0,0162286041840396
0,0149547594764457
0,0204797559305096
0,0144409391734946
0,0207329898056698
0,0135689036351439
0,0201546289087479
0,0143417681947366
0,019463395112575
0,0147604476772578
0,0189730529182254
0,0134345872337478
0,0234714074206691
0,0134798160150615
0,0191133610022146
0,0301454597821159
0,0176067415073396
0,0206447192050985
0,017143198523385
0,0188803292235883
0,0161674770942335
0,0177784721617505
0,0170691597644753
0,0168325328487983
0,0156644137207933
0,0188105179018376
0,0165463014532792
0,017350685085672
0,0143608330875079
0,0164358151140657
0,0169289727136478
0,0179672553139624
0,0163251465494014
0,017790245425745
0,0133696027838599
0,0199947388890409
0,028859580857152
0,0173184173191264
0,0177931328848224
0,0224868269007637
0,00725470542101237
0,0351662533704559
0,0168561223390963
0,0211717657031454
0,0155397967022869
0,016560597850389
0,0157066207944024
0,0202718583530193
0,0157007129002253
0,0175486180309535
0,0225036376682652
0,0133068233520953
0,0222942492299613
0,0149435586336469
0,0204167345931908
0,0157035512450899
0,0196835886253394
0,0128740598274187
0,0169311893204419
0,0149164125965221
0,0164240842607605
0,0169273064640767
0,0161622192154081
0,0189673599649438
0,0139509214849124
0,0143316823733473
0,018220967136727
0,0202413401511763
0,0162588826462101
0,0176160613320154
0,0148649130989005
0,0122953081768751
0,0337783907588512
0,0114203831042827
0,023905573109559
0,0117757401300531
0,0206469406932843
0,0142906930026202
0,020660120265926
0,0111954482603658
0,018984513417378
0,0116904628359869
0,0176561939093081
0,0137742642520442
0,0178509559367358
0,0149487647026482
0,0175943223041473
0,0140193614192693
0,0179770554276388
0,0134696656064292
0,0138371048447084
0,0198888833474369
0,0123391323841977
0,0197969926854033
0,0308520870180087
0,0249112586775349
0,0226994644991445
0,0208074933658874
0,0192189686926674
0,0138920920988755
0,0213122943653148
0,0131882801155156
0,0210188730870368
0,011716777324626
0,019483104889286
0,0130808706623108
0,0211947758683684
0,0114905872317816
0,0183218278923506
0,00916525202037076
0,0215154748638773
0,00991466449711575
0,0229833162255836
0,00916405147152964
0,0237287803299472
0,00466225801978951
0,0323824429184868
0,0109935762493064
0,0293553986681747
-0,00198052790679158
0,0494868566360401
0,0322732837213943
0,0184408046949181
0,0234976294331351
0,0132733017849595
0,0184517886005513
0,016409139132714
0,0137762601690298
0,0208336103021241
0,016209384101235
0,0179946370795367
0,0149029883941027
0,0161083132444615
0,0190892775914396
0,0119885544557166
0,00955710790509685
0,0429572383048494
0,0164229453363664
0,0242956596531579
0,0114398162175008
0,0154731696819651
0,0366192645840436
0,0120643089747055
0,0250805996836618
0,0173021510809556
0,0164025714464825
0,0168593993638938
0,0172961607593691
0,0138430121445613
0,0171302690342574
0,0169018370819097
0,0145948006292368
0,0199995020674001
0,0107457045435369
0,0233750105176383
0,0134651109782092
0,0288155456833664
0,0250106850287792
0,0129266774101268
0,0225011351040264
0,0183796674429537
0,0143920359595261
0,017539943168876
0,0148262046777683
0,0136973504491152
0,0218998345986514
0,03007123470149
0,0121292822714165
0,0333462273869372
0,0250602915778788
0,0142727288662601
0,0218616461339001
0,0184963650687368
0,0288198250717411
0,00621413329581402
0,0177099234287562
0,0446472528980357
0,0124296085984298
0,0464845025832481
0,00605368068457933
0,0301961180382195
0,00626831392649867
0,0300995893684458
-0,00133747196022204
0,0461832461144335
0,00227554436393571
0,0315788474532312
0,00363601734271022
0,0355758466368107
0,0229383329014708
0,0217329597368219
0,0178468020978272
0,0218935509069597
0,0126950232044125
0,0340466599322247
0,017583962292036
0,0079172239819081
0,0400448404345446
0,0339224262677901
0,0396442505075333
0,0252109910433564
0,00385882434840874
0,0630346988199719
0,0131706921358103
0,0272813789137739
0,0108162446022005
0,0249870742380502
0,0143245167786026
0,0120667474098383
0,0423322914025243
0,022802821600983
0,0155469002474427
0,0316557523816898
0,00288192307283191
0,0411090940685099
0,0210197170942096
0,0272081522551078
0,0131540541105851
0,0353978151317501
-0,00522568345310414
0,0734373469576779
0,0201566260736055
0,0311980751383651
0,0411672536387803
0,0264124649615181
0,0335400858574079
0,0238948907226488
0,0239506871308424
0,0265433860893159
0,0380993121766516
0,0277919096427572
0,0131781501767264
0,0257730763548504
0,0534161478829803
0,0120227980580862
0,0407462378281883
0,0176077694591423
0,0179506357029708
0,0330592541991955
0,0651949228377787
0,0434249537046697
0,0316870768985499
0,0163679883693864
0,0528838179902808
0,0237617365309883
0,0250955892511477
0,0225500184276104
0,0230418117944971
0,0264749851157679
0,0181595298490618
0,0389842937922718
0,0219850855914228
0,0278820989853304
0,024485748439924
0,0206579966206392
0,02977859548874
0,0420155805735713
0,0701966535296832
0,016946256998921
0,0760696399309723
0,0412072103761481
0,0413516954018602
0,0266171728069449
0,0236751706382678
0,0395087579330394
0,0297216462342951
0,0289973473805502
0,0150934733896834
0,0531091532872955
0,0401032808902923
0,0245418939802416
0,057803811455279
0,0187235750229896
0,0475621993116023
-0,0277704930399227
0,249397989917401
0,0294216418925134
0,0616937223794399
0,0361513669199403
0,0259085812010234
0,104220132528633
0,0430729672673512
0,0401964309882714
0,0391823263192558
0,0350350002853455
0,0418136241312075
0,046178741226459
0,045937492276248
0,0554482496461206
0,0520994430041761
0,0355112545378496
0,0589807241227159
0,0951989090299146
0,086207920263452
0,0712171900999446
0,0443967313168703
0,0614247271673612
0,065962381769748
0,0487258676496333
0,0589113976068577
0,0501611748550724
0,0346873241180355
0,114441598012487
0,0477433000338553
0,0771606166831573
0,0408603684919198
0,115729211984698
0,0257771027272895
0,127579003578456
0,0753778053982253
0,0810967778302058
0,0674323734212999
0,0693568222627197
0,0773033667967625
0,0540352405335612
0,105230491960523
0,0801455687562689
0,0742758543379388
0,0820316386506103
0,0698958202284118
0,0787612290389363
0,0726093079647454
0,08845166899392
0,0630779912082989
0,125712161119652
0,0239619919094451
0,233632439927245
0,0981674278333401
0,0833694833376259
0,0911320435378848
0,070259274061376
0,117753728972659
0,0764585953500173
0,109867448085799
0,106134419774435
0,0741186551151384
0,0927808401078828
0,0744055568409338
0,0892363548818955
0,0678031830576445
0,0998214781438422
0,0591829268918791
0,116650118632582
0,0666276421711687
0,0878758164570289
0,142549736542333
0,0788790967900701
0,0873000710132607
0,0743858861073411
0,0761688576774342
0,0762428479896097
0,077913214976045
0,0694612355604014
0,104215402672906
0,0622276090102585
0,0918257742299456
0,0603998281791994
0,0939741583358052
0,095989732199101
0,0693770769459641
0,0793850884169161
0,0620759607238619
0,0804593835599448
0,0603163309261965
0,0561917601146132
0,125276489961064
0,0622139369349653
0,0798913368784701
0,0627408288344281
0,0671983147727093
0,0649183063606741
0,0596008127090592
0,062002731528563
0,077035792244139
0,0534750105715795
0,0722184221133939
0,060093345641154
0,0667779543317654
0,0568291191319818
0,0685897800754108
0,0610254876105564
0,065982833760954
0,0670598920366455
0,0633368706006437
0,0623094300266036
0,0616185240935503
0,0619502562341591
0,0608977578441091
0,0587723421392411
0,0693903770192202
0,0581299075204184
0,0653904656538102
0,0621958457132612
0,0603901184710721
0,0621766338101196
0,0572940853842651
0,0591557822983008
0,0567665408024583
0,0610901193273837
0,0575996313000284
0,0622387731244429
0,0575375242795921
0,0662006311244925
0,0578189143449579
0,0637528215820028
0,0519439051501379
0,074437436641733
0,0374948022588044
0,113982838325618
0,079828826482856
0,0552661355955641
0,0684361042171856
0,0494260551290713
0,0706849700984314
0,033466705992183
0,0986609098127461
0,0726962309118473
0,0593544886510422
0,0611740470201033
0,0549557863540693
0,0597883504368337
0,0744765344768014
0,0414940751803453
0,0740120689811161
0,03374334301628
0,0855114213622972
0,0902227576153536
0,0646804009833727
0,132792278391553
0,0709330906219141
0,0622847636926915
0,0402782742968634
0,105900649411311
0,0401542030847381
0,0721510165666428
0,0383947067041334
0,0968512002769846
0,0675396785466238
0,0493301829640846
0,0618532907940041
0,0455908158695411
0,0658249559730681
0,0764742391444926
0,0531702235466066
0,0583713716004511
0,0905428914091139
0,0500063299431778
0,089974114698294
0,0857670322588135
0,0829490430215019
0,0478123378663334
0,0590642971972679
0,0584504297109815
0,027476956466407
0,117316377050709
0,0467859613005275
0,0679128655550057
0,0521303936248634
0,0429988826183075
0,053164395828483
0,0511925399790875
0,0711089502524317
0,0300346980805652
0,106341828661926
0,026054614071176
0,0715681333703959
0,0523229569935216
0,0739193066400928
0,0906182840560104
0,06298584388855
0,0421237837929859
0,0626391106432684
0,0888572036577862
0,0418237322265693
0,0718203082189306
0,0440756148855779
0,0354687698050173
0,0724522729646375
0,0375368427790717
0,0589787692089914
0,05660591200004
0,050562354923419
0,090571954935726
0,0740177034976915
0,096677493334125
0,0579343375416887
0,0362397286393096
0,0495343910829916
0,0373507202514288
0,0575540265862331
0,0260386539339839
0,0651532088379253
0,0589184002262592
0,0145330740075995
0,101341498888487
0,0450153035757781
0,0416427756543786
0,0447554314617633
0,0396100389785872
0,0415197731966431
0,0515069821503763
0,0714883399386836
0,062602916492185
0,0422016382603613
0,0774154046739318
0,0347627004593242
0,05805943477174
0,0371552667792584
0,0539028814171565
0,0393106676605637
0,0632879581874542
0,0469644744595512
0,0519288380496535
0,0484181057355224
0,0539080309574334
0,0432150033694968
0,0966845729761132
0,0279790602707051
0,108327898187196
0,0449658467451344
0,111038259832634
0,068443311172769
0,0600440789848578
0,0656495548014947
0,0581696918827888
0,0671335181147256
0,0644180918560093
0,0505736079682525
0,111382487798892
0,0559578172973761
0,0822153318984391
0,0565137278860799
0,082743492460924
0,05734489006766
0,108265243297505
0,0695002785467105
0,108033543659769
0,124423569964524
0,0799794977374383
0,0903668096250537
0,0657939168288003
0,0882153538818703
0,0800242953950797
0,0687969936278428
0,0819849531994762
0,0611037277732092
0,10010616031187
0,0728037415788681
0,0796751118551218
0,0745831578224919
0,0775588408816257
0,0771067029769807
0,0768661697388973
0,0781954227801376
0,079226000796973
0,0744815988955847
0,0911853358947737
0,0475858761870102
0,141524942379381
0,0875182500278004
0,0844917571537122
0,0836156954098553
0,0800007913916916
0,0901436746510555
0,0770013869671927
0,0959650939226911
0,0951429210350419
0,0838240691101201
0,0922394633592192
0,0786966997019694
0,0927356757063879
0,0788091605990798
0,125542436192632
0,0755725993918469
0,101552822725917
0,0801350102278951
0,0805534163447934
0,135340871528571
0,0877512566006443
0,115072122663363
0,0856760104117154
0,102952171133261
0,0862167654268761
0,094910335207731
0,0894664206057574
0,0983600757505934
0,0872684981066702
0,0978866448680562
0,0910706656858218
0,0892663828923536
0,0947599105505435
0,0823732844578333
0,106896508098006
0,0924239937726119
0,0914992719948712
0,0876070690823211
0,093814430924302
0,0828479135245899
0,100118013734804
0,105238678177992
0,0890802723512188
0,101659296229808
0,091804308185732
0,100909195334056
0,102757435059764
0,0856216406608102
0,0922847861453625
0,0888042614944345
0,0874148520867944
0,0931880278456569
0,0813079302053811
0,118487395269653
0,0887878151423629
0,0972294977844602
0,0859304089353458
0,0936768679186595
0,0861861388992339
0,095416131425271
0,0847422213561122
0,0965416299810136
0,0899784939677677
0,0964904667737906
0,0904911880749543
0,0914625779073054
0,101967262667912
0,10020494396032
0,103560426498054
0,0958272208749163
0,0912043596444009
0,0939947445945845
0,087294347575596
0,0999204964799483
0,0884603909880598
0,0969355685622426
0,0872861017718241
0,0988611531761468
0,0746621352854219
0,118251716683882
0,0831617777966874
0,0940101598138675
0,0930207938568168
0,0804025996777875
0,0900424861234724
0,0804609421025355
0,0840889001985389
0,0810526329769344
0,0872155033249306
0,0792408836953315
0,0847202136968102
0,082551374746156
0,0849593444720694
0,0816180728531101
0,0836812307014255
0,0817890780243952
0,0812131784685465
0,0817103761802777
0,0788327440265479
0,0841242704538625
0,0776520510068236
0,0827934284879103
0,0740006340188211
0,0897588640100815
0,0924144433450734
0,0913949195734166
0,0884905537449971
0,0762164457112127
0,0886798742021847
0,0726248905345076
0,0850532226228618
0,0751033291598896
0,0833839689930899
0,0749765699949115
0,0834416324098017
0,076307746346031
0,0814541223722002
0,076391400435176
0,0795994419109377
0,076630750814616
0,0799344114449058
0,0746921647250659
0,0805025244601868
0,0749996039511838
0,0791487371061912
0,077557147403452
0,0844820796945152
0,0836693596073718
0,0779605247065382
0,0825808453787086
0,0725165475735936
0,0809404081932741
0,07710817681081
0,0794786807641845
0,077468981286094
0,0753345625004453
0,0777141976222178
0,0743806927374295
0,0782026967426953
0,0775786288771923
0,0763385807035943
0,0769711928386279
0,0751486860864079
0,0742539528716135
0,073734984296759
0,0728541449446994
0,0738768462820427
0,0716944853518214
0,0722613840195105
0,0718007584082102
0,0725550674524319
0,0695830515732009
0,0706559393184019
0,0696089713099012
0,069982484460516
0,0670579686433895
0,0690110193261065
0,0698743713461473
0,0698182731685387
0,0690687565322612
0,0678847438650616
0,0669161191530875
0,068453804754171
0,0659042376313173
0,065500234759214
0,0674250128868719
0,0656636939112141
0,0650895199685608
0,0661112606504106
0,064787399502992
0,0673664352254503
0,0680391186380905
0,0647261738996107
0,0659336044184975
0,0648720031252797
0,0659542215291183
0,0664418317371624
0,0702678492217141
0,0685420500597568
0,0693279307915936
0,0679172037584466
0,0685060988225276
0,0681712757333267
0,0683245892057956
0,0685883098914076
0,0700136145012737
0,0693984258255765
0,0689714562364649
0,0676063573074247
0,0692349658575448
0,0700953255244234
0,0698277973043537
0,0711689785717559
0,0682156256958307
0,0714489663219167
0,067631347109886
0,0678306108227827
0,0696317579017116
0,0702448546771658
0,0695431739063218
0,0696498107247479
0,0687198721088273
0,0690503927292356
0,0680279785739599
0,0677354393015075
0,0676719764589305
0,0680824333276095
0,069133135154481
0,0676063825915126
0,0666847705654484
0,0670024131184697
0,0665289859725891
0,0655215664639414
0,0665056739351575
0,0657703766552941
0,066610101851843
0,0669796396137238
0,0643561232473154
0,0653189239391366
0,0664333473015442
0,0660074822369583
0,0646381000034697
0,0644665808101724
0,0628701851801304
0,0625681318206245
0,0622444896415752
0,0619380567356259
0,0636761524912812
0,0623847005706239
0,0603529091381964
0,0621510103169157
0,0618758330899862
0,0609821635717693
0,0592909498608682
0,0603874240205983
0,0591112351171183
0,0597489784713197
0,0601996562193136
0,0595379584736075
0,058655613782204
0,0581811415077706
0,0590700670942499
0,0583984815548412
0,0564231382162346
0,0569430077575798
0,0574934546029844
0,0568270759993746
0,0560896242936899
0,0550924089045181
0,056074357797536
0,0576699216459797
0,0561944917715994
0,0544070002238202
0,0553152807155041
0,0559820890028625
0,0548722529515391
0,0545408821022324
0,0560211446239961
0,055320900001329
0,054660792355101
0,0542563934243835
0,0519858988465107
0,0521217227006914
0,0510565848975417
0,0514315572193701
0,0498683571335482
0,0497469607227124
0,0495797346186061
0,0510234411579178
0,0498352119816151
0,0496028511813758
0,0515209571103261
0,0525443006516186
0,0525015080052088
0,0524668991494631
0,0530605621959443
0,0550766141417045
0,0585992673064041
0,0599079796803957
0,0625052464398665
0,0643957870420842
0,0643488027232514
0,0692253922377693
0,0709090917339278
0,0727939782682224
0,0749602207440564
0,0785482894289147
0,0834483001566859
0,0877537508856
0,0898051664640348
0,0928842734059215
0,0972986834755217
0,0998420599241892
0,102640375639482
0,107662880004855
0,110782488827305
0,114238676438591
0,116628244788943
0,119496302416833
0,123537279721231
0,124078427867434
0,125734231297865
0,129161798774783
0,131704066798182
0,132725639387919
0,133539753794726
0,135989754151275
0,135105681050678
0,13700895251366
0,136916135273411
0,134347589542056
0,13592136068726
0,134517190870952
0,135060835031965
0,133723163146688
0,131993471250258
0,131425718269371
0,132558401036453
0,1330351440296
0,130072080555232
0,130737943426553
0,133217580293418
0,132638593007993
0,13286845964845
0,131687893511338
0,13315205049737
0,134395016313047
0,133101763632706
0,136415189601268
0,136564393533084
0,138170060562682
0,140319107651321
0,142401373014282
0,142546017120556
0,144861405516443
0,148539632511237
0,148066140545217
0,149725808714257
0,153047854690021
0,153449517092559
0,15542279349152
0,156620996933585
0,156344796020881
0,15667312904465
0,157768289623641
0,157545283455865
0,158285912320076
0,158112958162917
0,157469460699888
0,160100386225719
0,158917342263697
0,159073252579539
0,159249781861584
0,1583517862011
0,160450519442397
0,161279264171548
0,162346652790081
0,165685024204834
0,166306048448218
0,168858755217875
0,169292382038538
0,171324060185088
0,174278901072346
0,173127464499391
0,178442780951577
0,181785368629071
0,181457796335545
0,186815166762892
0,189381047090687
0,187594486316344
0,192445612911848
0,196012374309249
0,198397390448694
0,201171853070275
0,205815920350551
0,208939094393406
0,211321901955591
0,216815128022971
0,220697123075858
0,224761833825387
0,227593468485996
0,233935285210297
0,237007306210071
0,241440493235856
0,244746392185986
0,247238902386839
0,251217020471574
0,251734564707583
0,251976539394949
0,250667381947204
0,25131344962862
0,254741993237661
0,253913856416044
0,252951412652129
0,251303501187008
0,250785800388491
0,247243740042712
0,247921354101139
0,245528466949344
0,243574774027939
0,242140399933262
0,242200402451249
0,243260497282422
0,23869388697104
0,241958390333149
0,24342497682714
0,240989321318901
0,242611677972196
0,244940818432522
0,247792231362079
0,248835593380733
0,250663004643062
0,253122054650631
0,253267629639434
0,256411730244153
0,262421798960451
0,262115052655518
0,261470280747013
0,263996291990474
0,269039555740363
0,26752300408645
0,266741066698579
0,271530992233766
0,271716396353697
0,272940808086929
0,2733955823354
0,270408899450663
0,272326222708217
0,274907828687219
0,276071002693934
0,277429767229899
0,276049873160973
0,275945264014546
0,282524122544846
0,280143674989002
0,278232362813118
0,278117710400331
0,273811696971674
0,273616095969496
0,274639825139857
0,275218958644969
0,274205760422882
0,273416258323592
0,273625849481901
0,270234155607091
0,269865412255462
0,268012514989966
0,26560476408778
0,264000729761676
0,257844921850438
0,252591334860851
0,25331272178106
0,244917240308047
0,239203986887345
0,234353946582632
0,229573309737862
0,223534357259859
0,219124306321043
0,209995854451461
0,203850140723057
0,203027596229215
0,198449243295237
0,19282182728624
0,189477556079746
0,185901921329001
0,183710401834764
0,179560703485846
0,179724449695752
0,176412979026353
0,175816680768782
0,1734381053562
0,173208954865887
0,169445155857724
0,169597991842155
0,169619312410743
0,167913499343451
0,164938953267787
0,160879322131067
0,157158439899255
0,157085740725665
0,154105074629499
0,150949303207817
0,144995268945162
0,140368412515361
0,139477117813486
0,13523299029442
0,128707367053727
0,127969936181672
0,126018698016832
0,120830770308211
0,116230372522075
0,110481878695773
0,106290717456533
0,102240738178008
0,0990324500237144
0,0951562200294165
0,0899992085317144
0,0880046352100497
0,0835462991580338
0,0802164493337849
0,0769856884964797
0,075405586656034
0,072125681614516
0,0715730804851767
0,0664188054133893
0,0674624525499474
0,0631160650068201
0,0619248607558883
0,0616329394461538
0,0619188474086315
0,0598843644451968
0,0597440928053484
0,0576891003090847
0,0584952164457274
0,0564585547521855
0,055943506081042
0,0516828521073696
0,0519641218267223
0,0574896458038006
0,0570489409692699
0,0550504421004099
0,057956652021532
0,0553419553847063
0,0549383033844314
0,0573124489259495
0,0581237695333788
0,0555627148833006
0,0567128209254675
0,0575630624887017
0,0586482541988825
0,058542357588441
0,0581801861150204
0,0573457003778052
0,0586099179377532
0,0571016356925219
0,0582830621737187
0,0563302425360987
0,0567013892068135
0,0577333595851227
0,0594145876159558
0,0613136629593216
0,0591023415028444
0,0585583791877181
0,0595087669256396
0,0586873026142399
0,063685902430359
0,0639238118738735
0,061007202469935
0,0593379645727772
0,0611105606838268
0,0578012198685754
0,0609626957346417
0,0623102916574433
0,0615692425948234
0,0622214806733109
0,0616608284158328
0,0615804066992994
0,0602779507722273
0,0586953046191249
0,063670275072082
0,0570081803358977
0,0626315828277469
0,0599752366952259
0,063800628116632
0,0577874946609437
0,0566149056662658
0,0586239380266593
0,0598586270930621
0,0604622992112211
0,0609902504406102
0,0590199416320849
0,0600950047185718
0,0620371324625021
0,0651458310732247
0,0642255960960727
0,0634709929563156
0,0648309253497106
0,0704156046149161
0,0668038684549514
0,0688054704698803
0,0699043044597294
0,0734693698396535
0,0721465500426161
0,0728096100293585
0,0694035411112985
0,0712511763827018
0,0668329264895102
0,0651880409912512
0,0650986945598053
0,0666450610704426
0,0647369805766963
0,0635191515138748
0,063836408141601
0,0639786166624798
0,0576949496647572
0,0621945917267028
0,0601297334797673
0,0628840207573668
0,0638090254642966
0,0648173945733175
0,0640212661909785
0,062623722048238
0,0580253897987273
0,0608003909825111
0,0620132958903218
0,0630499862481067
0,0602204412887738
0,0616372354047827
0,0574798763556526
0,0675966298890399
0,0650673965786365
0,0568767893212203
0,0630177935129137
0,0651216221902018
0,0591759056606419
0,0627533026369915
0,0611498961204959
0,0614925797503967
0,0558791209447496
0,0612993900399078
0,0604945391824852
0,063838288134122
0,0595404361357112
0,0582977837018212
0,0596894633046699
0,0612756471530122
0,0569785899853803
0,0619598775182895
0,060777298522507
0,0597281630536319
0,0595047277051404
0,059121771437266
0,0614283892897078
0,0626818219677716
0,0522419917792081
0,0557012858261432
0,0533892669172724
0,0593465663688017
0,0552109521993237
0,0595947012460701
0,052419376199419
0,0544966071386502
0,0555282689872455
0,0632366270289314
0,0531137119836118
0,0540789014232511
0,0570152152384852
0,0611544073535065
0,0576389493145893
0,0539105243873414
0,0535806496580835
0,0570590957219466
0,0543547252182272
0,0584536610257991
0,0509360403006106
0,0585839433408817
0,0539179686782125
0,0518883982675716
0,054513505161962
0,0500606305339202
0,0588537044377595
0,0569314028609107
0,0557929805493273
0,0618378373085746
0,0567913130957847
0,059581135040231
0,0525256590698253
0,051375636031844
0,0584510069237566
0,0583618680294838
0,056214520834825
0,0641187602208559
0,0608998288718621
0,0580905052688981
0,0547438163013501
0,0660644018840151
0,0595324796730991
0,0623140059510729
0,0657147460711891
0,0616496283612227
0,0601593203754162
0,0658908498251856
0,0561337979511199
0,0656570659304539
0,0644880997711264
0,0664681315374418
0,0648164121556459
0,0731934004077063
0,0731643430708445
0,0643131602964376
0,0713431761033269
0,0807972376441642
0,0787108657731025
0,0816760939392676
0,0827232209213247
0,0881320816612568
0,0883950251803588
0,0812291564585499
0,0802282107922528
0,0796915764472549
0,0846207481464046
0,101513898126781
0,0927221696920223
0,0875791786137791
0,0873551685303795
0,0850573458782595
0,0687215504021832
0,0829924062501705
0,0901454865334811
0,0941554858041813
0,08290536313457
0,0876749388609371
0,0900687710746636
0,0916694468386068
0,0768419535163123
0,0865715846942759
0,0706032434473107
0,0802792181543231
0,0848247473955294
0,0928680619727549
0,0878854325762406
0,0894131248846042
0,0921912665078079
0,0825442542655459
0,0809323162824475
0,0932831550380745
0,0816649368668216
0,0917700787755279
0,086675642328743
0,0802316269890533
0,0815232935466252
0,0799662735250804
0,0839069923273566
0,0862730651387563
0,0860954967069896
0,0864933151282968
0,0895319380055996
0,0847360307165687
0,0831508548071347
0,0805844478053413
0,0753166727167661
0,0777925036284689
0,0663547413102386
0,0765503285257154
0,0769903435164423
0,082394345192
0,0721258330490158
0,0890490386292705
0,0754638437356359
0,0850735088913613
0,0868422343157793
0,0916089029273125
0,065079670401472
0,0778539061596178
0,0694632530311637
0,0741273585634192
0,0902650961731932
0,0768600766409629
0,0582230467287856
0,0916261023409237
0,0783828179204449
0,0915244294308966
0,0706994636902562
0,0825697535917548
0,0913856949437868
0,102072383341362
0,10663160283204
0,102493077072618
0,0943593324618134
0,105157372740521
0,0972977400140718
0,100313529721816
0,100588434236991
0,098161494484292
0,0976853388216228
0,118799295847558
0,0998277189492224
0,102520797739913
0,118419039801681
0,127686540992922
0,097460790381238
0,11139222688329
0,0981412792484911
0,12845824674531
0,102762095017752
0,115480804879921
0,115031189990612
0,103506192159263
0,116409344991683
0,136380600368707
0,0994756118486388
0,115294387348379
0,0969848360860794
0,117775100631697
0,110636309124418
0,142258646403592
0,100277108410335
0,0942573773992135
0,1246365044189
0,136915892513883
0,0938334819727649
0,105358276715293
0,11223206895498
0,122945159521526
0,117683635616347
0,0988866377104645
0,116946885757729
0,109761371417346
0,109317519197448
0,0897613169340821
0,0758648353797769
0,13050380761311
0,096667990601241
0,0682580304755593
0,11688415822029
0,1221330872328
0,122561110805503
0,159075266753158
0,190583038931599
0,16313295141572
0,142359169863695
0,138863512304689
0,0537717597082396
0,0759992688806844
0,0781040408447813
0,0147715790238917
0,0180550966784296
0,142075277886948
0,0708991223846631
0,179241654150121
0,144815549335045
0,148257084792692
0,0369903440996106
0,0659416444586278
0,246728952774949
0,0647521010037443
-0,00501271121801768
0,0640988477104859
0,15021407317168
0,204579890829592
0,213672521768712
0,261766538568364
0,202743029388919
0,148861795611883
-0,102139806053355
