3596
4000,36533379555
650,420452594757
1
2
2
0,00205089533554111
0,00436938614980253
0,00133811553478249
0,00641038351593789
0,00502868340097799
0,00286861868265002
-0,00476908481847298
0,00143007855921043
0,0028491206291363
0,00254227579052112
0,00556815520388797
0,00310572902902448
0,00478461716514497
0,0065064080621073
0,00813740137528195
-0,00184216359997974
-0,00421155959653141
0,00355314530281382
0,00712787912991792
0,00504162660431399
0,00703123548208115
0,0078597929489389
0,00066954140562554
-0,00177829933664002
0,00481022380411331
0,0117812196347796
0,00147307422823728
0,00583581196864538
-0,00273620990050725
0,0059354500589952
0,00205312789505964
0,0054275349744067
0,0074759490034335
0,00322230929354134
0,00247129852508369
0,00450856681299556
0,000417681699274569
-0,00352906454949838
0,0026390415508246
0,0105942093671024
0,00374998877768282
0,00967254574430782
0,00738346826976233
-0,000951845600522938
0,00612839660866248
0,00290562388979404
-0,00268757388066413
-0,000697310880447198
0,00242258019841198
0,00900310934097431
0,00695955847419639
-0,00109771567650543
-0,00035162973084372
0,00404905300810512
-0,00196916968363459
0,0109906141652886
0,00560888623669773
-0,00172219688615397
0,00294599953998386
0,00511553207817549
0,00882891045374275
0,00267174898177394
-0,00201123097822755
-0,00145238512639537
0,00546979277728541
0,00318128126793666
-0,00135380128780923
0,00687182494085355
0,00764195938895867
-0,00399717043329368
-0,0073719171282431
0,00241603567541459
0,00332267757309205
0,00534249955763516
-0,00523053117800473
0,00586942352734468
0,0126722357385587
0,000870422020582126
-0,00305012996699306
0,00576556077549677
0,00376416980472557
0,000276601700668407
0,00813378244079115
0,00435203274043906
0,00409932489562677
0,00707676426472664
-0,00467802378922959
0,00808181930107281
0,00791953807942798
-0,00307706812220865
-0,00213318230563499
0,00460997696943539
0,00532659289137239
0,00904661656427672
0,00148587476483218
-7,81943920951986E-05
-0,00665269406948545
0,0102591737969566
0,00406282475190919
-0,00448100662427922
-0,00245472240962422
0,00329662801135327
0,000664414945554459
0,0078515216597633
0,00595481300017274
0,000193338857614571
0,0124692925947326
0,0103624254207862
0,00148474353530936
0,00282997507897918
0,000904947466304858
0,00200166810190887
1,23085192345394E-05
0,00324755471447592
-0,00418335695243579
0,0128451874293105
0,00648051282889573
0,00725952554189869
-0,00363957360656305
0,00762651985490377
-0,00235377686240618
0,00931870134676855
0,00577028857415958
0,0132110743688605
0,00498529562219275
0,0018081890274976
-0,00502884011390561
0,00309710421828391
-0,00886672140638611
-0,000260084626419258
-0,000593950528248094
-0,00498466066779309
-0,00540665893390135
-0,00260460439149837
0,00976987116765389
0,00961359236231185
0,00308570507975567
-0,00719895214845417
-0,0052929758923927
-0,00169221881876396
-0,00442293369434666
-0,000532921294021741
-0,000276984392266152
0,00494822148272229
0,00656264793944738
0,00768619392538503
0,00272473751935369
0,00548071559692781
0,00185690522494432
0,00235074694721873
0,000450633257749128
0,00624156203209822
0,00139687943849647
6,8513149677974E-05
-0,00255259545651986
0,00152606200525769
-0,00332957163381659
-0,00286644932681583
0,00103275749602935
-0,00207235644369655
0,00277568799438586
0,0043288069802617
0,00431939384034137
0,00390046949185968
0,00461940657485269
0,000784600278978646
-0,00521609368711988
-0,00267433108641029
0,00400621399996519
0,00789126015007749
0,00875295028862014
0,000114888043457281
-0,0127096710099676
0,00976726693936541
0,00320190296679496
0,00704907452776812
-0,00496605777791866
0,00159040522387232
0,00657160052594844
0,00785958924188611
0,00476125533301139
0,00232721729965788
-0,00124779276744799
0,00219749660796169
0,00810417228638464
0,00405098298296006
-0,00490805899270112
0,00300937214564093
0,00577504946493264
-0,000724398021777568
-0,00018423738340032
0,00739760303088809
0,0103867636866892
0,002231229283933
0,00611220778228263
0,0042124839342416
0,00123814734182929
-0,00103858278771945
0,00257479441912144
0,00376192893193679
-0,000272657267018351
-0,00443928931318333
0,000381673915643019
0,00252873577837405
0,00258760402217521
0,00380780316080039
0,00598861523963498
0,00640590475949722
0,00556517811216508
0,00174796372713194
0,00179322026239326
0,00153701910814255
0,00293434536455451
0,00522558749763991
0,00265667193018772
0,0068151530155087
-0,00262613943928167
0,0110598378922575
0,00365779610289994
0,00319083310343072
0,00354839822954957
-0,000554571424754529
0,00020035051405836
0,00092931681992734
-0,00465953032363508
0,00285658960435399
0,00580013076650721
0,00360899984671252
0,00548889233135193
0,00193183243834723
0,000523580820053967
0,000692266393696719
0,000409382194853228
0,00329591151022769
-0,000675382793790643
0,00554597915067483
0,00245826937054605
-0,00135081849237572
0,00429440710537448
0,00365741079679478
0,00634280090571367
-0,000982350878892725
0,0022117829401773
0,00459589043926674
0,00295044263282111
0,00558458231131647
0,00661894756450317
-0,00246166332420795
0,00186328680965116
0,00403661451709835
0,00858606847393178
-0,00451920244583237
0,00155253653666369
-0,0014767629809929
0,00163855176819693
0,00310228614940474
-0,00566573203975817
0,00450546324311676
0,0017659235826674
0,008370495051788
0,00374039422800717
0,00353669487013049
0,00869104413799459
0,00332576561124539
0,000668200698922611
0,00901162963684631
-0,00381883145197897
-0,0067319123051605
0,00917250436175159
0,00838489225050575
0,0157505029348405
0,0119402556783339
0,00575006456858436
-0,00475064231035974
-0,00367073628775467
0,00540526886805497
0,00109892121549941
0,0069612171667035
0,000508004545583652
-0,00163518052714587
-0,00614275533251255
-0,00277661710893875
-0,00336469365027122
-0,00806156591154013
0,00362493898250026
-0,00401953817432988
0,0102859492101113
0,00373471962246312
0,00300296507061841
0,00284407294431422
-0,000405170349686635
0,00978545719428415
0,00314896046482879
-0,00221667532212515
-0,00201807217626282
0,00586904182302717
0,00132814497560115
0,00448304801869756
0,00351044674207002
0,00656625246351851
0,00183566858066872
0,0108112155859411
0,00759281493495356
0,00471291213233834
0,000630493159314232
0,00896634668026686
0,00401742277581397
-0,00746931939791644
-0,00213220180612167
0,00325152544617419
0,00302039201967302
0,00645188571340406
-0,00335500868093982
0,00115245239735774
0,00521740797237903
0,000229505130848523
-0,000993764486869957
0,00791846624400632
-0,00273498606939791
0,00822811973923785
0,00818924874014418
0,00449164643381783
0,00383606709310383
0,00164891638370346
0,00370583567857631
0,00662539964555056
0,00632103713091475
0,00351097785737607
0,00135680239947395
0,00524640757719042
0,00760965586881835
0,00473620924278203
-0,00556915019723641
0,010804983622193
0,00247108483616421
0,00583934817787301
0,00658707370337968
0,00664385736577769
0,0113608888441384
0,00516362121041431
0,00578824086278754
0,00505301699570739
0,00420724375935541
0,011931353634764
0,00852964287987694
0,0083529570332339
0,00766696687489764
-0,00043772990969873
0,0164442199510808
0,0123876318180422
0,00904807596034577
-0,000753821989927832
0,000385791876997228
0,00404121357991807
0,00376185503736082
0,0208044588593657
0,00871338010889531
0,0113553512140547
0,00816616029649445
0,0147339382970634
0,0096416255420312
0,0110060880111897
0,0123306375261265
0,00655061337396712
0,00345608404604435
0,00644545206941382
0,00528823701178899
0,00700562846585824
0,0160452220734286
0,018148494439909
0,00925589502648528
0,0172753404957251
0,0104471360953567
0,0179108475951835
0,0191351775958817
0,0140015356212024
0,0109530302616009
0,0118305067052865
0,0183161466270742
0,0072628048629423
0,0143590921759172
0,0210449739621739
0,0179024363864791
0,0126368765589545
0,0178387597878482
0,0205176440326974
0,0211902743753042
0,0195934423205963
0,018353592315783
0,0181266482895268
0,0286002027814141
0,0233790892254574
0,0263211746655166
0,0253869133327407
0,0264058119295688
0,0230243025703842
0,0194585473305914
0,0111387485570499
0,0245431807615888
0,0245234943179366
0,0196823734153097
0,030737631124881
0,0244350829310633
0,0248776479229856
0,0253945971270131
0,0276053228298776
0,0254370765472555
0,0315727714760381
0,0258311035640097
0,0309565388704273
0,0382947203277135
0,0314575128751797
0,0371406901934181
0,0342490157378879
0,0333176944967848
0,0394245417615567
0,0303225084784776
0,0352606397944688
0,0407636701709474
0,0449859418529784
0,032188557682443
0,0477032854730829
0,0394611712698688
0,0339112383301074
0,0363646091186738
0,0456749319584528
0,0431804852072532
0,0432532229389187
0,0446070255857447
0,0456623510359373
0,0483670891992749
0,0484991285833131
0,0435429695081301
0,0470248887602297
0,0490463330155087
0,0410261625683423
0,0571354020270559
0,0577907030683255
0,0538452610383683
0,0598512377388322
0,0562899431525218
0,0661238139510435
0,0588566773367105
0,0642578829825809
0,057936627212623
0,0602874713653126
0,0572788525801879
0,0666835050513103
0,0607341923994574
0,063745896367214
0,0649199068552532
0,0708977721252147
0,0719578252578512
0,0714248231897504
0,0809575737414639
0,079050673646649
0,0748421014194136
0,078546204001437
0,0786570132254629
0,0804748155364381
0,0774374391608046
0,0854171411578833
0,0812419741037781
0,0873112257856337
0,0988143281240486
0,0914248318237093
0,0858738046669656
0,101205324058996
0,0890045128256024
0,089350124839705
0,0923284734275456
0,102226321088301
0,0907371123016057
0,0987065155198938
0,105006407788597
0,106573987023351
0,103756448291245
0,103463839671037
0,105463325959243
0,121683853664961
0,127032636925131
0,116501110989123
0,110063428547023
0,114159382071539
0,115102973505096
0,121810159923839
0,115227323184015
0,119077126133248
0,123479336984271
0,127053842902701
0,127092952360581
0,118641513127322
0,125007779681058
0,134129173486248
0,134160243300769
0,140001779288355
0,132692695223638
0,139006151972313
0,140578537301318
0,133809435388571
0,133919601204219
0,131668211610351
0,137228106467706
0,145061901100072
0,148290958370481
0,157247252515812
0,150890306030583
0,167499187912793
0,161207183458093
0,145429437004336
0,150110264403123
0,157420671448166
0,162734313769899
0,174606865162573
0,167539531054201
0,164436122200408
0,162377679311973
0,182324185732384
0,183360249138577
0,17429081814596
0,182498102980847
0,178130433023112
0,174798261309806
0,189544954812449
0,189312534541919
0,197371359588283
0,196389346460759
0,181324215594534
0,174549987993152
0,190331665685506
0,203406507157208
0,193943989987635
0,191594023754352
0,205219744415548
0,201296599056871
0,202913447415053
0,20478279387527
0,208738868462734
0,218670262838072
0,213580907464355
0,206198157599887
0,21398088719596
0,218620827753116
0,224235739486129
0,222939934644261
0,227445036408934
0,237182006253532
0,234688778593219
0,223326432332514
0,230091891787911
0,24551766090593
0,24364764461241
0,236335993261517
0,239610747074372
0,237099598203577
0,240034344761712
0,239461338386399
0,241335948309733
0,250682951375505
0,254602979155575
0,252249946297202
0,250454225535006
0,258464664169763
0,267258188903579
0,251900523017454
0,259937707155932
0,266100584967979
0,265224025352788
0,254157302866273
0,263709317453881
0,271309210821273
0,276424638228422
0,272071603404841
0,273034565038516
0,283640226167464
0,284346041276826
0,277865777086343
0,284398782928128
0,285864325173342
0,290275060068325
0,280866077425515
0,283646116588962
0,299320090270434
0,304004882355246
0,300127388666655
0,287711058616222
0,295360820271199
0,299566046528199
0,310206424507236
0,310229944165876
0,298922946519673
0,295163382982835
0,307720648338382
0,320432741977248
0,310648960248491
0,31168440494673
0,305761971768464
0,312355590616042
0,318067605347548
0,321151919485468
0,327436715158686
0,340873226318438
0,324681287878385
0,31416614466033
0,33416392240183
0,337649056119526
0,325805332786079
0,328844571409644
0,34175448255129
0,323903178680691
0,321192646112344
0,323924829262703
0,325781918772778
0,347763610582065
0,342604941151966
0,344847223303497
0,350227456980111
0,346962058545686
0,346061535053635
0,3591597232549
0,351052965242641
0,346451836715483
0,354099888050677
0,345495136999759
0,344060114275555
0,367340963320832
0,366511534754545
0,361472909974003
0,369029816122997
0,370348878217158
0,361678066514835
0,363092244610069
0,361664733442749
0,35990844961038
0,377444488719848
0,366403391001353
0,379085749124118
0,369551931921472
0,373644818704262
0,379925477698004
0,364106382648447
0,36278170675603
0,36949903139682
0,359462469466744
0,374828662359211
0,388571156384848
0,380156817740608
0,373616969646316
0,383385353142021
0,386568649239831
0,382180177791149
0,372858327920687
0,376827521118043
0,38272878573277
0,372054344577122
0,39106810094002
0,3975626376049
0,380409198637566
0,393263240624632
0,388585216743316
0,385920153086342
0,393530470526072
0,394764357243261
0,400018551461765
0,393359552967695
0,391297080667453
0,395472842043918
0,395927949017059
0,398266512304417
0,403769027273276
0,418806771496835
0,41207671210038
0,413242994571426
0,397074869679594
0,398791770261643
0,414402135879268
0,411965968997682
0,399446108652881
0,412859796071835
0,409514401038491
0,409778341314813
0,411165437683804
0,40333241813391
0,402113932226487
0,408586207120136
0,406814627301879
0,416506183071575
0,409696199151678
0,420056361916295
0,414752816994303
0,402839749636333
0,412848251535078
0,424056709954128
0,411918697697033
0,404391587069824
0,407052967173558
0,412703705709839
0,405483990180594
0,417870885192744
0,417651698422477
0,415390451974058
0,408690582149693
0,419223289759949
0,414714103880305
0,414861853912841
0,410156914665363
0,414049286972622
0,411602602351735
0,406895281420387
0,417158998901714
0,42569838123578
0,407447600482061
0,413246163845912
0,41367312296574
0,41785197149806
0,413464466470331
0,421446760679321
0,41726618265159
0,411945935809594
0,406066216446417
0,421513292173178
0,419249577112372
0,412129901647764
0,410220878183495
0,414787435628445
0,407977300460715
0,407221354512491
0,401368472670132
0,408051051401197
0,414990919695206
0,418935622233517
0,415029770190362
0,397944908768935
0,393361629566455
0,414822081403232
0,414445051689029
0,402042085880976
0,399941862325241
0,410775278262693
0,398031143907135
0,4082841163382
0,400037727203062
0,402008946708928
0,400979735733107
0,407350516950458
0,404494241066413
0,404847240019983
0,408224432642226
0,401785063552168
0,395253379541972
0,405441809352715
0,402757435499508
0,401057760582797
0,390491257979589
0,393901963785507
0,395272937940519
0,410477729225658
0,411184407608135
0,407795132184371
0,388858464641095
0,392521160204427
0,410087038164338
0,411648896992952
0,383211025925232
0,396414557278866
0,394174237278284
0,386512047511039
0,394005505792536
0,405334761180377
0,397788597491009
0,378256778690088
0,378658148721792
0,38685594540306
0,390538270994021
0,389828137645453
0,385435635257942
0,390397110467512
0,374545243245894
0,386865831966675
0,391281877933232
0,383010147626788
0,378500790489413
0,375379711321331
0,380638578167863
0,384558448600611
0,378322756320258
0,378029469925559
0,37699247718526
0,382723556233032
0,374822411415893
0,376510914509274
0,37661470552351
0,366926722541569
0,369637216692513
0,380333628921758
0,372437693339883
0,362992238312491
0,368650386567052
0,379049664200451
0,369497387727158
0,366545864139065
0,363256416930482
0,363287495871362
0,362690847490867
0,357093733290884
0,358601690355926
0,357023024653664
0,349448417547867
0,351808058694456
0,350980491817575
0,360158481282361
0,355547379788487
0,351826820166485
0,346432466975383
0,351740911275751
0,346670472708255
0,336026339053101
0,340867752005647
0,340121679154602
0,33650427472226
0,342403101944634
0,334445791373456
0,347610483845687
0,342738692182341
0,336755497998216
0,32644722993269
0,328952039766538
0,33178490686829
0,3294533598652
0,328521853359893
0,333976433886362
0,323752741431875
0,321009073209615
0,328318048002111
0,322577014808734
0,317359469607785
0,319072559726855
0,316697832665224
0,310232461118441
0,317289329021491
0,316357820912286
0,306953722502329
0,311412999209809
0,314597453570745
0,319154100143107
0,305326154438379
0,305296387834471
0,308327470434626
0,309341448192902
0,308509105319203
0,302895192732849
0,287888346763272
0,307165524481978
0,295122722378
0,297693512637231
0,295078552719238
0,293761346739968
0,288786320895633
0,288689278692175
0,287158364918857
0,289786774109233
0,290134487000488
0,287398383446946
0,285538614243453
0,281170029902918
0,275187568362955
0,2833222120868
0,280997681722256
0,279706746592013
0,27667431225991
0,276646707853867
0,269785271705917
0,271636284726715
0,265197565692797
0,275683205019339
0,26938561892632
0,265292027258461
0,264882131960943
0,261184379557494
0,261145787986851
0,262292835948274
0,254152815447587
0,262343246099847
0,254540788888456
0,260755168336275
0,250649667530247
0,24884536451465
0,24616559133935
0,245081839904781
0,246364490606535
0,251445715265471
0,24602142649778
0,235568835755096
0,237121871252173
0,237886644041756
0,236095932449768
0,24043076388204
0,233560121753529
0,232829258248584
0,234002900826357
0,235872425401648
0,229667963539638
0,225502144479301
0,225932163559325
0,227157491488454
0,225003640024195
0,223336870040122
0,221946692857705
0,219211881478862
0,215171265938715
0,217058439554399
0,219289725373847
0,219548455804736
0,215649470224146
0,205442658302527
0,211724663692146
0,213451668058249
0,208920648965863
0,204367289534148
0,203415877941908
0,205587684635147
0,205000433895392
0,20419209876854
0,197859667417105
0,202106445939396
0,193668231468506
0,190761855300836
0,195825205559817
0,193010200898231
0,193289315034492
0,195172625755659
0,188398174914918
0,191298319317483
0,191669624337479
0,189264700145958
0,186441618396213
0,182657233596447
0,181826637152825
0,177763828482031
0,177484028231505
0,177805357441242
0,18093485010998
0,173896648826776
0,17531959209566
0,168097987093411
0,170074639507474
0,175814673443802
0,173141432111075
0,169023279091873
0,167875216455913
0,164042465841929
0,167722475158897
0,165211645077295
0,163780546211299
0,164855512981801
0,163153626656624
0,164992259071995
0,162228395770513
0,161129759602512
0,16015545709961
0,154956026523441
0,152651258965112
0,156426414846529
0,15285081671213
0,15752129261085
0,15405734416823
0,149782633739957
0,149996306935124
0,14506895807154
0,146102450870607
0,146523776259605
0,147110332049178
0,143983540761833
0,144674252210134
0,148338171097399
0,143660213276675
0,144416464081695
0,141717221355586
0,134199540263545
0,136708981891707
0,139567005995039
0,141030603713135
0,13728202635162
0,135729412582829
0,137572734609771
0,133221027483394
0,129529412869594
0,129133621860787
0,131915882722257
0,132134636447626
0,130352649777908
0,12845469186792
0,128148744110886
0,130225780682248
0,128204766335662
0,124039786955586
0,122908170014602
0,123210687580254
0,122490320628382
0,117327957402577
0,123507543367785
0,122589884840868
0,117858880495277
0,120876082918949
0,119339926529272
0,119874300531746
0,118306543032513
0,115824433674889
0,113315364894151
0,114099374978517
0,11203328438585
0,111295801242224
0,108321565831444
0,115945066279671
0,112781334034637
0,10890508883171
0,111115812137201
0,110356931854398
0,109236061827052
0,106468154155211
0,104973264259355
0,108123410828989
0,106235176791435
0,105686473199868
0,106162480056579
0,105643479355801
0,0999867394889676
0,107070169469709
0,103426201200043
0,0929574083420382
0,0994766495947955
0,0957593848125456
0,0982936257364992
0,0978084280907901
0,0978760367138206
0,0912333432972203
0,101597603493687
0,100909723892521
0,0973796376225342
0,0912655817715563
0,0955389095139946
0,0947474062709364
0,0948812063976068
0,0918784088358607
0,0937169856950695
0,0874678391756438
0,0947641393857685
0,0899349068406018
0,0914181094546181
0,0944641571980062
0,0885925365258949
0,0882028091308737
0,083572771653032
0,0856559209121181
0,0892586418544108
0,0844471311455788
0,0861608946658239
0,0881662722378233
0,0870498716109405
0,0811569968390634
0,0863837293706497
0,087259145463231
0,0851914827052558
0,0849107808200519
0,0866916663142866
0,0805547780748886
0,0842558673172094
0,077499196067063
0,0783683547928101
0,0851082086824473
0,0825901691390015
0,0792964823026311
0,0817327468998995
0,0824611404421043
0,078641036719978
0,079537631702768
0,0804929218243368
0,0836034214418876
0,080280606958558
0,0807591303710796
0,0843914705690814
0,0826899567146778
0,0817211389260596
0,083883797719585
0,0837242700751345
0,0820687292907121
0,0844845235244523
0,0848025676414306
0,0869457722881066
0,0826411033648906
0,0846481728432248
0,0839854823791882
0,0829067374553264
0,0857507929290809
0,0887428053625882
0,086130275650716
0,0879491311384675
0,0916655551522036
0,0882295649919015
0,0872437842954173
0,0858372627814914
0,0893147571841648
0,094199331595137
0,0934341803497252
0,089454161948007
0,0976854704945453
0,0922198440800235
0,0928615348554643
0,0912217896314813
0,0924884842361531
0,0921832958288932
0,093826379973814
0,0972473549166547
0,096126295347985
0,0996312829137369
0,101422936244851
0,103360777798997
0,0971742466864296
0,103802663629931
0,10375048020798
0,101616650935277
0,102471159568756
0,108549780494832
0,104226431782792
0,11158515846345
0,112787997552513
0,113224909317058
0,111655221430522
0,104474926477712
0,11601806405502
0,114203089941439
0,115807672943909
0,117017450761262
0,116485211004374
0,115325788018581
0,117242901787068
0,12429449809465
0,125408939937725
0,121864490029026
0,126899980775621
0,126515341761051
0,12725470600263
0,128168053125126
0,129583839626046
0,129364080688225
0,131880442806839
0,136416040731029
0,132275496136777
0,135838561900907
0,131974701053465
0,132208741328128
0,132195072846357
0,134011789051636
0,135358301004911
0,136003659373995
0,135628653186507
0,132656327572775
0,135347201784816
0,14068934420885
0,131620012766157
0,130619932349078
0,136915950708501
0,128000218016259
0,131372150420075
0,131979775931472
0,131186717338609
0,13083950100104
0,132429749105082
0,133469604578656
0,128766080110159
0,130478155969142
0,126670934612079
0,129197508645458
0,135722247393076
0,134428901742751
0,13354810069393
0,129920327659127
0,131603138019394
0,126735977526726
0,130018384841292
0,129802452361135
0,13061000581042
0,129743827220783
0,130235916904361
0,133625657130436
0,127699802472953
0,124328255723293
0,12627830643624
0,135121034145919
0,126052296163349
0,133374521673148
0,128932120765934
0,126535148129607
0,131736249326056
0,126654767513805
0,129511475516687
0,130289733567169
0,121423370929072
0,126996313791611
0,125525982934221
0,125797417154303
0,12591246485161
0,124419106908828
0,122444389062441
0,123267453443421
0,120181051548174
0,124364379128078
0,119981262925303
0,118292512889826
0,117515082070453
0,123676830204326
0,121746507643545
0,1210813162699
0,119416374663599
0,114847827793573
0,114916469425159
0,114032216104219
0,111175977232718
0,113210470044459
0,109102632811641
0,11088538762829
0,10772572794429
0,108372024223229
0,106774146192737
0,103151006901628
0,104297798208899
0,10359558130358
0,104006563136554
0,0999261007684412
0,1054622550492
0,100859302042823
0,0956004097017324
0,104097636728904
0,0996332011011283
0,0951783942571194
0,0944070895938393
0,0920289090272772
0,0897297808109149
0,0934453691015787
0,0898497061860111
0,0896674041047116
0,0892748735049552
0,0870888083485164
0,0804536104849094
0,0830842753972869
0,0852060157984722
0,084932500094583
0,0786091927839405
0,085299496115294
0,0818765347823576
0,0813672090055553
0,0804375101283319
0,08463331430888
0,0811731222544324
0,0789387229888551
0,0802348894443114
0,0820107026567781
0,0785056136644722
0,0782422835967111
0,0745797394446268
0,0758785967737351
0,0716137655844014
0,0734140241617336
0,0722359649325634
0,0727398639110441
0,0720869308223472
0,0723825692949214
0,070368491274963
0,0731525262782839
0,0677374139141042
0,0704864139403704
0,0706744904285766
0,0705652082759437
0,0678136567571556
0,068144190693781
0,0666482104339215
0,0682599236578907
0,070462155331797
0,064804675295207
0,0682011319262764
0,0708675640021294
0,067685497449096
0,0636944462958685
0,0651122857127406
0,0669470140946021
0,0674253702183786
0,0655187783002764
0,0654786179391548
0,0657325517791006
0,0634845117416208
0,0645219587578933
0,0618508869055784
0,0580778594898236
0,0614045954947327
0,0635228062057135
0,0588199692281236
0,0637109173112854
0,0617436242355351
0,0638915533700363
0,0604189248628178
0,0610474544178503
0,0593675853159377
0,060385539487838
0,0600832843011064
0,0597701815225342
0,0615611142713058
0,0567186465598156
0,056976126211525
0,056827867239058
0,0536685715479922
0,0590535527867597
0,0566238132471941
0,0599239126507797
0,057763172693381
0,0545599655851508
0,0564902450180062
0,0565953390075452
0,0564829767266783
0,0557193293287979
0,0533226597922842
0,0553624357785484
0,055362721278431
0,0552306891935909
0,0543942177376892
0,0559031246865618
0,055741513973463
0,0562551635863274
0,0575530739073022
0,0523143046868801
0,0562834955451213
0,0514321135812284
0,057519229767481
0,0535380438171548
0,0524388791416734
0,0529277861991533
0,0521505497077507
0,0545952832006211
0,0543398306166787
0,0559548183468785
0,0551632165705025
0,0511940623125404
0,0517957764668287
0,0517156092629134
0,0521638957722732
0,0519384992911755
0,0504945060987237
0,0514827263766028
0,0489890094761321
0,0546291718923278
0,0521845700195384
0,0542215634427941
0,0507534772706638
0,046883590832843
0,0517640930387222
0,05180220289248
0,0509165376283369
0,0502408432356249
0,0498745464454528
0,0509391716368308
0,0494015410945431
0,0484293343892967
0,0503306359239442
0,0527418489599341
0,0501967419306939
0,0477852278499305
0,0503459605407185
0,0505433179834979
0,0484615465076939
0,048204472654999
0,046767661836839
0,0474695570042512
0,0475790443790759
0,0469950836003842
0,0468894215949816
0,0467642320070684
0,0512329446273802
0,0497137633785167
0,0491973798705858
0,0490162181056518
0,050612131986228
0,0485294598260443
0,0472346173911116
0,0474277186177034
0,0519712570525155
0,0448304108906031
0,047399693028751
0,0511063407856595
0,0467366522662867
0,0435077198224237
0,0471636160257141
0,0451126165738507
0,0442574942346018
0,0467583094008111
0,0446119062802055
0,0474144057493009
0,0445267609494688
0,0431625349052526
0,0461602936721483
0,0459584257426246
0,0444463141010553
0,0438393549293979
0,0469775499241612
0,0468793824325965
0,0427053562590576
0,046154585366588
0,0466606890440841
0,0451781455492561
0,0434546408010982
0,0477315682425982
0,0461142412110391
0,0453025820880418
0,043204695966103
0,041052508578313
0,0450560132798289
0,0419201276759648
0,0411658784939741
0,0430772415764351
0,0400512030917609
0,044258137749757
0,042819524985302
0,0406553054480622
0,0412401826699629
0,0410715486217012
0,0403881236395663
0,039621126056556
0,0395026771622058
0,0386224563279561
0,0396476869595846
0,0415455091605507
0,0370826588790715
0,0390426109455745
0,0372481969177732
0,0426417963779868
0,0413910754782086
0,0425293613836477
0,037590903182438
0,0370906325961669
0,0402125802827341
0,0381121474381445
0,0379209900817137
0,0373961377452168
0,0356303284854778
0,0344434944644913
0,0370158792009436
0,0375835767613562
0,035690877730535
0,0369724065006646
0,0339422541721425
0,0344305951786282
0,033148445746218
0,0351645725108532
0,0375291303837262
0,0365101503454764
0,0368769372471687
0,0367450586759124
0,0330394796055793
0,0363097563782172
0,0347307542823025
0,0365522446215545
0,035521301166459
0,0336889915775519
0,0352683097793075
0,0355129045212356
0,0292309933809834
0,0334743338201302
0,030923749877543
0,0337889375955308
0,034997306318091
0,0317212130153682
0,0332442852154774
0,0317970913087883
0,0372728097043919
0,0327720489700224
0,029202098394884
0,0324591981959193
0,032737589491953
0,0307451100391465
0,0308135270935124
0,0295279232326461
0,0315361142107182
0,028743321970526
0,030056259224498
0,030890642965821
0,0337615459554931
0,0301668215941652
0,0285158499026512
0,0283167997334521
0,0287959993050966
0,0262840568763655
0,030871398905805
0,0306601384594838
0,0298645113665353
0,028872095910544
0,0320282457643886
0,0314504339564203
0,0288967467884029
0,0282174402524013
0,0282994309040799
0,0288903268788161
0,027418626615788
0,0289577052415949
0,0294560543939324
0,0259386354624692
0,0259025887244077
0,0297080522093781
0,0283666983487458
0,0271520864105307
0,0245492998991543
0,0251729141929872
0,0239599458362262
0,0262616966986812
0,0286109231526575
0,0286349459444218
0,0272235103219304
0,0273785452523467
0,0255195519574924
0,0270646634161625
0,0258175926004079
0,0266254886334773
0,027941745027596
0,0274082564977377
0,0273404695738117
0,0261110899143217
0,0235955442364064
0,0260876699905986
0,0272570759405891
0,0252181814973608
0,0295016495244927
0,0276130357476862
0,0235225752985849
0,0244415639432426
0,0248850553044409
0,0252573802598041
0,0228564018166176
0,0249007245128351
0,0246861283092682
0,0242463554694611
0,024725719385523
0,0239350225071612
0,026258733057788
0,0264004217476629
0,0220641469766209
0,0224750430554614
0,0250510720082903
0,0261790144478373
0,0225778422565901
0,0258961869636399
0,0251341076409819
0,0240271403510543
0,0246536453792916
0,0255551028329853
0,0257682359269422
0,0219142815370611
0,0229209736436015
0,0229500353333236
0,0234206090222787
0,0200950011763575
0,0235574492775391
0,0233211825610587
0,0237101368947697
0,0227455611046084
0,0274224299771631
0,0269438921552055
0,0222607197512304
0,0218379485225999
0,0222387380532993
0,0231718151318229
0,023137021008804
0,0222092588016357
0,0239490515250711
0,019806308270261
0,0227747920957332
0,022692895111694
0,0210375653121825
0,0238935765545025
0,023183794598582
0,0218394733232807
0,0234710361743766
0,0238298459374036
0,02241664040825
0,0211468915612072
0,0234433827030606
0,0235545541478505
0,023190841437865
0,0206219079863822
0,0178744366299209
0,0182516256219728
0,0225240892766414
0,0218170420088498
0,0219098157510581
0,0218680995716909
0,0209793329397396
0,0208963654469876
0,0205142062235592
0,0228447410155999
0,0206715190008124
0,0213274293266085
0,0226234721797992
0,0232265175423494
0,0210035295754843
0,0203839746047619
0,020153908437101
0,0224881752636563
0,0225737434147543
0,0211525095953784
0,0222607792852213
0,0193761025729155
0,0161084985168418
0,0190034356108909
0,0210723836162548
0,0200984916737595
0,0193013309878664
0,0199676084118329
0,022081929847955
0,0207201195582665
0,0184406858290171
0,0170982952749555
0,0188221103219447
0,0199839531014089
0,0179616470388821
0,0194788777733797
0,0208371436398563
0,0219692553167264
0,0200849347517368
0,0192287141907992
0,0234153413210953
0,0200125614859969
0,021677398082154
0,0192647617266375
0,0180465820249645
0,0199632072447224
0,0176700649080595
0,0161873858932883
0,0188098566492901
0,0175848853076391
0,0167559286242035
0,0180360135162385
0,0180918763106154
0,0218040850876788
0,0186348415482259
0,0199231795979873
0,0201150811947494
0,0176226344504167
0,0193534435124686
0,0175493397130159
0,0159239905250832
0,0169093675503865
0,0178240892031182
0,0173981961692011
0,0190627656031164
0,0192670255598086
0,0194904120011959
0,0198563899936575
0,0159452857557655
0,0156416468907997
0,0168745500156597
0,0176080645600756
0,0154562227999802
0,0160502120185856
0,0161685275994497
0,0182987330016497
0,0180444041486259
0,0151057168917326
0,0144987198535853
0,0150527175474666
0,0149040385402866
0,0157338680009112
0,0143626398720174
0,0170381810637593
0,016824983611569
0,0158267720686793
0,0149667412200757
0,0153206096025057
0,0144263048230251
0,013791546926175
0,0157361001841011
0,0159430844475574
0,0150605650358903
0,0148101554211475
0,013338446683121
0,0153476580752938
0,0146429107395177
0,0152770307461667
0,0144962319900584
0,0156859716191875
0,0161404502372876
0,0145345022856736
0,0170477253957804
0,0146596594128935
0,0135172075649648
0,0135439169892505
0,0132751846287518
0,0138797466049795
0,0131571808108011
0,0134014994887634
0,0133920094690514
0,0122582554037358
0,015329926421621
0,0118751195282192
0,0129712431078682
0,0131428921950992
0,0137715261652532
0,0154682143931922
0,0138526321616913
0,0117321965168087
0,0134536187200561
0,0138034660114027
0,0143210633066306
0,0117222391594475
0,0107457279366219
0,014044505497823
0,0123059771769972
0,010905719955356
0,0129001138786653
0,0121542442162184
0,0118900580094748
0,0136138057899308
0,0129374821616845
0,0115551251896937
0,0125796288082132
0,0123664643215344
0,0106157548204092
0,0125075346701879
0,0125925451031591
0,0143945187135265
0,0108040157984575
0,0120343533683246
0,014440501652719
0,0127599415474918
0,0125774870490733
0,011462615717616
0,0138731750202579
0,0134192562165655
0,0143930038421357
0,011828361545924
0,0102657466228643
0,0105448024178082
0,0110997745411732
0,0115913703954589
0,0121486124584685
0,0145814382474016
0,0127905269988163
0,013120760880918
0,0134615750596477
0,0117586634976852
0,0142653096882657
0,0116104515588552
0,0100669615131557
0,00907732655947521
0,0103280370516283
0,00986345036072018
0,0105311992372034
0,0124528587816308
0,0115014254296074
0,00919043326247104
0,00938279408322667
0,011323661374713
0,0111174631212826
0,0104563879620802
0,0136817226064998
0,01171616610429
0,0123424835890411
0,0113105205497044
0,00526506557083218
0,0105621289316678
0,0133479779085842
0,0106126505879257
0,0148678726739157
0,0113302029395173
0,0119976026632848
0,0130333260919184
0,0129163594940822
0,00712627992813335
0,0108414482784095
0,00813644049260671
0,0094467195436642
0,00758138789267055
0,0128755669541833
0,0119897919121049
0,0132063729057223
0,011096331956848
0,0118087655167599
0,00859691042011395
0,0128992566672251
0,00816718915621103
0,0148002161535698
0,0084766311671896
0,0126544262675493
0,00982974950980295
0,0137898193131612
0,00605649369143894
0,0125589791582102
0,0123845638240927
0,0102900007918107
0,00423054377712499
0,0123426482557788
0,00865740882367012
0,0127449333543595
0,00771169701770128
0,0102574805468147
0,0118158297227119
0,0109432470383492
0,0105874143735541
0,0106289549171557
0,0137418010443486
0,00800272764879612
0,0118330657792607
0,00978537643435566
0,0164372351938333
0,00692268338905316
0,0119798946478116
0,00639395767765029
0,0118167697752866
0,00950933602743192
0,0120429852676214
0,00956708649272164
0,0104000095831667
0,00859406947457877
0,00969790757530313
0,0108840620709447
0,0113587375037741
0,0107942416779236
0,0103924329727224
0,00777287730356419
0,0102481841171198
0,00999317989941381
0,0129053634342638
0,00944009310966759
0,0104966780179966
0,0086662314650769
0,00849021707241818
0,00933805132346063
0,0102191924371235
0,00659018339329491
0,00900681594461043
0,00937892738619254
0,0120143390492525
0,00931882407011536
0,00741744631856814
0,00785596002880137
0,00981861001046478
0,00788922923759441
0,00768023618477461
0,00975451706086376
0,00948009168465708
0,00897753533503877
0,0112376203917552
0,00909447913590603
0,00947183479236891
0,00870175287720739
0,0117482873224178
0,0112743110176917
0,0101997555059421
0,00929809812337546
0,00746923257203216
0,00773976030601041
0,0103784232539144
0,00967804856912928
0,0083972769503855
0,00999749975034969
0,0101550589745321
0,00941026795758444
0,0105215030954471
0,00804983143894004
0,00783449666097471
0,00860019794452268
0,0100800857511233
0,0100353344893337
0,0109701872928772
0,010200735043544
0,0107883304837785
0,0103724881841462
0,0134654985880233
0,00923173926525584
0,00744109917541016
0,00916089894987466
0,0106775177931414
0,010300891788079
0,0089219910093756
0,00900712134996631
0,010864532150388
0,0100824343781838
0,00888042287624283
0,00953240441790577
0,0103560295939152
0,00871365608058741
0,00989049833602457
0,00878935262667238
0,0106243795529546
0,00862641607681097
0,00693796416378788
0,0100262416656152
0,0114867612977241
0,00905521760587952
0,0093042364415951
0,00789006337951593
0,00837808285563074
0,00943271362925337
0,0116345875735424
0,0101501917734741
0,0108682248629914
0,0110855429857704
0,0102062760634198
0,00879378346615294
0,00956159284552568
0,00833669584347793
0,00905835745505363
0,00902906729390222
0,00845115037751334
0,00857201470093987
0,0100297601650236
0,0108661279472242
0,0101870971256455
0,0100666087438999
0,0109222406364967
0,00922228889788515
0,00991107147277809
0,00980466387145304
0,0092272270491501
0,00860457908209692
0,0115972581107129
0,0107911332623857
0,0106285885492225
0,0102732338771812
0,00981572399949316
0,00866867670129624
0,0103546511912549
0,0103982124727771
0,0086630025891593
0,0104983545533798
0,0116069287743997
0,00933096700136422
0,0103531975600002
0,00985501713074409
0,00900113159858466
0,0110414769043429
0,010502990992404
0,00871888664794989
0,00834988288725332
0,00818999252323822
0,0107500331303129
0,00840479222463132
0,00852338260443279
0,0101834002111153
0,00959815168030156
0,00873864654850572
0,00999165872347663
0,0107766405648627
0,0120403279034847
0,00984145987397941
0,00997496266278151
0,0106036220405287
0,0108716410068021
0,0110351485718722
0,00846994684437026
0,00792286883322
0,0107665522036738
0,00992957716987423
0,010142024123561
0,0107816411442045
0,0113468315215793
0,0109497890536418
0,00941285026873597
0,00940154117975894
0,00987369211684323
0,00914788742849452
0,0101828776356238
0,0107006762213946
0,0104429580184641
0,00908098391403954
0,0107961008185606
0,00996389584366318
0,0106207759958683
0,0100898355910623
0,00927534664318609
0,00988998927596967
0,0117851419446692
0,0115501994026558
0,00988169366617565
0,0104840141859143
0,0120295483878198
0,0101709811360331
0,0110563740760225
0,0118258306880213
0,0106534664070885
0,0113552061156132
0,0110852712128362
0,0109479765381242
0,0122120216431712
0,011506554901325
0,0135140180673788
0,0122765782257392
0,0107948474305255
0,0100435730883382
0,00923044249874504
0,0100280053260253
0,00972935458234288
0,00995788978831546
0,0120325013072393
0,0117877660593224
0,0116437369015507
0,0104242819357946
0,010286770344328
0,0102601611588037
0,0110966408972966
0,0100103506933886
0,0109471424421828
0,0108789081768997
0,0104212902436437
0,00803599811717171
0,00804202199422275
0,0106877059479804
0,0113519346293625
0,0104448940589497
0,01042188620111
0,0104935700949995
0,0110321181790617
0,0101468297863024
0,0106163110711171
0,00944260720988736
0,00860969884554936
0,0105022900555808
0,0112667183904991
0,010645492929906
0,0111579277244093
0,0126719638592745
0,0120113141413458
0,0102919758483845
0,0116197113630279
0,00824695387082274
0,00997099961993095
0,0109347418002056
0,0098068874241268
0,0105989798685174
0,0117247960458892
0,0114598751483243
0,010136805738664
0,00945144168793978
0,00952556792789521
0,00801851318369687
0,00954212310524992
0,00995927954113215
0,0103075740978833
0,00881723183065417
0,00883429670718333
0,00870285048284355
0,00869328277202734
0,00960167197724687
0,0104163048953157
0,00960467961553176
0,00987566648179592
0,0104243744851123
0,0103149477425757
0,0096771772687046
0,0107441926776165
0,0118354531116455
0,00943503863715558
0,0111970582314765
0,0120163334772412
0,00992035073126914
0,0100110523128796
0,00910808402194154
0,0101128300723544
0,00764077493067604
0,00950761368089076
0,0105489073413817
0,00878057903133893
0,010452030978586
0,01027221636757
0,00830116326964913
0,00991535853558529
0,0109565937478828
0,00896919863261226
0,00927362526031016
0,00970960384896286
0,00938021276548971
0,00910568984679131
0,00937803382320036
0,0105378181467807
0,0100422837420721
0,00983499748088017
0,0109862247553371
0,0110996554165228
0,0109184823396212
0,0105285424054187
0,0106143147747078
0,0111837913754839
0,009631190162062
0,0105341570738031
0,00930924056662865
0,00951604896452469
0,00908766879467408
0,00791492036321738
0,00844907888267533
0,00992358972483375
0,0102540289974659
0,00990708725007183
0,00940040218953234
0,00881288301855887
0,00836201255949734
0,00995408017581881
0,0101341640499996
0,00978687250360133
0,0092441693691302
0,01036685095968
0,010161481012227
0,00810589658462991
0,00774957824742889
0,00898401196886717
0,0102491800736202
0,00833341779484303
0,00786227601569779
0,00837020217118017
0,00970073968314617
0,00893239105476071
0,00792835970669971
0,00803419577596782
0,00903046996221651
0,0109619001482009
0,0100922827354452
0,00963118437734782
0,00862189439805104
0,00840744566449636
0,00967562496283287
0,00978639609779626
0,00951677685951443
0,00807773898308026
0,00669246238475746
0,00691538510570637
0,00938409029467899
0,0107990012358334
0,00990360151694624
0,00859772412558703
0,00954830476036971
0,00909273808284488
0,00861743233620411
0,00907980523039763
0,00863634786196824
0,00728294991098372
0,00686133050150196
0,00778280619990232
0,00857978002831409
0,00941316405841514
0,00753331023244448
0,00747216154256455
0,0086576081125422
0,0075552824618761
0,00856843828813485
0,00733935375359894
0,00696441515543321
0,00763975641882123
0,00907429610688974
0,00879915661281293
0,00947459757273655
0,00902418456677315
0,00930539832091517
0,00694825701644552
0,00931433082225539
0,00996082575503848
0,0097118945454751
0,00793084531583983
0,00606826879115057
0,00795394917410967
0,00785143705303642
0,00710783180920621
0,00818677803915316
0,00794859806186259
0,00723295635210224
0,00687043507569212
0,00650890619743143
0,00647016476981971
0,00700106284702818
0,00695900778933982
0,00675528070892539
0,0079570152186233
0,00711792274675155
0,00701724692380544
0,0080723603396065
0,00940561455404574
0,00814141831560203
0,0080409678558114
0,00725075019680474
0,00864434056108226
0,00852649451319408
0,00870959284857448
0,00665873341778377
0,0059858998311224
0,0065457794145964
0,00719267773145762
0,00983553846423696
0,0103450738017922
0,00833008189631503
0,0066079420399487
0,00712403209085346
0,00843479185248856
0,00889024490478888
0,0083929741713323
0,00693881420950768
0,00739442373373489
0,00686360613357149
0,0074357088617828
0,0066990239582241
0,00744118198905763
0,00797817417038469
0,00744244932622258
0,00870459968317037
0,00896778456788031
0,00769556237407264
0,00629281237923963
0,00782567261016758
0,00597580535497139
0,00820860806700656
0,00736610345116332
0,0075130511760812
0,00814304350586017
0,00780039785080302
0,00744239080249233
0,00846901792120999
0,00759325183745808
0,00679443833968205
0,00706870817084542
0,00823971886372879
0,00848576221877573
0,00704261466407817
0,00644237821610038
0,00802144298898327
0,0069585431835006
0,00583733680591595
0,00538459808142738
0,00752006549219735
0,00618082311138638
0,00707642492145592
0,00872743087847732
0,0077040298870548
0,00508846681516872
0,00778864504355463
0,00501396459298227
0,00792635212624571
0,00680492173994274
0,00785008715954369
0,00679942187049866
0,0080335708193216
0,00776001204396184
0,00987292749260946
0,0102248139896312
0,00855784649969147
0,00862476732447791
0,00702340115597599
0,00937310900774157
0,00603841401691313
0,00726955321344237
0,00880558470619297
0,00741513377523804
0,00744386003275424
0,00844217511874689
0,00847394978291183
0,00713030932325959
0,00711997062039992
0,00743672950945421
0,00918426252977355
0,00431431214085099
0,00782710051054407
0,0072815918504495
0,00677891652966939
0,00872121989471569
0,00713703371514357
0,00871369264909416
0,00773476896425947
0,00766957643325114
0,00579141305377395
0,00795857493494952
0,00768210422570797
0,00728617348468448
0,00686033103947778
0,00657009342535012
0,00814039046539712
0,0104436448371039
0,00981304898253914
0,00720745739835165
0,00662513695253256
0,00899265587138838
0,00881717252363187
0,00773940836740347
0,00770335765886004
0,00517824191926491
0,00832110622650847
0,00557856698736039
0,00845356799169669
0,0076165769650722
0,00762556058348722
0,00738430761026766
0,00915623906441135
0,00680669527183825
0,00921840210304869
0,00964948254479678
0,00834809348885144
0,00949868798523853
0,00753850583063882
0,00708600548919777
0,0075333068491442
0,00748517256519989
0,0060349420891657
0,0065851354292355
0,0064082403069923
0,00882964772199737
0,00720577812885475
0,00898493584652757
0,0077834062824105
0,00841101799746321
0,00700216341700947
0,00941632686842606
0,00842813706178869
0,0094318014228587
0,00914454146438365
0,0107638633949402
0,00695954294804208
0,0084847558099687
0,00869163962186644
0,00611862986895279
0,00769282053437989
0,00646786524252232
0,00765385409817859
0,00867891847567268
0,00675118245073804
0,00968134475966558
0,00656192596634045
0,0058851856749595
0,00995088778824327
0,00867103149075663
0,0112869638323766
0,0111285150794858
0,00867596662974059
0,0077390147978774
0,00717871587178917
0,00584704423360151
0,00890899967390649
0,0087531572876636
0,0096304909467183
0,00582325505768198
0,00749772161592236
0,00856173375222884
0,00845318763661011
0,00914309477454969
0,00924406955480003
0,00668165411082096
0,00955707463066221
0,00834003084730886
0,00499553155952142
0,0093885425551088
0,0101165612035641
0,00952027732702224
0,00687618968098271
0,00696597335192536
0,0065640945251032
0,00890208579007908
0,00834349005722833
0,00946788202044286
0,00893464368425891
0,00604729367087903
0,00765437324731313
0,00856350953013747
0,00884759906608515
0,0075623125175388
0,0103768047398668
0,00948449009406071
0,0104669988168944
0,00918547217780349
0,00740945900698987
0,00635890535854838
0,0121399577432438
0,00884015352506816
0,0100488976807168
0,00913335372522506
0,00741444867704545
0,0106326124981954
0,00779440174790515
0,0110787578317624
0,00908178054491896
0,014174743820758
0,00879170560616025
0,0100486069990736
0,00723157180119783
0,00914779769206108
0,0109386616376142
0,0108545231730138
0,00857033538536602
0,00951944165364407
0,00984568211661986
0,0108119281090466
0,0103353460808613
0,00889429229081397
0,0115165752624295
0,0112083571128995
0,013052426628701
0,0108666336489553
0,00912349580187975
0,012125656434989
0,0111894985129367
0,0121084937826176
0,0119330795525858
0,0122593227050939
0,0128816901995737
0,0105314930815063
0,0126995516997796
0,0144801872569864
0,00990227684087854
0,0130474122125137
0,0105704110808625
0,0134288068012233
0,0136085760133897
0,0129929060052921
0,0127919587067421
0,0165865612606709
0,0150384204706574
0,0172116019283459
0,0103522716859487
0,0140264173670093
0,0138049122757797
0,0118891674028156
0,0137675062190644
0,0154646248548552
0,015226549316213
0,0142411535593356
0,014988327411808
0,0171481422941916
0,0174791324046106
0,0166005723733625
0,0164323824180718
0,0172362587147124
0,0181574578220644
0,0164635198978404
0,0159330860876979
0,0249134227037047
0,0192686906286603
0,0177186004758566
0,0174664004875538
0,0176831210253277
0,0219615174191535
0,0171104713618205
0,0181861399369153
0,018832560946674
0,0197548578464414
0,0225924856846354
0,0191640842281391
0,02059499422066
0,020023245412781
0,0199812988165644
0,0208165724672274
0,0212309024842975
0,0214782117052916
0,0210285170704812
0,0238425456291527
0,0208018044689525
0,0225906912264921
0,0230768840791585
0,0226069141351064
0,0238761099616179
0,0219995680873503
0,02432116960853
0,0258419156607878
0,0222957589581776
0,0226610268421771
0,0260041759494512
0,0278147022049399
0,0246859059521135
0,0273314892585454
0,0246014494519319
0,0334376290318569
0,00817313309380828
0,0358593295234424
0,0300017482507567
0,0325137037460794
0,0276154034815153
0,0353620127010077
0,0346516607015797
0,034983635050076
0,0344020705489294
0,0357499970948919
0,0356601872321084
0,0369626621867751
0,0378104929058461
0,0389914918991926
0,0413858001452914
0,0416751661017331
0,0427265522845992
0,0533963340724637
0,0492374066676134
0,0484923831499535
0,047591053974063
0,049937182642607
0,0505776608800273
0,0518841861498616
0,0541121560106619
0,0542593914923889
0,059394987627104
0,0579853953325052
0,0585097146786714
0,0608179489848971
0,0631637799119066
0,0663851063260486
0,0634746376952113
0,0718229989458027
0,0722456953789868
0,0664681376679262
0,0701549943780773
0,0716054312641111
0,0723096642868463
0,0771725533577985
0,077329332301106
0,077478535591039
0,0774795051955379
0,0827121063453122
0,0815973907486206
0,0811365163878527
0,0850377985502262
0,0844349127917339
0,0832925513470399
0,0841229011140828
0,0890487561230124
0,101087685184191
0,0850422505636727
0,0859270545363542
0,0849335486944843
0,0881390774582362
0,0883202452504433
0,0850870121562647
0,0797975471796179
0,0895417834479261
0,0866252924468998
0,0862914646136014
0,0882500877091346
0,0826245886808278
0,0894773795817435
0,084989507708013
0,0872110184584638
0,0884536383599041
0,0885741893307016
0,0887699230638636
0,0913840632301181
0,0894612671892973
0,0867647569696077
0,0866496844096469
0,0872283313650589
0,0863218195545838
0,0831919699715278
0,0891011646711516
0,0863417617908183
0,0857314727435131
0,0890013837978047
0,0820583761232056
0,0871654726427366
0,0859434601949182
0,0868391714456487
0,0841137504417538
0,08124688921063
0,0864742406471637
0,08282606489307
0,0768863078918607
0,0897844030015953
0,0839014783612502
0,0815116190488263
0,085558612771917
0,0841309759535811
0,084211491088658
0,0812387968541954
0,0798507044207936
0,082671396888124
0,0847443269628723
0,0808059995078976
0,0793925091388542
0,0813780077849094
0,0824449021436658
0,0802172997221482
0,0836953203967443
0,0767066710780965
0,081870669791451
0,0830427207585349
0,0822919813696291
0,0808470119269446
0,0844323887342501
0,0803668294907874
0,083332624170811
0,0782694186848456
0,0810799613022131
0,0818025533329966
0,0803339436772238
0,0779082949042146
0,0798649947005202
0,0790133441646648
0,0817477430896121
0,0821837041960906
0,0799111676549858
0,0773725585393548
0,0768342888587073
0,0761750959523724
0,0791519927272434
0,0778405318760993
0,0766658785490368
0,0733099713831764
0,0750676918261299
0,0736151097375092
0,0732762478589969
0,0739170708095538
0,0735591541205607
0,0710043419248747
0,0739446999922484
0,0716272095054136
0,0701905344334689
0,0764417596824365
0,0733539923572288
0,0726895484257001
0,0682682603614097
0,0674717855778598
0,0714369626057262
0,0633997708655157
0,0643782425074277
0,0638650404220446
0,0648089537377509
0,0592162913537926
0,0697730947501277
0,0707317505644043
0,0612356660198723
0,0622772270893712
0,059855298981604
0,0597371745553867
0,0625016166820091
0,0592732323380408
0,057580322072601
0,0567435849453743
0,0534653401661109
0,0566798489585521
0,0556051022076048
0,0566777881084753
0,0578481274337463
0,0519372501127014
0,0542493160218092
0,052395584658179
0,0584734499211613
0,0534605040637694
0,052565979520227
0,054059697227616
0,0688904289586279
0,0539759718833217
0,0534619687072307
0,0493204129816676
0,0479589346815086
0,0485549318739598
0,0507139475542061
0,0517747440552073
0,0485411324681502
0,0508437305303386
0,0499383092001103
0,0501857305182518
0,0522272091438204
0,0489182236265039
0,0490612556685786
0,0420861438289465
0,0502920451173736
0,0452721139578073
0,0496532741191414
0,045486574770233
0,0501966657938535
0,0462709488324414
0,0463260591444622
0,0442566571250306
0,0462754477232129
0,0433046072484832
0,0457291946695662
0,0438730638791614
0,0429473361625121
0,0479980014163729
0,041429053150848
0,0432773000142185
0,043493493387586
0,0424925803478395
0,0390635058129168
0,0510851855651753
0,0481852128687536
0,0406709655821263
0,0431698780095125
0,0408856224888642
0,0449313617577157
0,0433656582645234
0,0436492090283217
0,0432374263093261
0,0437056911204355
0,0461221542130983
0,0528430847561724
0,0463377320610384
0,045722638825222
0,04771866806838
0,0489377021545508
0,0477462911441625
0,0520041500986857
0,0516572130499754
0,0523647659318799
0,048713908005663
0,0536487923681062
0,0552809527040375
0,0534313802224133
0,0546178682341053
0,05597529959832
0,0602641599528691
0,0598626600011657
0,0626437333769525
0,0622618661920435
0,0626990321350558
0,0665696967352604
0,0683292845597253
0,0688441137448099
0,0716855264681875
0,0735733318160726
0,0753827327282482
0,0776070644092485
0,0771564299104494
0,080349408873685
0,0833549493836503
0,0822487522444732
0,0841783317514131
0,0834858715328867
0,090237716834217
0,0858303056919786
0,0924573310508813
0,0939843651289625
0,092628461658899
0,0950129474485207
0,0914806601417734
0,100320894354994
0,0939568092236795
0,100991446976992
0,0980920755173065
0,103049541174639
0,0992257936348856
0,100200082643121
0,0999318021433225
0,104085529008498
0,100104767773269
0,10144783018433
0,104784924264338
0,103899018561268
0,105371678314715
0,105407656426688
0,108231215901725
0,107979283177903
0,107358580326462
0,108473866741794
0,104888758294716
0,110578502750441
0,109635844465132
0,111621622443775
0,111292956008764
0,118976617375632
0,116993793858824
0,112190182174177
0,114843955166151
0,118564497048122
0,116028068691729
0,121889811782705
0,119593159957041
0,122605254937274
0,124688622693961
0,122879579803815
0,122277300599761
0,122581548476474
0,124259996985456
0,127468261506412
0,126409058860661
0,124354962780977
0,125108413764917
0,135640221740645
0,132604757899728
0,133557126246028
0,127751181810232
0,131116368983136
0,128560816009875
0,13295554192765
0,130046156742024
0,134552238066514
0,132008340690975
0,132352374887915
0,131141549916976
0,130896391710503
0,128013443324361
0,129097810818613
0,127905543580695
0,134359794116216
0,130549551699436
0,129729269445066
0,129791901659477
0,128362282994983
0,131605618884707
0,132871664887733
0,131523015555414
0,13161853961791
0,124795251804228
0,130522087542634
0,121102840719179
0,127592131390994
0,129763770535004
0,124421701937457
0,125256811823459
0,129953756383913
0,127725722487463
0,13145737122496
0,128779245830543
0,128298998562074
0,127500736005861
0,131239481125152
0,133032700728002
0,135198481189828
0,132198157982472
0,135931884554774
0,136946074010361
0,13509513315575
0,134418445294437
0,136011177166809
0,137386855801683
0,13718876531084
0,137857667978089
0,141109951907008
0,132925661624526
0,136348591279462
0,136281012536976
0,134013345589309
0,133543073005193
0,131373605197481
0,128321397479075
0,130170069518028
0,128551177721888
0,125868141427442
0,126469143945658
0,123679911124718
0,123043732817433
0,122929168872856
0,122986264064756
0,120673995302088
0,117916561186327
0,119209343375666
0,118579035009256
0,119070155382414
0,120477321480881
0,119049702957059
0,117202168504869
0,118525954153945
0,115524475637913
0,116018833817824
0,112251157918977
0,117675953296324
0,112862181566909
0,114482379499081
0,114696149109298
0,113993058088014
0,114318423358799
0,112309374912031
0,116093871908921
0,113496344657881
0,115467490279083
0,116271225558297
0,112414779015447
0,114910012145008
0,113332763555509
0,112300180338041
0,109715826721962
0,113572601437973
0,109923026171117
0,10996413686286
0,111080022283002
0,10970698860993
0,111453930310704
0,11249794305775
0,109671695335586
0,110229541721885
0,109052654923218
0,110805247402446
0,109732214128487
0,114371804085954
0,107533271942904
0,11062674570865
0,110430311041656
0,110372370512142
0,109274710641159
0,10978427042056
0,109041967580144
0,108261829665078
0,106788127104394
0,111379759310412
0,109889225577475
0,112253579340859
0,109590227588218
0,111771236170555
0,108549400216154
0,107771477023807
0,109279723331824
0,106399216414997
0,106935963011428
0,107565672969109
0,104581284013646
0,10306056676665
0,102992697519698
0,103632523098056
0,10167234848843
0,100354187421723
0,099909299149356
0,0998783925757762
0,0983724950638417
0,0951460964783436
0,0952443897058575
0,0950536520634027
0,0967913722424312
0,0936636873450349
0,0920353724089471
0,0948923693240959
0,0945305285375757
0,0940420203338305
0,0916383983637471
0,0916328493457258
0,0904505985104965
0,0920611372097107
0,0915001733904021
0,090750233004825
0,0923340032068846
0,0910942931884977
0,0935146108914805
0,0943065752406049
0,0932394867748967
0,0937637042873294
0,0941430305656716
0,0928101102406612
0,094431286725532
0,0968573941648275
0,0963996635026848
0,0953711372628881
0,0988106636703612
0,0971406207869252
0,0969039543162134
0,096686320649878
0,0981109012579142
0,0993018502413263
0,0991994040578719
0,0987524490809079
0,0990490553113086
0,0996028564080045
0,0988691023122006
0,0996174416141017
0,100099904191904
0,100862098160684
0,098099207350853
0,0995836910504263
0,0976613266313246
0,0970040085977549
0,0967239920667503
0,0986532410947446
0,0988101580212419
0,0980681594388704
0,0973104314606376
0,0958282780373878
0,0958395047728526
0,0976473051236211
0,0974684629070024
0,0957732831470959
0,0956264748133954
0,0965871075808254
0,0955929654665838
0,0945010578433024
0,0933155178448162
0,0937336522789193
0,0918223921359472
0,0931615159756426
0,0925988622405528
0,0934831068811798
0,093497608823495
0,091813372900489
0,0907928599997598
0,0914930557878973
0,0912492679429855
0,0907577902224888
0,0908438335554742
0,0909055785565506
0,0903677947631825
0,0899092480777152
0,09037232661372
0,0885789728353285
0,0879993241330203
0,0905048779200067
0,08774761385061
0,0863966207705574
0,0851850565522179
0,0874455702988625
0,0851668766089287
0,0838884031416547
0,0838977268568188
0,0847176955864165
0,0823081266605837
0,083405944955061
0,0833996388048968
0,081514484826855
0,0807129741029541
0,0802180225890191
0,0834945685976571
0,0815445306687236
0,0809893925822021
0,0822414539929728
0,0807787366633205
0,0803659870566592
0,0816875854222558
0,0803778089824597
0,0803161188568729
0,0799697861254812
0,0794365320450464
0,0795459686789707
0,0788088932413281
0,0777231723903702
0,0764078778731584
0,0737993643411885
0,0750658436274028
0,0744128641540101
0,0730593626414637
0,0725891225368487
0,0735157451857732
0,0712245065219033
0,0724875428642861
0,0721995747812085
0,0740024523151801
0,0758571038151292
0,0771436525436632
0,0789149411685682
0,081492327559265
0,0851747460421329
0,0874337894644937
0,0897681371105983
0,095381483875903
0,0970039359446545
0,102861326777117
0,107733469328992
0,110001536759067
0,115575062756881
0,121032299763912
0,125532475877134
0,131111568629324
0,13273297537538
0,137078528299628
0,142560909052193
0,150215297368871
0,15464888736934
0,156939094354639
0,16275196645232
0,168291619349792
0,172449000391835
0,174853595111288
0,179780200963182
0,184821479705948
0,187534513380168
0,190404265451124
0,193014412877798
0,194883681402808
0,198165786181245
0,197416589890298
0,199883984298075
0,201110675144043
0,200967240823211
0,202248102527306
0,200963238850625
0,200671470261726
0,201199081512174
0,199975956320121
0,200572222403364
0,200503092484657
0,198849984076604
0,198941897085438
0,202522220029156
0,201506498768926
0,204124406400273
0,203361390069671
0,202488117634059
0,203588789187585
0,202678208101491
0,206899035266358
0,208804604576293
0,208421169479313
0,212338829614527
0,213035727708153
0,217159428087077
0,218843792066018
0,222455353714252
0,222660816219713
0,229066417759438
0,229587950648042
0,234796429976334
0,236518688297601
0,240008750764077
0,243978078506963
0,24619981539235
0,248606262871032
0,250263178848843
0,252131055663897
0,25244681280556
0,252642904033177
0,252990735695548
0,253413699069796
0,253609044375164
0,252875312549692
0,251108172694751
0,250876837603674
0,250155356408493
0,251432956648361
0,252153436540504
0,252599386629567
0,252776319010353
0,256259253139159
0,259228561870811
0,264930430251214
0,267576201744203
0,274781808320743
0,276445599927906
0,279921470315515
0,285106786332071
0,29018610388646
0,29359906658562
0,301370374314486
0,305131085912124
0,311399342101198
0,315486608695184
0,317660866845098
0,32197587814563
0,328826114587699
0,332823841757344
0,340811336991611
0,347160710664839
0,355532515186476
0,363858755218973
0,369437628216306
0,374065054027304
0,380063105192301
0,391053413440559
0,397098471650268
0,401177383850043
0,403172503702557
0,409644807503729
0,414490496047214
0,414623687659853
0,418954063894943
0,421284644703351
0,419118308712874
0,421292909340375
0,423196173137546
0,422134071994687
0,419539119835912
0,418246146546959
0,419927526073326
0,416855208218001
0,417542963574114
0,410729919684004
0,407826555088846
0,405511043223008
0,404817132345779
0,405879908769019
0,405244003384618
0,407856443592168
0,406975771658811
0,410635680904759
0,41134580773961
0,416499315806859
0,415437820689814
0,424393659505219
0,425849584786067
0,427989483769402
0,431346609081127
0,434636204172252
0,436181685248672
0,443818839246749
0,444237958371854
0,448066816993943
0,454025860871892
0,456153933333239
0,45375235503057
0,456330802973682
0,458885399796485
0,460515897966241
0,460667958914317
0,460543710928852
0,461183555520984
0,464077706266087
0,461251734854912
0,466419195121597
0,466301036693093
0,459318856027307
0,456956317789412
0,459828008871396
0,458776799570759
0,455746187363615
0,452958651148718
0,45087522559791
0,446900550596854
0,445265263990202
0,441653417837279
0,437137308508351
0,433627867804908
0,429196478441177
0,422292242268973
0,417902983349957
0,408440721158243
0,39918863092815
0,391191542170634
0,383510508812736
0,368300670336315
0,353860015412595
0,34403149291253
0,331370664067783
0,319467088805514
0,306508462427043
0,293301812488036
0,280581927607053
0,274054499083049
0,263033788648115
0,252684464234553
0,245953328975084
0,24212403073204
0,235893403147434
0,230047628388428
0,228236561767684
0,22595072933557
0,223878277124829
0,218353728630502
0,217129168355063
0,214063444190162
0,211658681569584
0,206529389343704
0,202439940838707
0,202162674418441
0,193656311888677
0,192522418545408
0,18694252967507
0,180966257968319
0,177080780395131
0,170200816913719
0,166079786924621
0,161922541116232
0,154744878720224
0,144681540341617
0,139638948149217
0,136130771332257
0,129394294607467
0,125270595552009
0,11922903404758
0,113021910218453
0,106723346977238
0,100470909422418
0,0977648335996123
0,0917942641327437
0,0869344995857007
0,0855115675234433
0,07977657797563
0,072875840040229
0,0718105602626535
0,0684398381277974
0,0668003036884168
0,0621612046778464
0,0600442925191227
0,0593945032937531
0,0567610729907971
0,0572500161520519
0,0563365979272005
0,0563122368843839
0,0543865637117247
0,0568722693335292
0,056267515678278
0,0560825542907397
0,0539446223731089
0,0526884561876483
0,0527161616399899
0,0543858908604644
0,0594148159211501
0,058922272524353
0,0572588953468807
0,0576696876144267
0,0579044941171818
0,0579549981431943
0,0603936230288828
0,0593616586740503
0,059925350915689
0,0584614169572574
0,0594558531783651
0,0594737382380772
0,0587937465091159
0,058363117035698
0,0575938867711686
0,0563137335117261
0,059051624007421
0,0590443498630754
0,0583504593001475
0,0566855835132525
0,0582762371502144
0,0570165016968638
0,057796421262869
0,0604275768971595
0,0589441840597919
0,059550906560245
0,0594127143945311
0,0609446369682867
0,0630177577474063
0,0631319115939336
0,0617755379500656
0,0591642096380349
0,0627021115242566
0,0649717193657867
0,064069858609601
0,0630195368413745
0,0651080525553746
0,0664401589170733
0,0625730239491044
0,0651055237565434
0,0657992173212814
0,0633423363623294
0,0640654098361105
0,0663092522538167
0,0656261740905034
0,0655995477543698
0,0663313872235238
0,0678533799096833
0,0665594857838481
0,0705447703736687
0,067841908268448
0,0665733904048469
0,0733544767840839
0,0741946160395523
0,0746242050412502
0,0766728396501154
0,0795957839094685
0,0811674197332098
0,0783467772467368
0,0846150639867731
0,0884098738866492
0,0892474935342641
0,0890591780130021
0,0948276952587212
0,0891385150988339
0,0894746229673802
0,0904246631267608
0,0843891856865211
0,0855689654917517
0,0818559083411803
0,0780237580849926
0,0784263709801497
0,0791626657417518
0,0775257977012492
0,0740447975611078
0,0701894836133682
0,0750874008853284
0,0747374275581231
0,0737676934042047
0,0771597851530293
0,0771967456326065
0,0779983386283527
0,0769197900848325
0,0761796672465697
0,0760001888771119
0,0747168897869436
0,0731105265540863
0,0753213841807846
0,0746310967307493
0,0744567770114261
0,0703409430920081
0,0684746161416585
0,0677499675416982
0,0684909144168355
0,0679494081240339
0,0695643908612963
0,0705402037103289
0,0633926475526499
0,0644842309194162
0,0677972353464286
0,0670955451202541
0,066514354664831
0,0667397442015615
0,0663721867626571
0,0665264096515933
0,0644652120353859
0,062116396020637
0,0633546334962431
0,0654240213643958
0,0701496300863217
0,0623590960212891
0,0621003719883626
0,0626178908743538
0,0595033893974569
0,0602302347235383
0,0602556253113723
0,0545741421955979
0,0570512336668705
0,0555504148979948
0,0509828143569233
0,0570619858442474
0,0615124117112374
0,0575387559508324
0,0499031264967206
0,0520259374556806
0,0579315700918588
0,0575042807978396
0,0584848863766256
0,0539649244402208
0,0534365131543573
0,0530075110272657
0,0507203993605295
0,0539788410094426
0,0568805032366791
0,0576242827666458
0,0535041004963002
0,0528871397513642
0,055032878332058
0,0549320123754039
0,0563450308382556
0,0540489982171994
0,0531905690028347
0,0556676842463216
0,0556201488450661
0,056467110317911
0,0596145241530558
0,05986308763934
0,0614295450964937
0,0587156006407203
0,0591111185544361
0,0607653796088716
0,0576175070051332
0,0548292891667335
0,0588916051661439
0,0648521020476589
0,0621828817444762
0,0610611888816501
0,0660727291482736
0,0618075264471215
0,0597685565915882
0,0644393654227155
0,0736730418370272
0,0723230983311459
0,0676134259508409
0,0751191418075824
0,0800687541492942
0,0751482334125388
0,0762724733847199
0,0906320351936633
0,0940542725425506
0,0931330027969876
0,0925197392394287
0,0997006025952893
0,105622547451663
0,0955612965902527
0,111647439387793
0,102296466683285
0,108565997848672
0,115836346058344
0,106347863723814
0,112539722465041
0,110380210869504
0,104006852090658
0,101158741826904
0,105397260653973
0,106624591342709
0,111099276178789
0,109750208273721
0,0978739577856225
0,101320611198388
0,10736322925649
0,108087533218255
0,108329168669523
0,10697256928972
0,0943493119546285
0,102388948506109
0,0986701812672734
0,105958403053251
0,120894766038064
0,10710284951377
0,0964053609042221
0,0921679227227429
0,10811577427331
0,0996627660500627
0,0927542015206017
0,094116172872282
0,0894942089856015
0,101890500837907
0,0891056588917337
0,091405053458287
0,0974383104843314
0,0892189620616476
0,0857321361789769
0,0864725080019871
0,0906632406686619
0,0880640522212748
0,0951546377732381
0,0963930489226138
0,0853151996680585
0,095829859854452
0,0935253420881544
0,0757184943478156
0,0827374866880558
0,0769258399081944
0,0885144732125045
0,0987408957106902
0,0909856016373454
0,093741167993089
0,0784402786751365
0,0765192392865559
0,0821472845150255
0,0860045858685517
0,0966483457554615
0,108243925219217
0,0989529909948665
0,0865633100813911
0,0926441661579908
0,0988503451989668
0,108975507715476
0,103834810737431
0,100347281478146
0,0859305756784574
0,0748593008046461
0,101079701792607
0,0987899341006259
0,105311300286079
0,111716311102734
0,0975471756224296
0,100209859175543
0,0941981418953134
0,0974889238131908
0,0907095807264436
0,0935278970324385
0,11106058568243
0,126255451948093
0,121033295709918
0,127187584129707
0,140070276582614
0,122934089000746
0,143013293828703
0,157357576449463
0,134347405120608
0,118300238481966
0,138526638053882
0,130205247559394
0,12978702690594
0,124203344101451
0,129523910555115
0,16635450106227
0,187101875963884
0,14862038149729
0,111995123749271
0,113403842358548
0,111521264358778
0,119473400285343
0,133821178681394
0,106066404509229
0,100705566722255
0,116760288341358
0,11859248921891
0,120927341865317
0,112269919499358
0,0915016256547338
0,10423879833596
0,156218167718907
0,12562911125921
0,102748894389589
0,0927197127168264
0,104644175525435
0,127338064462765
0,110002038409139
0,124038284393682
0,0915786148286641
0,109901319617394
0,161484724366305
0,0907077708934748
0,123945326072735
0,134819690678108
0,094672359939143
0,108825742934683
0,132694863519744
0,186635900530575
0,198304797212056
0,137497143989654
0,0871688977415094
0,0209488530766353
0,148812914593069
0,138639927800467
0,116611300532931
0,1233716239615
0,154912847661628
0,14143543874801
0,1377361319654
0,0991602230469221
0,128901976118209
0,221615970985545
0,190993739340389
0,173180753114909
0,202985351302582
0,115945529066207
0,176228829524862
0,333326530332765
0,0977144182224257
0,101871510949266
0,122577745494972
