3596
4000,36533379555
650,420452594757
1
2
2
0,011661584983051
0,0135071193957295
0,0103114609463382
0,010308211410232
0,00852176150908931
0,016126434775024
0,0119289852835892
0,00889155692509566
0,00793695863240585
0,0142762302055048
0,00831091673836405
0,00608636967243896
0,00512436843292985
0,0154190694061084
0,0100349304609553
0,00590502838984078
0,00225822126125311
0,00913206321077846
0,0163336473777545
0,0191349798697612
0,0093363614100723
0,0167139707669337
0,0050632988864753
0,0075868556000365
0,0138443286835172
0,0214172330735681
0,00864094417224528
0,0127842059208848
0,00640233859553996
0,0138903622539821
0,00967055109128121
0,0161117304355417
0,00984914342095179
0,00922795110541306
0,00992788215812432
0,0131540615260543
0,00722217730249479
0,0101760630155026
0,0104021812071188
0,018336615357956
0,0119045527309426
0,0147249455497069
0,0134244070225895
0,000702165172318081
0,0120380216604115
0,00663916287301605
0,00639136167805036
0,0113583533690689
0,00831923107910374
0,0212673271377838
0,013093790805592
0,00620015665305515
0,00732946711061838
0,00458174985766093
0,01468540690664
0,0199675235287433
0,00701898546006104
0,00878449772365915
0,0167869977458442
0,0107952259609418
0,0158266211474435
0,00918945540402331
0,00698986029527524
0,00525688437892869
0,00859268985016247
0,0068834365907092
0,0121294633270797
0,0134196890447223
0,00370403591668362
0,0142379286654006
-0,0023668550466092
0,0198567991166501
0,0134597495722952
0,0108804943048971
-0,00130717391201779
0,0106240835195691
0,0104865544946131
0,012269082942049
0,0020833343995778
0,0142444165137016
0,010161752080036
0,0128930100722062
0,0156543648304856
0,00787919035672919
0,00237975119965612
0,014194540122726
-0,00180264536941511
0,0182919430006079
0,00334450498041361
0,0112249988008911
0,00375869377239103
0,0126758026989609
0,00695434410185921
0,0154651703562131
0,00359647419114555
0,0114451840087608
0,000291155250253167
0,0207598661449876
0,0034783458568634
0,0170008437727241
0,0122772514828205
0,0177865619455777
0,00837139718537988
0,00782963772905025
0,0140635008337017
0,000355906133745516
0,0200523410342269
0,0118369452965931
0,00723349412935159
0,0180024351971467
0,00546808164553225
0,0111573054938455
0,00299848403631227
0,0124305203421685
0,000908444208296514
0,0277764461479171
0,00628187060333146
0,0186522566238591
0,00951337553247177
0,0169010173973141
0,0046069714086219
0,0310582286079958
-3,06047326248973E-05
0,0123681380178161
0,00959022465100923
0,00914626226582564
-0,00619748804291637
0,0166032927214756
-0,00117542396587385
0,00959978309611585
0,00331862711426903
0,00389801748624393
-0,000118411187177386
0,0124069885193469
0,0096347702727399
0,0103285509170579
0,0174056001055466
-0,00539469262617466
0,00327988567232546
0,0149318511015716
0,00523075768452581
0,0136474591100115
0,00174480078789458
0,00696044412507133
0,00610988842347032
0,0131206505450917
0,00782301821299618
0,0184104671232723
0,00477124346143465
0,0105641503337586
0,00855762686077386
0,0133897028437599
0,009785703144191
0,00653954038116701
-0,0060200402542528
0,0462430863697431
-0,0140379369677985
0,0112413885701521
0,00715332972403571
0,000594298445433127
0,00233131019973223
0,00797659000342118
0,00863346721925027
0,00457601129801532
0,013720332486817
0,00895631656731021
0,000189216761093553
0,00530095301078942
0,0110529378503361
0,00992304417563087
0,0138248958424662
0,0145712517074611
-0,00967970558160334
0,0252182766320182
0,000480846099036615
0,0180643978558307
-0,000614490219947795
0,00939137918763917
0,00245324208331392
0,0138645378452559
0,00456475830183433
0,00500448938530322
0,00788314314584378
0,014151568085172
0,00939661559778417
0,0125876319955011
0,00395654866165192
0,00871309767739319
0,00892405150061854
0,0059789082710675
3,36916627154458E-05
0,0133662951966786
0,00493014541036016
0,0142463171380339
0,014040425327318
0,00274545607860124
0,0159441826964661
0,000193704079329786
0,00482283963833486
0,0191993664672518
0,00779754004033347
0,00185389440542513
0,00249769193255493
0,0111433000724505
0,00401446583522482
0,0075205067776465
0,0206626806960477
0,00884502125592064
0,0158103715473494
0,00155144161686153
0,0135971859155602
0,00550808645970919
0,0169726387302141
0,00509699398534289
0,00244394387525299
0,00768424181775726
0,0040031334022863
0,0112938712504569
0,00791548274690151
0,00890062965606591
0,0103504144871441
0,00933996427079486
0,00821563417888164
0,00434897970445456
0,00243340688975147
0,0116636285826825
0,0113183930523855
0,0133753544412422
0,0107900859423286
0,0103892749205546
0,0113048060597235
0,00914234484242772
0,00530408662898513
0,006900430763153
0,00593212724951254
0,0151765602727153
0,00352350132698075
0,00494263725944799
0,012297395105484
0,012432802904282
0,014560078957847
0,00638151060695234
0,00699171925836889
0,010820136714424
0,00936970215867891
0,0157840836683218
0,0191015499392259
0,00771482590917499
0,0152801949867558
0,00706561707353794
0,0191759454099874
0,00131694493584431
0,00626632822162001
3,16680753435772E-05
0,0102411669500114
0,0030436260504052
0,00162209868986067
0,014323912086811
0,0081068099358665
0,00766082937650528
0,015814064078726
0,00675093809440632
0,0114192574560295
0,00813233225280571
0,00290221658785608
0,0262182913395205
0,00203638211592942
0,000127357845324894
0,0136762425947318
0,00770111879284798
0,0191032353934399
0,00892034264855343
0,0256403732359038
0,0297684368427821
-0,00393497668675462
0,0129990863681301
0,00983955280364391
0,0191120414859503
0,00395222302211031
0,0198056105771658
-0,0012026533218752
0,0164785030979726
-0,00299106235501842
0,000535687141419671
0,0211732259071192
-0,00280256993609343
0,0222194201785111
0,00214303002009797
0,00688523850354849
0,0108326788505696
0,0083947534348845
0,00583449187225396
0,0199907138283975
0,00963662492912254
0,0109296152163182
0,0166074703477533
0,00498510996284471
0,0094033942727976
0,00800124064688998
0,0131477079964582
0,0141324419331284
0,0181002357560125
0,00642258247299933
0,014263709727176
0,00455618128563038
0,0190264296463691
0,00969445731381801
0,0100727944417713
0,0177823590250526
0,0101988591115908
0,0101953940914979
0,00804272307731258
0,00997641820503927
0,0122455502431998
0,0124549954912358
0,0150245996848963
0,00695298693505586
0,0178594133098888
-0,00186448517419266
0,0209063698893778
0,012998379937933
0,0129472039942974
0,00474411412144352
0,014255095939034
0,0135277408697534
0,0145706922933199
0,00972670017312631
0,0101554681318418
0,0156417578975332
0,0114557040045908
0,0132299031640312
0,0276219689423956
0,00326905933401812
0,0247792596934556
0,006588182274966
0,0139758587401636
0,0153936248806727
0,0161710047792078
0,0171498955821601
0,014224726247072
0,0128821364748545
0,0171773065499357
0,0157833410348938
0,0264101040455002
0,0194598690797421
0,0164914268796794
0,0114344159631817
0,0250449723136675
0,0299121849291903
0,0196245551900588
0,016702840097597
0,0106300909968172
0,015628946907459
0,00917484217748814
0,0141853671419516
0,0371075687456587
0,0175419584851584
0,0316468967529249
0,020451222873972
0,03340808494734
0,0168287782216289
0,0309509333776767
0,0231186592748524
0,0280506240064884
0,0180300030892657
0,0314775459150134
0,0219627623093348
0,0250867627287184
0,0301233008636038
0,0318267584630294
0,0287115320401955
0,0396083907319964
0,0236014722072061
0,0432799040160227
0,0336238304033247
0,0409624454560699
0,0331477435355353
0,0429411362984421
0,0464323088271917
0,0315412183630328
0,0388721848547011
0,0388466734458551
0,0359989026332034
0,0396213893306386
0,0424768995397067
0,0443393509432019
0,0486368479250617
0,0471875647596009
0,0495904202058579
0,0444109688370711
0,0531739069907335
0,0458072915076096
0,0618037692895728
0,0489119353350108
0,0593027585823761
0,0491110936266836
0,0644671399963129
0,0664088504490895
0,0624480915323087
0,0566158069448583
0,0523337757820386
0,0632831981589197
0,0546625304722244
0,0656751759013903
0,0567411872149736
0,0707299974032097
0,0654629383672686
0,0898767827566655
0,0706971986982689
0,074383479209231
0,0816602865182878
0,0773925441064365
0,088663375838895
0,082515053282371
0,0796490187436761
0,0868445693044522
0,0843071288942042
0,0843829703621126
0,0914792443279436
0,0935550783762588
0,0848131994946464
0,10464883181332
0,0857622106006448
0,0995025950028953
0,0870749468603884
0,105750130487147
0,103686881234311
0,110181448090877
0,102982292670332
0,104843678933837
0,109651948389737
0,114157742357369
0,105563904609244
0,122498747396321
0,117393737920166
0,121171485801983
0,121231865810365
0,118856846729007
0,122743213024733
0,124212817539248
0,137045597279969
0,13682685824976
0,130860770872754
0,150888411102334
0,137290018095405
0,148742564117197
0,131440829011605
0,153252934022375
0,145856448351934
0,154913681729144
0,139178103805152
0,161551159309921
0,157896087446938
0,168033349759268
0,158876358799563
0,166975878895004
0,167559304599072
0,166847163679427
0,168418267282399
0,178095947869627
0,173648401664904
0,188203977959513
0,19706965032285
0,19214469621334
0,189403435631737
0,196778582614106
0,185655226450192
0,206997410242757
0,189852831517362
0,202901346918957
0,193217806791451
0,205999917518756
0,205822823210176
0,221151449307074
0,217960685498055
0,228765858884155
0,221887257377753
0,228935870880872
0,224500683398096
0,241011643864251
0,245034057371195
0,245275901537008
0,235394955533005
0,252124276762903
0,24375040128682
0,271051051292844
0,247977733028654
0,26190706549175
0,256312490022386
0,271418458050366
0,257387313742688
0,267809693260502
0,270562234666564
0,283228081371937
0,270836962809905
0,287891680735794
0,294202236050617
0,299302854593366
0,294149466727556
0,301464672684389
0,293816991947994
0,310064102906248
0,29288548243572
0,304374746058965
0,30945857568515
0,337340370505145
0,3183269455644
0,330211325878588
0,338108751172732
0,327055259886136
0,319071295708881
0,352593859787684
0,328919672945233
0,346959117696173
0,344693457127881
0,354268492528497
0,344032882754522
0,371878134607027
0,357011925179446
0,364398633089348
0,37184277769324
0,380571465644451
0,364546525144055
0,389171710962873
0,372542637097367
0,384035164562641
0,386567154813282
0,392627746219115
0,36985285134639
0,389523611917281
0,411640366680034
0,400654200273196
0,401377448460045
0,415087322561355
0,417704773157818
0,421298958678726
0,404150105383939
0,419012096900146
0,41046103044484
0,440484935033793
0,443438299209507
0,455244002852639
0,454340579683935
0,459076949176029
0,434038305902189
0,455104688112138
0,459073060600167
0,462697832659788
0,467441932054957
0,467829019661847
0,474375778511055
0,5052914838587
0,501848518426718
0,494741852212851
0,471002080356358
0,490117547217424
0,479581655140268
0,497366271739281
0,49263908154699
0,503173870834547
0,505623670952836
0,512182897615042
0,504723654441994
0,531154459512886
0,504701876466115
0,518940235607668
0,521544331079521
0,541735159201013
0,517933151734292
0,528854115959431
0,553417002432198
0,559569715024284
0,544314057943883
0,548266643202387
0,541257247603292
0,567657940889068
0,561326286605431
0,574019932905905
0,579110896667881
0,577931277573965
0,562671315341162
0,573088196701592
0,575090395657684
0,585369048283139
0,570501190255457
0,573126491360873
0,568736917251963
0,588693041567111
0,617747302095353
0,642015153993261
0,607337377364816
0,614368313312248
0,606165439938115
0,605363415822821
0,611069997467932
0,652086621094888
0,635319420003909
0,631758569155293
0,629858890200096
0,629084342824279
0,627210471157146
0,629058639846125
0,60692104265793
0,641879029835359
0,654479497000859
0,668167453160355
0,665066662513321
0,6607331876678
0,673991664123812
0,667630363545795
0,661318931445517
0,694208651468395
0,663279963242397
0,694467152117289
0,679786812717458
0,684015109134554
0,691088160719389
0,671637939165803
0,663390636018772
0,700402926358396
0,684480373062713
0,725721680917269
0,729752094414861
0,698852919152933
0,69695799069173
0,701703770556171
0,687838056177802
0,698930124241193
0,705713714834539
0,717052423286147
0,730546911958456
0,71747696555566
0,735399349917039
0,749941220925323
0,733612110850063
0,737667589934728
0,730444911052514
0,751184025905561
0,757081774407458
0,756981416829661
0,723594491112951
0,712675713597938
0,753643886016799
0,779110526933627
0,742855917112043
0,760328305566047
0,785611197245239
0,776929635456465
0,760272552228231
0,753435475290694
0,751364247598322
0,778204646517485
0,755990933285568
0,751065971670046
0,772566785410183
0,795235970079962
0,790664805404779
0,789923987401774
0,795218340159056
0,781175456762788
0,803289428990946
0,800931674580557
0,750927580718084
0,777859703721188
0,787932217020542
0,820811661829462
0,776098112746081
0,763734519182175
0,795772411025186
0,807768638989841
0,797002420009254
0,793231391705997
0,819229621548673
0,796907850788633
0,789150272255282
0,795592751006222
0,788852471999866
0,800891043034069
0,824468263540933
0,826157879280963
0,816565412000605
0,842194380864269
0,816173284596374
0,800133599321452
0,810064250836258
0,824653856555893
0,817891859112831
0,843425458831528
0,835473728730425
0,816497784103225
0,82670426406766
0,818534741788235
0,83837861581802
0,831271847408755
0,816789348479879
0,808088718921929
0,826509244538113
0,832024166279643
0,845175408817645
0,827755427673148
0,821209654700748
0,865479353615878
0,816611591755237
0,835435449680903
0,844325317478605
0,838119558301663
0,856987105110733
0,827333945555242
0,834099181422192
0,848299528016488
0,843888814841726
0,860080252211765
0,856164227265175
0,837188267313382
0,846507697017771
0,821146108095418
0,834958857151138
0,841361353376239
0,808086427803285
0,839114405489682
0,831099546365446
0,833985936523736
0,819751953509655
0,842942537395784
0,848675897001691
0,834160352680088
0,837549501956084
0,848829527207702
0,834087877352723
0,809464622006523
0,833320368776045
0,838926990407712
0,82583830820907
0,828506827896977
0,837831555376663
0,833175105745161
0,822652927339051
0,822448322262488
0,836684059837438
0,820831362867736
0,81699279121479
0,828072974682577
0,831823399734238
0,811946518095566
0,823102642853978
0,834455643880361
0,832988532581187
0,837569217695577
0,816640646393732
0,812917214374803
0,843180530660801
0,827479085166189
0,831751861055966
0,825990376613478
0,806565846192086
0,821910935320487
0,825007782875795
0,840757305822654
0,816809440641881
0,812949881913484
0,847089178295568
0,818148295320564
0,829970194390066
0,820754938705261
0,806971859482982
0,813215885941791
0,824479956581018
0,841967320565333
0,834371928502439
0,811363650211903
0,814887488886794
0,814698887350035
0,811145190020851
0,793766859800466
0,814121359282919
0,79821131519067
0,779190034666445
0,793905383186046
0,803666845433005
0,786004636222858
0,78266651055766
0,798870692444539
0,792164708523979
0,809947188504174
0,820681820089346
0,782301619101489
0,77250146418803
0,780418171045457
0,76467898045472
0,779041742022662
0,80139401589319
0,781427510729214
0,773872501284029
0,763962684871889
0,776631275937779
0,76879857754121
0,776805308270198
0,756625240005363
0,766998925852232
0,775712999933922
0,779424750665568
0,757158410319412
0,745743985271404
0,767532640876973
0,750078425031361
0,737297814193925
0,761783039785683
0,744270637518076
0,742785420406027
0,737777380596699
0,745373709282754
0,742847095640137
0,763313998945707
0,745994157443084
0,73923857063939
0,743305239343787
0,736742181677324
0,725718704800443
0,726180111618623
0,711218967152973
0,705453408564053
0,728785596818791
0,732327649668074
0,722596940353221
0,724004509043774
0,711919665797076
0,709610413073498
0,698950221406309
0,71490317714129
0,700022073505744
0,703723479724449
0,714345627249618
0,703848331257873
0,694508698074325
0,69045203788026
0,688238499832805
0,699993701006017
0,669564062680631
0,680905619809023
0,681056749475909
0,693102667291197
0,685633244895965
0,674957008979805
0,665291808359368
0,680811838032983
0,663737718425658
0,664902744179858
0,665032683452006
0,662656837347284
0,662309517075368
0,654635547010294
0,633797512262481
0,6424627384463
0,647586902284648
0,640530370584681
0,630002154478343
0,625186447211925
0,631351410846501
0,641692762911433
0,628988796544937
0,619687430641111
0,609951128660826
0,618673373005835
0,607946842157863
0,599843784245985
0,614464943905308
0,607833628236277
0,60716023963375
0,610151440510172
0,597017994584797
0,604073820133039
0,585303563195414
0,594751331447542
0,599770917609486
0,586305988822862
0,573751982933327
0,576840750606699
0,567818112775022
0,576253085936147
0,569321503624961
0,561754933951878
0,57073094289475
0,571823100850864
0,55097768395976
0,550582080617727
0,543683527116013
0,538581364619593
0,541031196584639
0,545020988985022
0,543878715909242
0,545848964568028
0,533871780185861
0,536293753325805
0,518484702927969
0,524136253211779
0,512378033615192
0,521673889338377
0,512622390996107
0,515448157665726
0,509681973608584
0,5001213508894
0,502476280058579
0,488372622338328
0,500782544026629
0,502056482889937
0,488766168321798
0,493589325879113
0,490037440848324
0,481894078559667
0,471487374150553
0,481610043546212
0,47013190643804
0,468080348680502
0,460945845898162
0,470568654230419
0,466885321138137
0,462975258961903
0,4618611460862
0,453478164122506
0,446610601379591
0,457165707086656
0,448510289964615
0,44322865097045
0,444765642413519
0,440667646281676
0,43962232002184
0,432631516226089
0,428642315014207
0,430674196095063
0,437183143046312
0,428820128638496
0,423279246887956
0,419857109801563
0,414960479513077
0,415275933152369
0,411253608629397
0,409920967702932
0,400137754445189
0,39656313629123
0,398650761733368
0,397059886258569
0,388995364230311
0,37556078093543
0,386432063456443
0,388852786585931
0,376794330426077
0,387505270973954
0,390267585862566
0,371900675386843
0,36463679447435
0,371351122726638
0,370975328409794
0,362037177599223
0,366430360013314
0,365576105735022
0,35693509523825
0,359642681175813
0,358812908632938
0,353762743227929
0,350604196948762
0,350265712466169
0,357091173420843
0,354513948476717
0,342592405874572
0,339847988378856
0,340174910407162
0,335215756067976
0,333856064540556
0,334535019172916
0,327989951838576
0,329598535158382
0,328275920439139
0,320725956835235
0,319036260269285
0,32578442269606
0,318263717012395
0,316015587837249
0,315721014773903
0,306080940127637
0,306460623545091
0,309636242123252
0,301646049799957
0,306996801415446
0,297283738582161
0,301165625432317
0,297959324342337
0,295133395649825
0,293123304597586
0,290418321754605
0,289070605485787
0,297441998266986
0,288293001045865
0,286242154423402
0,282566019535994
0,276811053555217
0,27753786441817
0,277528456819485
0,276486955220387
0,269971073555239
0,265214333509321
0,273776742948092
0,270327310283217
0,258287631668938
0,26987359340555
0,2641462934896
0,25852123668563
0,25929702796085
0,254890061904187
0,261169277567951
0,249221854475153
0,248650862527522
0,251162705300135
0,246078249787795
0,250464620689073
0,252135029585344
0,240527506216108
0,247076761610061
0,245996216110454
0,238284740333036
0,231595778991013
0,233815726050864
0,24022342983633
0,231847946768578
0,230265306173311
0,227190165360101
0,231272111028699
0,22783306160881
0,228104113434203
0,233165148704734
0,222960641215065
0,222428568525158
0,217390508397971
0,216787872851943
0,217553122930554
0,212742113936416
0,21292092419844
0,217239424621817
0,216754997177949
0,21743546973353
0,211242233343732
0,209077294996657
0,205651559649814
0,202027603588142
0,207801080766404
0,206579510398535
0,200536351190801
0,203582394759798
0,198460204812735
0,199202922163601
0,199057122202205
0,19922573600136
0,192021802396285
0,189314505362285
0,192329636419147
0,195723424640038
0,18717459881904
0,195935785107847
0,189427911850739
0,185033727581919
0,184547778688606
0,187696472993308
0,194030556053101
0,189585106867318
0,192781206644176
0,188766593357556
0,183179362931823
0,182501634297174
0,180067481338988
0,18205934355717
0,18784316361692
0,183365380305803
0,177707621290636
0,181726763378346
0,185142729252147
0,181829528336441
0,180987744284507
0,18206129163492
0,177602884589248
0,184206997274717
0,177423781458102
0,183341018825612
0,178886758906655
0,181573443640513
0,183900064042948
0,184878145663674
0,185799702202233
0,184829669113377
0,188090615624478
0,188142828437156
0,18555203233226
0,183793278447788
0,188708523301529
0,185512230574374
0,193344942776341
0,189897274641022
0,19698306076351
0,192581268767541
0,196494463511753
0,197233365356526
0,196376862807775
0,204129555550033
0,197979862392012
0,202446566406169
0,205385160823971
0,201624773048321
0,209498221699002
0,209138849680139
0,207586648140687
0,206755812277572
0,212591062478063
0,210616781894476
0,213477421403925
0,215184963260325
0,218162987685
0,221359025235217
0,221259391986778
0,226563637710116
0,223631648064636
0,234480952428774
0,230605546919043
0,228091376022688
0,2317929677976
0,235030217279598
0,238632408780118
0,24540879147895
0,240271075812052
0,250534324565855
0,248847075803708
0,250936242572101
0,251194263110213
0,254964048670878
0,254486648251842
0,263201987996359
0,26290470799256
0,269754387729796
0,266487739457447
0,276770117898197
0,280710208746576
0,271981518747372
0,277429225661218
0,282032822592558
0,290949069603164
0,289350760445543
0,295636046390069
0,295069287505918
0,295067823604797
0,293700943352875
0,301415764431977
0,299959961330867
0,292433303916284
0,299443907974469
0,293424324122434
0,299755603699632
0,291745914703899
0,302226021499559
0,301516461516132
0,300327779473608
0,29272775711421
0,296662422515041
0,287308851286001
0,296810804578699
0,298071133815552
0,290476016199439
0,293395803139536
0,291951036276379
0,287895728799278
0,295124857509803
0,284134396403374
0,293200498701194
0,283636946878927
0,290959297420664
0,280589388903659
0,288637321112298
0,291410550089755
0,286479329967214
0,283799452023052
0,284944953098123
0,287205565460747
0,290391225215306
0,288267168443062
0,289899045660527
0,282526834890879
0,285989984564632
0,286803316079376
0,288467007219234
0,285991489189404
0,284008967669739
0,28547904637158
0,287879864523531
0,283689386378654
0,283964238408478
0,28543817546533
0,288549814453915
0,282272498621761
0,280013202364324
0,277452006554516
0,280086649212466
0,276582318676237
0,275266379006896
0,279430225607409
0,277203219977332
0,273395584288949
0,274253899699731
0,272557255430471
0,269919036408584
0,264036950132329
0,26737546995441
0,261884339262837
0,264462341323523
0,26593322799888
0,263278033676007
0,25474441183013
0,258506819189118
0,253640076576391
0,251390211313947
0,251567551333596
0,243183382772003
0,240354466305761
0,242589818046713
0,240786190424802
0,239936949732474
0,233242256835372
0,233989351115475
0,228280893871271
0,231857781785144
0,230986242611275
0,225196241109046
0,215615855492038
0,221057126666124
0,219049271848835
0,217149879788246
0,214733324319238
0,21382650743424
0,211640772681802
0,208239336815637
0,203151734099467
0,198112903741776
0,199061185855006
0,192771606706017
0,200017388908128
0,199575645302884
0,193493180256176
0,191598138361286
0,183799236522357
0,191745678590718
0,181900914364632
0,183740453675937
0,185839718065908
0,183543802287196
0,184193132759788
0,177955461885379
0,175925696691144
0,179004712145296
0,173544178714146
0,176101037680584
0,172611327965639
0,175414249426695
0,172498096259376
0,173027637661076
0,169733545644292
0,163513146596223
0,164536462305889
0,165903096118763
0,162098898075658
0,168961288934751
0,164970826260463
0,161328002111163
0,161982532656385
0,156273366978063
0,159352303286348
0,159845160228689
0,154406879908771
0,154261228726752
0,153841474399718
0,153674223915787
0,149807245928959
0,152587712235553
0,146968607769613
0,148799682168579
0,152269121512895
0,150221498035389
0,14680399262486
0,147809896856937
0,143664741982214
0,147742766620962
0,144310409586437
0,143417321908501
0,1438472631936
0,143285647297789
0,143857274060205
0,143740468641906
0,141548360289254
0,139567688681011
0,138489804462312
0,143524517062971
0,137311609455358
0,139220618295503
0,135389051001951
0,138817858096514
0,133653542457368
0,136874508159893
0,134014675362327
0,135133506221775
0,134170842790092
0,139272676593036
0,133187330206631
0,130577400305764
0,130676472921719
0,131193950478532
0,12822190487386
0,131699617100558
0,126243827139418
0,133296533982332
0,127860316684989
0,124879146527708
0,125062438709528
0,129332614218948
0,124837466168338
0,125629961056827
0,126052501007988
0,122054243384553
0,126380351486342
0,12331726272529
0,122050589581548
0,12329005897089
0,123651950663773
0,126339734466771
0,121715635851245
0,121111501716937
0,126029003095896
0,122198042261054
0,119210554673369
0,12094434429562
0,117972277936555
0,120390227617363
0,119483884190983
0,116843436751749
0,123721533259296
0,121190629297717
0,118147676718427
0,119101158537362
0,12267670919381
0,118828046720383
0,117534781800156
0,119325120395157
0,119693359246938
0,113236954299276
0,116168415549028
0,117488850275749
0,113532072722593
0,118906413503683
0,11221292414155
0,114937297876812
0,113761977244474
0,113571345930181
0,113424528538321
0,1174298995438
0,113779542889261
0,117198957419164
0,114439283758553
0,112347548045821
0,114665340114621
0,111833395465854
0,113024025540092
0,11261988038731
0,111396701517527
0,112198042712075
0,108021537094786
0,114395134569357
0,109722660513932
0,107659629728988
0,106015325377478
0,107468842209978
0,112439775148533
0,109973758755392
0,110523045304456
0,11038839007342
0,110173022346242
0,106904688580863
0,109631190147405
0,109280192563713
0,106447880182124
0,103882409715362
0,107569497056924
0,107969109151829
0,103645389841039
0,10887724124981
0,104047511378763
0,102110450598225
0,105892104829807
0,104436543952585
0,100630359017083
0,104316028892024
0,101718541691811
0,101945380381947
0,102021346273609
0,101517499523504
0,101402310922132
0,102764717582634
0,10384843799254
0,102044096306856
0,0998137236536271
0,0995531377036569
0,0998593629073131
0,0976579582658303
0,104375202320013
0,100780754946981
0,0982323634850608
0,102353554169003
0,0998261673755857
0,101034844749021
0,0970172771670383
0,0980319831050642
0,0956923835551628
0,0946458194096821
0,0958683915778796
0,0959003641635475
0,0932585673899098
0,097512364150326
0,0949915996478989
0,0964335247505642
0,0930711902810631
0,0938184485976363
0,090809057842678
0,0891416794306037
0,0896824259562504
0,0943836421266002
0,0889875141041582
0,0951317019504805
0,0881808605142198
0,0880524822055519
0,0887076041364761
0,0882826892239291
0,0892108777014394
0,0930624077288644
0,0904574765957598
0,0882091171299822
0,0859684392389587
0,0868775121511282
0,0863471730704126
0,0853293279804965
0,0862608781788342
0,0820440910969076
0,0840923234718838
0,0843675298782436
0,0790456555792053
0,0822978951939134
0,0834366092174955
0,0801486685818723
0,0815660798447422
0,0794973996020563
0,0823710521097148
0,0820306181771753
0,0831309690331475
0,0813812784540214
0,079650877633696
0,0803833190022466
0,0770215910513378
0,079710601970022
0,0763244257645891
0,0771680802604698
0,0743654148021628
0,0803843223725831
0,0775291862678867
0,0783177979977303
0,074167530986338
0,0755937773050773
0,0741562905210029
0,074016469895413
0,0727874962932749
0,0731810962422395
0,0728307053309274
0,0709066048584474
0,0711280789574505
0,0715718298612312
0,0704134349237862
0,070293753636081
0,0683195128386124
0,0745189680358399
0,0704406374120969
0,0704997886567837
0,0683180677067449
0,0710080602988988
0,0716677772062065
0,0669518382176139
0,067506572524533
0,0666383841275317
0,0680548736535359
0,0666795094458699
0,0674844233042956
0,0655647298318957
0,0645681317404582
0,0678852541294778
0,0656475542089491
0,0677055836085392
0,0641702488347307
0,0645762204527936
0,0632197714845054
0,0630612275367706
0,061170135600121
0,0654252702223606
0,0647447719844995
0,0619935723982834
0,0626187863857033
0,065237713764179
0,0613834465452292
0,0654662027516194
0,0626746576592175
0,0608599351452676
0,0592568539319695
0,0608982215086576
0,061861004533044
0,0636885129252102
0,0599672050066843
0,0646347651805184
0,0586746626586569
0,0603339578111924
0,0569335770346385
0,0616373862841988
0,0608997339816928
0,0600376586941983
0,0604134077535782
0,059447813651502
0,0611705575928569
0,0573495096784197
0,0605720883547211
0,0576852105841668
0,0579733981176016
0,0581204803306094
0,0546896347026208
0,0575571977829676
0,0581225323212872
0,0555246121288467
0,0564449412549228
0,054948015156884
0,0575468250054724
0,056559114733979
0,0575802294948732
0,0560280679369174
0,0573707867473906
0,0540501612419597
0,0527559943289905
0,0536860052912528
0,0550850175841887
0,05563050467378
0,055113734300629
0,0563462720551535
0,0555070653720968
0,0518010106734413
0,0559643959335315
0,0562590322136865
0,0544216540141894
0,0554838735704074
0,0541913236865128
0,0529543220092846
0,050433516605417
0,0516154673893917
0,0539538828770493
0,0558030678181411
0,0543286487956104
0,0550241066252386
0,0535778096722141
0,0545893043352185
0,0518766343537116
0,051556167328933
0,0514070789906783
0,0531633247195224
0,0533972206896742
0,0527020242295568
0,0508851281834127
0,0502259374095505
0,0501979716019336
0,0523581835625369
0,0533708532549606
0,0507418136331354
0,0514588744863152
0,0518396603727598
0,0507949754001853
0,0490037215418811
0,0499754728376178
0,0519478592763627
0,0504073683579605
0,0498993341654998
0,0483307142293479
0,0514853205503982
0,0483571040269238
0,0483902834161506
0,0476566326302569
0,0487060925190192
0,0480002535555604
0,0477533241364078
0,0482101948804209
0,0473897993031843
0,0465886525136172
0,0501550899534778
0,0481848708589703
0,050121312881336
0,0463196122688872
0,0483687577322067
0,0451837563198555
0,0481271287656044
0,048286040979362
0,0487467813221783
0,0452499700979052
0,0458233525737025
0,0475737356845221
0,045592022307082
0,0472083378406892
0,0465650734740702
0,0482103415923965
0,0479518401894439
0,04533689953268
0,0452182838715652
0,0475660905318587
0,0472919087215893
0,0428200428240078
0,0428884155105802
0,0483340628986432
0,0450225619852259
0,0426760135102843
0,0455866653501063
0,0451878838684365
0,0471201011326799
0,0418673493232134
0,0453341609489868
0,0475722623741657
0,0430766114363413
0,0446825607670888
0,0440490471817765
0,0407083116671593
0,0414423828832501
0,0440091505997691
0,0404425288346405
0,0430061513768204
0,0429997358550741
0,0395563963057038
0,0420585949457094
0,0425016802785087
0,0434960919385716
0,0404239224193036
0,0425717641611516
0,0421066707220694
0,0406018224680628
0,0433052437519652
0,0417266467138172
0,0410463337111872
0,0415464762538226
0,0419879268238713
0,0388204779461973
0,0404297207962047
0,0395608653323307
0,0425263124922471
0,0409564797954345
0,0389637663192319
0,039936587784872
0,0389719078912503
0,0377495234801297
0,0381885921120454
0,0383263391205986
0,0371617815335376
0,037953998703825
0,0371449840334391
0,0354118239191702
0,0366847762032469
0,0369265991162959
0,0325565882652598
0,0365232105291332
0,0355279561474924
0,0377640867454294
0,0360944463496745
0,0369076784404644
0,033756281972076
0,0351728013192135
0,0338204561492855
0,0358495937461323
0,0356137542777746
0,0344588220494909
0,0342076094123182
0,0340959750895284
0,0335717665358315
0,0337408840683428
0,0334820252690304
0,0330681571582357
0,033088237349287
0,0332876416433076
0,0333287276281213
0,0306689632209215
0,0317364362006366
0,0340591731116692
0,0341130831898721
0,034344961641201
0,0304423272934229
0,0303041227192561
0,0318252307175822
0,0310599429738841
0,0326649181875731
0,0325734372201085
0,0325772292072301
0,031885922062136
0,0304808455386733
0,0297113112936175
0,0313525338373671
0,0312513576405914
0,0320409832714612
0,0295044470792476
0,0305546978382794
0,0311568328445446
0,0305210216971675
0,0271354643169504
0,0268303654902686
0,0306180236732707
0,0293493085486768
0,0281485375549546
0,0305884343409128
0,0271044798235371
0,0276921790143369
0,0286134612609884
0,0271999236554871
0,0296112876858772
0,0292706902721934
0,0286859283045202
0,0274496166174602
0,0281144506259854
0,0291516129717135
0,0291807389903374
0,0275941898905642
0,027167704114724
0,0279557991102059
0,0270387017767029
0,0283229147947809
0,0275416057571884
0,0294218624544979
0,0275171941849163
0,0290998359036478
0,0265118981732365
0,0276263808939234
0,0253903234185608
0,0284369391642735
0,0267952284035612
0,0283210624696978
0,0300831404553244
0,0295998297145157
0,026435578209374
0,0294614034124619
0,0253124576852013
0,0300575112962245
0,0262059984086711
0,0265728366211534
0,026054017973218
0,0288899527706859
0,0232959624657651
0,0218409559434343
0,0260469979579741
0,0298050481318644
0,0208836296620048
0,0243876718794986
0,0287253440729591
0,0254796509453503
0,0239321734105382
0,0277242286456274
0,0268572067585101
0,0260261740235935
0,0274361429838258
0,0221360874903519
0,0260428863413816
0,0290968130714036
0,0256244379548112
0,0284035096210652
0,0242256190909743
0,0250587129236592
0,0244015723020866
0,0265614393071248
0,022299597828043
0,0270732377751656
0,0191015715760813
0,0289089883320888
0,019117249358771
0,0304292547916818
0,0197392169598281
0,0288265186619916
0,020247511003265
0,0298579223079163
0,0189403446228042
0,0305027452490764
0,0213438064257614
0,0334016089079571
0,0189261190112019
0,0282648430890949
0,015437528477961
0,0324363326202591
0,0160277997652794
0,0349207721185302
0,0222782897247356
0,0311706124406319
0,0131547404521148
0,0325629126381284
0,0154592756148973
0,0319659042151936
0,0151387476352378
0,0250088809668105
0,0203017279021966
0,0275824955664223
0,0219664174999983
0,0210864482724441
0,0278774231287417
0,0201877024618672
0,029093881149691
0,018574898776674
0,0316352268894841
0,0148333246756455
0,0307849082011267
0,0149739843980933
0,0310604627548406
0,0176422225473309
0,0276443474911698
0,020696422565514
0,0246439381193342
0,0194000170849974
0,0246452048739229
0,0225433243401945
0,0241817140363291
0,0230333870824094
0,0233831977720051
0,0199104574708608
0,0247811098178113
0,0210792496696721
0,0264767527717188
0,0215575751131107
0,0255844341450477
0,0211213694647267
0,0225054485965398
0,0220671401562453
0,0233095578671885
0,0190246788311927
0,0231074126566454
0,0220218543887932
0,0250697131921213
0,0207904634348728
0,0213847533793018
0,0198803037163195
0,0226764034224506
0,0213089308418368
0,0209489023162792
0,0192600340052132
0,0227309119900146
0,0212798122478108
0,0226786047813498
0,0223318497521712
0,0236225847892157
0,019699708817294
0,0250422204293681
0,0232138689723094
0,0247879436834339
0,0211505678372585
0,0218090612931724
0,0198882405089208
0,0253085156096003
0,0217633089778375
0,0216369715637257
0,0224378246283653
0,0240150501877227
0,02260694757581
0,0235374597578813
0,0202283544122156
0,0205688077339535
0,0205580900381176
0,0231689599053693
0,0222317895683382
0,0233519679620617
0,0210193276939889
0,0258260434586333
0,0233439827981022
0,0232010501848867
0,0192033117574221
0,0197322519622534
0,0218131935364945
0,0251677034827953
0,0217825287789693
0,022297336546775
0,0219933807810251
0,0246194337572398
0,0218938533562041
0,0216960814241615
0,0212053320388552
0,0229955569251728
0,0208862529727358
0,0209796826055212
0,0210803562134407
0,0240636713204467
0,0209820075749604
0,0210519251428563
0,0211614357725908
0,024176887626588
0,0218046776994818
0,0225662111493162
0,0218618844393834
0,0227585020528965
0,0218201479324445
0,0253827802086707
0,0225896739848656
0,0239263359099111
0,022217633001856
0,0211229120819525
0,0199744482097984
0,022838170983326
0,0214215558268937
0,0232440568586823
0,0215904473025268
0,0206275576793657
0,0218618870572595
0,0234345671952987
0,0228263255689147
0,0241461753848552
0,0223477560651551
0,0242375379671439
0,0241205682468665
0,0242464380317377
0,0211688545017404
0,0222384579886956
0,0213268823102182
0,023416652050912
0,0223565819237198
0,0238058310079001
0,0232914205792109
0,0240914312934637
0,0215216474764627
0,022549895696546
0,0225112243140684
0,0217658442875596
0,0203026263226189
0,0240396167155321
0,0245848431339278
0,025146825203117
0,0243441952857089
0,0234865230279024
0,0229454260661329
0,0240769684876411
0,023322048985089
0,0225189702076238
0,0239325840681544
0,02562449558133
0,0228369075152069
0,023722446481971
0,024018891774599
0,0255922645095708
0,0244469012106609
0,0225688785872383
0,0216792964863366
0,025908652284674
0,0239779269022056
0,0258272989114462
0,0233710733448665
0,0234744318268742
0,0254605529259844
0,0247524643917256
0,02352242806227
0,0252329825903116
0,0243526794360164
0,026012361425322
0,0252602283705704
0,0255931700665525
0,0260905137567623
0,0264599984289091
0,0223858425509524
0,0240325051628739
0,024606386284415
0,024302555813119
0,0248576251105885
0,0252261910207461
0,0234477255151308
0,0264073694208249
0,026731153997339
0,0262728005914922
0,0245131040740025
0,0248519563357618
0,0250976921018828
0,0270799182974904
0,0269086141364407
0,0257429048695908
0,0257236593609128
0,0262136006083133
0,0243458294319974
0,0262371850276381
0,0246166297096656
0,0241988451486957
0,025105779218351
0,0269206392528705
0,0258759003117995
0,0263905752921606
0,0256274868522233
0,0268671533510772
0,0262488067166614
0,0253727318984824
0,0245479481375767
0,0256670720488419
0,023566679359209
0,0247685218445705
0,0237897981847008
0,0257898637457468
0,0259997026079246
0,0278195806890444
0,0252943729655614
0,0251086769724187
0,0250594759337333
0,0263409385010906
0,0240854433692292
0,0258975373708699
0,0248546963224031
0,0232598905287336
0,0222577848369496
0,0244253042515866
0,0251601928100834
0,0250799197221355
0,0247353603335558
0,0263575988352534
0,024891360668697
0,0250527628142163
0,0235831860719999
0,0244413648962702
0,0265485028848702
0,0253309726076232
0,023323702399043
0,0262379957337192
0,0240917100266835
0,0244229483733671
0,0245908618422011
0,0238784067704114
0,023006714640617
0,0251966829061788
0,0235800354459264
0,024368230880818
0,0239122166742399
0,0259194046239713
0,0242913158837387
0,0246108762233648
0,0249228607737615
0,0243094176357399
0,0215046380024874
0,022191415495605
0,023717529642619
0,024566552888718
0,0223782736591051
0,0238005128555059
0,0237998193132002
0,0233114740878378
0,0231370998192172
0,0234576157579086
0,0216943834951238
0,0247616012710995
0,0245099302676425
0,0239177996402996
0,0239450985803257
0,0249607539750785
0,0229760293034061
0,024910723702927
0,0235659038188299
0,0221535423359209
0,024028118492617
0,0256023398213568
0,0238953018308794
0,0234549281823551
0,024038259351791
0,0241749007488581
0,0227713751631267
0,0246777372547589
0,0227843228953485
0,0225981087881269
0,0228442952472002
0,0243490359146923
0,022916859772046
0,0237895427544145
0,0235488802861608
0,0239413626924989
0,0210156349979738
0,022137148358434
0,024119410984545
0,0233682398518056
0,0231203013352586
0,0242663278564727
0,0241203478735909
0,0237285030580842
0,0232879288048648
0,0231659481255989
0,0236629806044749
0,0244276035673312
0,0231984156334548
0,0235959475580931
0,0216344815091666
0,0235032122039895
0,0234848670456842
0,0232747050824186
0,021875262448939
0,0234857120710617
0,0216215853179384
0,0232002827798826
0,0231251045710851
0,0236903985101524
0,0220981911573593
0,0219496908326782
0,0226516590443685
0,0233671347502215
0,0234855712612054
0,0233908864272072
0,0200384898927335
0,0228619943030078
0,0225455967587592
0,0218746048562573
0,0212231702768018
0,0219494810447115
0,0228767050476273
0,0219886507918875
0,020532182786568
0,0205773889896793
0,0208211898416118
0,0219310091369016
0,0209990455800753
0,0214697572805061
0,0223512049830312
0,02222863709335
0,021235011988826
0,0227313102165759
0,0199945334380538
0,021723558513276
0,0210304894090003
0,0219490895651976
0,019968409862755
0,0203623981161246
0,019000552004494
0,020364187698355
0,022185683294135
0,0207335347351625
0,0192104845031225
0,019810016108624
0,0210228857731461
0,0203440981794793
0,0199169411103218
0,0212948573659366
0,0210070964161483
0,019989847318723
0,0187401437962908
0,0190652231695012
0,0193862985647254
0,0202388668527825
0,0193222732864468
0,0188547320275711
0,019930832301052
0,0191363519212722
0,0187434453817696
0,0187991091411465
0,0193723599621283
0,0173031839782797
0,0193830636932539
0,0181679406448131
0,0197198893560344
0,0199993665380892
0,0206737149013671
0,0186917741523582
0,0195408760607644
0,0205450689446921
0,0196791014764747
0,0188429779007406
0,017664820129124
0,018064497294326
0,0180211303384421
0,0174094668930232
0,0187022298833009
0,0190669623695337
0,0189708496922486
0,0172439000486564
0,0169315237667488
0,0179700673557075
0,0169360065932655
0,0177486294685311
0,0197662949749417
0,0185997437518697
0,0175844031454182
0,0178250073113984
0,0160207248237565
0,0199196505515881
0,0195754713726103
0,0189340265318524
0,0172364717731025
0,0185628039634333
0,0193286412508992
0,0201058758684482
0,0161667944276139
0,0192458726414429
0,0186317012399532
0,0173898032061013
0,0176907742654468
0,0197965323944492
0,0182039991299435
0,0178288391299315
0,0186975999252757
0,01900945407078
0,018136418325585
0,0203733597639796
0,0174129465844468
0,0167797816748271
0,0179890660546182
0,0177631032823262
0,0154712860593713
0,017387159741226
0,0148890829069036
0,0175904621496449
0,017896886441032
0,0190065347839005
0,0174170119239387
0,0219771179963116
0,0183218681167779
0,0167761836655169
0,0170539169950684
0,0164621164783913
0,018283436507167
0,018685010495656
0,0179106382515608
0,0174024822858424
0,017825192454022
0,0173924888411198
0,0169258822973467
0,0181408736790481
0,0175188510300776
0,0194982586103508
0,018592157641332
0,0171450285038868
0,0192310618415005
0,0168814779410296
0,0176050803708999
0,0172476455755134
0,0178466789176133
0,0189048161388885
0,0153568653341435
0,0170848307207975
0,0203876708308815
0,0179195202832219
0,0198835369649779
0,0141401172446079
0,0172233590848286
0,0147782172555761
0,0186015362032147
0,0159485522842394
0,018789813642613
0,0166697033035437
0,0198227024430833
0,0184115805198768
0,0189968118228335
0,0172642942991651
0,0153473529823228
0,0187896196864757
0,0193512986856956
0,0174201865097962
0,0170844411673759
0,0166462498652942
0,0171544943342233
0,0194752703508708
0,0182616626126168
0,0179982499977739
0,0177006164273506
0,0162781349203445
0,019875530657665
0,0168346283583034
0,0174776540498533
0,0143214038605695
0,0184427636257626
0,0190439493126843
0,0175482597283942
0,0177220696832646
0,0159461304856767
0,0183482192707055
0,0142856949529239
0,0176745598789705
0,0191572081733476
0,017027585464658
0,0152001462165962
0,0175670112568051
0,0170572536437983
0,0204220121422593
0,0177168498861075
0,0180015523167351
0,0158355161794685
0,0173770903054311
0,0177500522419617
0,0167523421163804
0,0166814214851142
0,0168708825021417
0,0200523277057497
0,0184592269170418
0,0227044488427067
0,0185155141267845
0,0201156160363666
0,0176617761149179
0,0187977527261244
0,0152385394266803
0,018506638812337
0,0189133304772003
0,0162235457912915
0,0186356236824853
0,0174886064345753
0,0160070401115712
0,016542215274189
0,017633112270995
0,0191255634888974
0,018061544280763
0,0161996249575647
0,0182290001790327
0,0167889123437571
0,0180638544895614
0,0156908801226368
0,0174826233424538
0,0188455173783197
0,0204190191423556
0,015514076190927
0,0226479422892085
0,0122830529165678
0,0242245939810893
0,01858884518624
0,0204192048474727
0,0185803646837824
0,016554083189638
0,0176473785970979
0,0199163483082082
0,0180953983621199
0,0196707536298549
0,0159312410112809
0,0184413117776683
0,0186347778637588
0,0179268529151449
0,0196613289420146
0,0191394347550914
0,020487381131079
0,0237827962213646
0,0162113523156391
0,0192769078793431
0,0167138761250585
0,0180504206635167
0,0170580471303211
0,0163948820885443
0,0188328009405355
0,0162662414814599
0,0179996837124679
0,0166677219387124
0,0206053446596384
0,0187204209654794
0,0203851714840915
0,0173973945205048
0,0175236453511873
0,0203753453057991
0,0179736232203542
0,0209591618152265
0,0188845448537844
0,0208113489020931
0,0194680905727863
0,0171684629878208
0,0175839777824615
0,0192355346891585
0,0190335167108697
0,0184329348749624
0,0201625762760584
0,0182526045534813
0,020035356880817
0,0202441925915443
0,0185603648717902
0,0199356996781169
0,0192361717458666
0,0205672723872754
0,0233609069257532
0,0165057515678075
0,0218374802681149
0,0161856822116608
0,0253488852143951
0,0220955997485182
0,0179345789532327
0,022450681259469
0,0177752367775075
0,0227715665727931
0,0188313047057384
0,0222505119859797
0,0176842973655642
0,0290084983239543
0,0157195560486764
0,0247381901146536
0,0164390557416796
0,0244282682854121
0,022299908632646
0,0240291599435439
0,0196062257784705
0,0227115455460414
0,0198643210225861
0,023871933820399
0,0219132633250364
0,0202461712030787
0,0260061250570906
0,0220641510044529
0,0246485964092124
0,0250927116413482
0,0205405657133926
0,0272716631149149
0,0216110301576285
0,0257972641667257
0,0208610392625527
0,0241924650234605
0,0230058462409947
0,0234030119532452
0,0257256948993136
0,0266392691790764
0,0234861324022065
0,0290788393069593
0,0224952366739168
0,0290386558433449
0,0235826112068663
0,0280846924460612
0,0208824871844866
0,0320430572838429
0,0199367512774416
0,0335408267868048
0,0236002540909863
0,0325091778896804
0,0291319287094714
0,0279979071551448
0,0270252989010957
0,0299677907174414
0,028487814964413
0,0288992747669976
0,0303632331437289
0,0318741892923198
0,0282074404017461
0,0321272694937206
0,0319902990088675
0,0279813849199221
0,0356678727302276
0,0305937908496824
0,032079661437474
0,0348595295809018
0,0327745480976413
0,0334110299340495
0,0352199163196086
0,0334098370019699
0,0368656780644814
0,0347873016576696
0,0350373809005366
0,0330227519221964
0,0372696522608641
0,0381111686111453
0,035113164358657
0,0372799681347692
0,0361423579153882
0,0372824332095041
0,0378151770456955
0,0416037867286254
0,0445524669181613
0,0413442673238223
0,0482265471763994
0,0355018229704633
0,0463253044877202
0,0397441211991348
0,0441711099942273
0,0439006077133942
0,0412282144934479
0,0471373326973469
0,0424326706979831
0,0465871144951421
0,0444850347067492
0,0505760433516326
0,0521619940737473
0,0451111857622781
0,0521533809315268
0,0487726559193178
0,0718471329577896
0,0251111303007374
0,0705492443945286
0,0523776703894063
0,0639659119706299
0,0578625692575012
0,0636714533209122
0,0651188888421189
0,0648495961412502
0,0639424073240765
0,0686072627737994
0,0678413735937582
0,0732765478252855
0,0746489768995996
0,0776382385714709
0,0772341537738559
0,0845071460103331
0,078867030273804
0,0980555084224375
0,0972891140596775
0,0902222604347535
0,0905931898012728
0,0963027401036001
0,0994515852150231
0,103440013021303
0,100001465597091
0,106199499419055
0,110514287294613
0,11378695145141
0,119007452648986
0,113744788185666
0,124331801160519
0,119035915181935
0,132821290695184
0,127670087001817
0,141038261217488
0,127984698202457
0,135302583910924
0,139471530774705
0,140453869151733
0,148027957021374
0,144044608393744
0,154499568951756
0,145848766641313
0,151469278609685
0,154527949690215
0,155142075975038
0,161899526801564
0,161676925697565
0,156576218207443
0,161544325649379
0,19907363848186
0,161289702422359
0,168696903340895
0,164807183476132
0,166267488509649
0,168045877659827
0,158567522937153
0,176369855124223
0,165179236065736
0,175361947655451
0,171269364337595
0,164891560845234
0,170447074671861
0,165539707953113
0,170802723774408
0,169173308327389
0,172242415539947
0,164087780659201
0,174154066010679
0,1671979564529
0,175815944842127
0,171983297634735
0,166059260617811
0,169235562188255
0,165153619030051
0,166511630878828
0,164027435304766
0,170161952157109
0,166662884067875
0,167480601041328
0,159919265669185
0,164786585146731
0,158656948908438
0,16450302625813
0,155779148030789
0,155484552090258
0,154878185737813
0,154717093677659
0,156458316452362
0,154794169832865
0,157886368555321
0,158835084747571
0,150180133992031
0,158472211103973
0,148966778256345
0,152890634813232
0,150232245359947
0,149763838647737
0,145408375085514
0,156023172638706
0,148816903314975
0,153592107215588
0,148235416241913
0,152465401476028
0,149695537711631
0,151203281449729
0,144382454374573
0,151388457392786
0,150296154931216
0,151781929511319
0,145556544329115
0,154187800848426
0,147492062033137
0,149425844257286
0,143436936344973
0,146906690242638
0,149600538475
0,149342569955968
0,143438272518017
0,145493282590887
0,144820596816342
0,148924492683903
0,148582710992133
0,147692795733013
0,145776287299124
0,144772507000059
0,145547435668174
0,140731339121535
0,140631285168445
0,142295064599991
0,140398395679822
0,138476472232953
0,14066455295667
0,142502326277683
0,143331216343306
0,134655913054986
0,134809779352042
0,137405965664136
0,126320314740952
0,134833460253938
0,131624769084348
0,137118063072224
0,130318810092867
0,12715999782446
0,125582747136419
0,127484579743776
0,121555505178946
0,122376142211923
0,116970343941006
0,123382665519767
0,114834059731138
0,119470247778945
0,137971770664548
0,126101503980568
0,114591606423377
0,112140842270357
0,116128224728502
0,117358240870384
0,11610335341209
0,107496066808764
0,110108965318471
0,104541122713123
0,110514753658462
0,111774367528177
0,10644726444309
0,108087879971855
0,108145723102773
0,107845099251006
0,103802800332681
0,107613513076617
0,102410288987598
0,101316699192393
0,0980430159487292
0,123597065276216
0,100979134275719
0,1017370158599
0,0987612099121198
0,097340557946332
0,0998644406435037
0,0917938920909235
0,100830778284327
0,0946061633698324
0,0954763701290323
0,0929702631076673
0,0964079770802528
0,0976500549111842
0,0915605027884614
0,100863250654993
0,0802676649590313
0,0993521331671221
0,0836665905923665
0,0992383249036278
0,0885602031945658
0,0963802028589349
0,0904355438303068
0,0896198169941195
0,0939552768470639
0,0930463755840502
0,0904879600175262
0,0863430032532036
0,084096045618304
0,0877689303277796
0,0837262796396513
0,0862317394010733
0,0849137281524052
0,0852232168401626
0,0902217633968112
0,0937526220227457
0,0973521242904587
0,0927498240298825
0,08749070219394
0,0891561507534751
0,0830672695482136
0,0899291384848355
0,0862057938862573
0,0931826468405111
0,0843546194758369
0,0934612020326956
0,0959307528164733
0,0969671254214481
0,095616234975473
0,0975617730874985
0,0968982524719041
0,100864193112849
0,0949161175613507
0,102159232998857
0,103883183843221
0,104796508108038
0,106861635285578
0,107068956692644
0,11175069326803
0,110453909125072
0,113829063160941
0,115277185520751
0,122242232689031
0,123049284179989
0,126824009053495
0,12746936057354
0,131232838387671
0,134724242797865
0,14228277735323
0,137472574241185
0,151201782589688
0,14717851110082
0,164933234110271
0,158371345559974
0,16168219605768
0,16717605332484
0,167561709572431
0,168338526868347
0,171380093031097
0,176356247171338
0,186170048060985
0,178519277338958
0,19003715753722
0,190910889266938
0,195242158073384
0,192331929786394
0,198065005317073
0,202415461403277
0,201018157118682
0,204780408800144
0,206123316600319
0,213262014191596
0,204675723353086
0,207071237796222
0,208657776346185
0,211089221746095
0,209460625470412
0,212553902982976
0,218206076936195
0,216181748004815
0,218128003232077
0,217403881716659
0,21726104780023
0,217541637710478
0,21759417789686
0,224281177594796
0,220315755442947
0,224957036767513
0,225404706016358
0,22572457935496
0,228026289506264
0,240423781474357
0,236227259506689
0,236125133584695
0,237539571920868
0,245074036094013
0,239156319850737
0,247898224486094
0,24783603324995
0,251840759200898
0,25324278107927
0,24857192338574
0,25125765314904
0,255045358059701
0,259332112224415
0,260081558334521
0,262073457793466
0,261266811000814
0,262752215138545
0,277203865761599
0,270385966969334
0,274811441065532
0,265935314979732
0,272407996439886
0,262402159805608
0,273826589036465
0,265165339527683
0,272777685041626
0,269875976827058
0,274205895387099
0,270900348848691
0,269153718455952
0,272635244923799
0,269434597045704
0,266824941079441
0,274299699528837
0,267786198502492
0,266366465647328
0,268274582106051
0,269174053003366
0,261821917640074
0,269919788240242
0,264613277360238
0,268821686667827
0,261285088283775
0,266483265706673
0,260984569202024
0,265312716852307
0,257774520683551
0,258994457580612
0,260516245415604
0,262684605368218
0,260563483414973
0,267949748892221
0,269089225404555
0,268183213328272
0,263512355112073
0,270815179088239
0,26758229026285
0,271729818419541
0,269908311281913
0,277689201309697
0,275425348885666
0,282446068939899
0,277078512350702
0,280560503003255
0,27831882119988
0,279356558282846
0,285263567629348
0,285243775239085
0,281629862837305
0,282408448197558
0,282874589394827
0,28583113349666
0,282557262519452
0,280388271177954
0,273113278884064
0,279619365253419
0,269446048714002
0,276377454750239
0,26699985096517
0,271227513344371
0,269943474138717
0,266929444931374
0,264680681891915
0,265102425310552
0,259401067788158
0,258456430623127
0,258734997460744
0,254516339021702
0,254893858491699
0,255779589230026
0,253865956874923
0,253056047327935
0,250037083769152
0,253146180580347
0,244830172064696
0,248832820160318
0,245464360945713
0,247058076464631
0,248985291402385
0,247567658167019
0,246117916444562
0,245551709509944
0,247942147263161
0,251715743179062
0,253659960012747
0,245216858128236
0,246385966569538
0,246435504726125
0,245339163946183
0,242334846630654
0,244335493142458
0,242578698550966
0,241531854190292
0,241877700170976
0,240391245687976
0,238511618634963
0,238768028363885
0,239550331856302
0,236004721521251
0,233514348992707
0,237287582812893
0,231853780870839
0,234005226360585
0,235217736361673
0,230825483961412
0,233478527031038
0,228990051812144
0,232387921007117
0,230541293615789
0,23096894719259
0,228151152095111
0,227527658775255
0,226446303440515
0,227202435608262
0,22667146404813
0,225697055585071
0,223819936288445
0,228640483698608
0,224845795253191
0,224653910843569
0,225426483505351
0,221965199468445
0,220504577701439
0,222191209656331
0,221609522212734
0,216113700612041
0,216387584141245
0,213973807723544
0,210039266986179
0,211762257416911
0,208337969310531
0,207705333689543
0,204616103908681
0,203109822515791
0,201223160026173
0,197150182881403
0,195641317404614
0,195606376891262
0,194897262003391
0,194178472820741
0,18993904030293
0,193293043782284
0,19027945695426
0,191538003664388
0,188855041939411
0,19158020386125
0,18926446601551
0,189768506311405
0,186211461514441
0,18828599860827
0,19189873096944
0,192485302096426
0,191917892655572
0,191982996337881
0,190050419093512
0,192701124792333
0,193744902526285
0,196586341730148
0,192893894214039
0,196511559103092
0,197451916802061
0,195578844902089
0,196252658334748
0,199399595583085
0,198722460352853
0,201372648709484
0,200282000542918
0,19891451484901
0,203787613005153
0,200753367806493
0,204406725595368
0,202083891480662
0,203435443329044
0,203250394553744
0,199450310066964
0,20069673332238
0,202511374803147
0,199399696297069
0,198980167171025
0,200179694858963
0,200158263149025
0,198219775558096
0,197881274437444
0,197915829331265
0,197722126003323
0,199177432179258
0,195693376156261
0,194997090379447
0,19513527219726
0,19434469994634
0,193968937637114
0,192354842815928
0,190070558382967
0,192491582321241
0,189992122332146
0,189580218150015
0,188671018219489
0,190464127479519
0,190468285747257
0,187692997088984
0,186395765517712
0,187587531430618
0,184811231078051
0,182120195624623
0,181480464327249
0,183860497993441
0,181795118683424
0,180585453291775
0,181962093263329
0,179066839856581
0,17750448363817
0,175855954573982
0,173958807103847
0,173202554120292
0,171795391676999
0,171589450866636
0,170600691895534
0,168369816672383
0,168547568979916
0,167478870215041
0,166636101416629
0,16421421776548
0,164370335623338
0,165640693048569
0,163805813198842
0,163769149011071
0,16567860570438
0,163199126757238
0,164665809136923
0,165235141943035
0,163684903532533
0,161984524142788
0,161413882682627
0,162771967818951
0,161134669891427
0,16282844486814
0,158714907575114
0,156584076479773
0,158303695651516
0,153062301778791
0,152942181336549
0,150055105542605
0,146796760475058
0,146217425403628
0,144292151707351
0,142699273412067
0,13991158472642
0,13822355059095
0,14051157999385
0,141173394460595
0,141657211912994
0,143547104498082
0,147068496237624
0,151703921062711
0,155933934075336
0,159423024995062
0,163769979840955
0,170410190454837
0,177283787400067
0,184616710106739
0,192692298522547
0,202648984412457
0,208616022280417
0,217661919292086
0,22947375587816
0,239007467801454
0,25149098401842
0,260082699951745
0,271406573318838
0,28238456857583
0,294855704385767
0,307619341962735
0,317645566769126
0,334143278341217
0,344008834422404
0,357261804360099
0,368265659333892
0,380801476510385
0,392645843179989
0,402154161449138
0,411855029304676
0,421633258044845
0,430845341258326
0,436115442284994
0,44002534328558
0,447552610452895
0,448651578095962
0,450322178799672
0,450942943491384
0,451212948579236
0,449935598500206
0,447920413709179
0,446739101576806
0,447508381612161
0,44123105740618
0,442444780428072
0,43651990644275
0,434581796823905
0,431818637667609
0,430166523621843
0,424725577309846
0,424658571955188
0,423741724180473
0,424859264996216
0,424812406036438
0,424679506944189
0,428939310142811
0,435563471942941
0,432579712585623
0,440787703969351
0,444461593488023
0,449623967515482
0,452603761428389
0,460761224837986
0,467331385245397
0,471883626976366
0,477586171507049
0,482058352822518
0,490482845288766
0,491888265917102
0,498960743192985
0,500005374868325
0,505227744584401
0,510861457537257
0,510397830837215
0,51566159549538
0,511822476824018
0,514012303782606
0,513599743363131
0,519241304747989
0,51924840205767
0,515458652202096
0,517083350281071
0,517836900650658
0,521477185323623
0,527178649357952
0,529156210353661
0,534401771603907
0,536751348907175
0,546561833205879
0,550308185497329
0,558260430537146
0,567914369002323
0,565810031920942
0,575797107743474
0,58307702589631
0,590454571967063
0,600071163033188
0,603150208825064
0,611540893970995
0,618991384612713
0,633360652611792
0,645528259577783
0,655189943685407
0,669818870813882
0,678083376699375
0,697531443934442
0,709837961697141
0,734900660094004
0,755390147799778
0,770007883817792
0,784534864171333
0,79563550222808
0,807648038360256
0,819378104831547
0,832629438392202
0,843472415701873
0,836300317426071
0,8505189155957
0,849932093734649
0,852337258982344
0,85174065149185
0,85431320776458
0,843721215369154
0,828933561065244
0,841873352866165
0,832196304537247
0,835563194416926
0,828073709484396
0,820817533008903
0,826016834918709
0,823570392423489
0,821217966210765
0,821893796006205
0,835496590498308
0,837917376181645
0,8467171825543
0,854559285284544
0,857612214133049
0,866779799672828
0,878217840181606
0,890228842464441
0,90856882044246
0,914763591531422
0,917867216021977
0,941362734838548
0,954069677789343
0,951708810960074
0,965837853692729
0,973481919884027
0,992827009331462
0,97364456341028
1,00629944605766
1,0181669859323
1,01637318417836
1,03117826525823
1,05822853688135
1,05882885316547
1,06429371303207
1,06589565463748
1,05923003114234
1,09470132215528
1,10445215569762
1,09578506374247
1,1016077301412
1,11676685320133
1,13077945441143
1,14404166503496
1,13915800280273
1,12886119097202
1,13664356164694
1,14833382171046
1,12135141428234
1,13857514571329
1,12978673261314
1,12935999408188
1,11966423501932
1,11015886205329
1,09812658397547
1,06281291132276
1,06194298316886
1,03363121239673
1,00642865978372
0,964880230189339
0,950674864357001
0,935063677560891
0,894422113522482
0,861980060336885
0,834117376802737
0,805204018762862
0,776616067370161
0,76163600547934
0,733913216638639
0,712058354835867
0,701185784152166
0,687090393286469
0,676885344079979
0,664452527487849
0,654567958682036
0,643276623294813
0,635078341100512
0,62049966817652
0,605276375291098
0,596650487941889
0,583737472977206
0,566421491672805
0,558406973223958
0,539099088914826
0,528496993050387
0,512488835157028
0,488082654237319
0,469512992625554
0,452878111121887
0,43216477229701
0,411182984279604
0,389975497937899
0,366964295533279
0,35101729926307
0,336816762834966
0,315047556057507
0,296025272365067
0,280678024242683
0,264657695248507
0,252018233001681
0,236870312667678
0,223407993665465
0,210015818274352
0,19965001978856
0,190601609231892
0,180489129895293
0,17287908016191
0,167663305857152
0,159208058680087
0,151162973628818
0,147954053593665
0,143173793365991
0,138448377629918
0,132660523929791
0,132175983163803
0,129386412656227
0,127554185535331
0,126837904960808
0,123610754909801
0,123983274349404
0,122878946222486
0,122363554164065
0,125686832395939
0,122415581170072
0,12586809947973
0,128613719962008
0,126047909004514
0,128877120916642
0,130913718014452
0,130706069369182
0,131699318417671
0,134721215842084
0,138891270006402
0,141634478864354
0,140904982450578
0,142350160339104
0,146302724985833
0,147377018172866
0,146764289085132
0,146598541667615
0,146185102959279
0,146733167143248
0,148483916374937
0,145212228218819
0,144985541097626
0,14929217222419
0,149796031880104
0,147977332777828
0,1509012265908
0,151131820306335
0,150654012816094
0,156200891966921
0,156653425714925
0,152696628651912
0,153720673340664
0,152914509196536
0,15471571354794
0,155644208247287
0,154899644033499
0,155869524349996
0,151817778885407
0,152262708404685
0,154787053554072
0,153146170424754
0,153830298318857
0,154377153911639
0,153102761953007
0,152372655107107
0,152665176619976
0,149234338079156
0,153194221342943
0,153211863208242
0,152910486043845
0,149666538659264
0,150232831364159
0,149510719036563
0,153961984022677
0,162898604999003
0,157412678586617
0,161887808024163
0,166909458905147
0,17097097854623
0,175837855589815
0,17617039792158
0,180005832393551
0,18577818218057
0,189213508883612
0,187936257157689
0,191279352148378
0,184506192313685
0,181673602984805
0,181986008657107
0,178496049852256
0,174601824879613
0,175285683526284
0,16727962610362
0,162531439616266
0,164906401200801
0,162712210123581
0,160823045867436
0,158269087913681
0,160026936752998
0,160449142978405
0,161432339434225
0,159978722546034
0,162367336192137
0,162541650672821
0,16044312840353
0,160908315771601
0,158580076160291
0,16154937745008
0,161420646594474
0,162288464970693
0,152707691853713
0,154157909857507
0,165084842212373
0,159555537724152
0,155027770391742
0,160907116964112
0,155761119731182
0,164482737087991
0,157969205018983
0,152576027909361
0,154408638060351
0,157923192700054
0,158335736862257
0,158598866346015
0,157341357955558
0,157401064397056
0,159322968795304
0,156762609271596
0,151815302406165
0,156663662798168
0,150287243918425
0,151279832042369
0,150076436859468
0,150124854263927
0,150961596857932
0,1540782240723
0,152862564981411
0,147782133977514
0,14135514470542
0,138792296350316
0,138613314259423
0,131503376218789
0,13991544321928
0,14337407856822
0,139716899574699
0,137308326081775
0,135166660478718
0,138295292552805
0,133404765882769
0,136198032510299
0,128620253489694
0,132834085428218
0,126654309990844
0,121212251624369
0,128650021799666
0,128474216847361
0,125274312062485
0,123099674105478
0,121412696886485
0,127219418669346
0,124190269664802
0,128227055227163
0,129849615276688
0,123874452391014
0,133304984009348
0,131758210814004
0,129248830804547
0,130240917575518
0,128358213486919
0,1297157950928
0,132213433524814
0,132012300933833
0,132203866227275
0,131399261545327
0,134753521089082
0,139093239358916
0,141040728792988
0,147963364253894
0,144907339794959
0,149363854855177
0,144284946451059
0,138854340469408
0,147461452293674
0,154871571868136
0,152334816113641
0,161770093923246
0,166693480526244
0,166021731584922
0,176711986711789
0,177261691381698
0,188175659340473
0,192311353186252
0,195278785024676
0,200777886585241
0,212949539033808
0,212929777537061
0,208525596889475
0,229858696990434
0,228697771264627
0,231952032652729
0,231691478619789
0,241690757686752
0,239482443916536
0,223747468612073
0,233083243256095
0,244334240970876
0,241450342796968
0,237006535934193
0,239813554904329
0,239485859510313
0,235061898667786
0,226887312818861
0,217709053715769
0,242344692991874
0,234029240773209
0,238503681946498
0,243303316983347
0,234193197301104
0,236894220212822
0,230627825577058
0,241239810338748
0,230959207998324
0,21976561564041
0,237469127000933
0,238890342545202
0,242081558303305
0,233985164182577
0,22702247303797
0,221955806244545
0,232236903205034
0,228403507365507
0,235153817550662
0,232459274455992
0,20489708133827
0,22105289695029
0,216450217464782
0,199967988950376
0,221446746805988
0,218430752832633
0,228036860579754
0,213582917117041
0,201870681671604
0,215008933635049
0,203130007755182
0,185247539245825
0,197594132768679
0,200153919801377
0,215724840781983
0,223870943035535
0,218867711847247
0,219157996748137
0,201698335480159
0,196135661633894
0,209611035302307
0,220557355929779
0,224396048278948
0,207041949794666
0,215799140829132
0,216734936103216
0,227130426369657
0,235226778265396
0,207272864757228
0,216586242616641
0,235879790609396
0,207872490500058
0,239951695353007
0,239483049099277
0,22306448797831
0,256526573417231
0,244978214137858
0,218263047445343
0,275768785512729
0,264321042608646
0,239699429782816
0,248505240596869
0,243530441582711
0,262606271313535
0,262173567883575
0,276389168223558
0,271124802591746
0,28065900965485
0,333322752545576
0,325606390509636
0,280247672313316
0,296371808987143
0,315489000860706
0,291060192785937
0,339226471886828
0,306155091531551
0,286206931486812
0,331244114215962
0,316425268648085
0,289807674801561
0,286287028378001
0,273873777597842
0,289599608206983
0,283429263099966
0,278091062388284
0,268635181116675
0,271697635630326
0,299440393141814
0,238306944064624
0,246446568644888
0,303905309689614
0,254416022126824
0,26175601280709
0,27048299718453
0,250034175911533
0,230786617532257
0,224278280007071
0,235696972342727
0,244127681574009
0,256757095362569
0,260903379439755
0,251675853469172
0,313676050605332
0,366381064289382
0,225452328223988
0,242857051580456
0,277109466641037
0,279903221279933
0,368013245428557
0,271234297257394
0,261753041153466
0,338898052804727
0,263485435122218
0,264382729794561
0,199668227330882
0,163968065230567
0,331354599935867
0,294805966931613
0,304070318618816
0,357805159679808
0,259276168061367
0,30151548464895
0,344525321034221
0,218887684871404
0,232613315576886
0,219551131978723
0,18165239605089
0,293221006401709
0,294560143069687
0,294757975500938
0,415438399585393
0,251428256680322
0,371918470122789
0,421899503638006
