3596
4000,36533379555
650,420452594757
1
2
2
0,0544758223081137
0,0341120215575419
0,0529898893959116
0,0404180159668477
0,0569631395839688
0,0384331891135527
0,0526400392436873
0,0307306581950144
0,0524926115479732
0,0395992896282749
0,0544900180232663
0,0261876335862227
0,057755061032403
0,0305411714175704
0,04945841750609
0,0391868909691114
0,051286395284608
0,0356793717362583
0,0490139793503582
0,0368081102053628
0,0572763836416113
0,0412803614127592
0,0503933076531232
0,0348364055772758
0,0578496451461025
0,0415465676005935
0,0508687715844234
0,0308902594964889
0,0550329386631387
0,0414793084362773
0,0512920747484805
0,0391772462028205
0,0683472944181452
0,0429530693947185
0,0555795268811631
0,0367553663379232
0,0524303595580229
0,0393226901635307
0,0474890755172741
0,0384402487537288
0,0557323100629534
0,0384421732283725
0,0507616750450007
0,0323297950299766
0,0536793524455955
0,0416546286475969
0,0541622534793499
0,0413935797108308
0,0399722861416213
0,0407738970755613
0,0520719289756103
0,0372394646771244
0,0530791145898409
0,0472826536535997
0,0616284928314925
0,0439979658037391
0,0568908139383615
0,0349126010596801
0,0462863707923015
0,0348441259422763
0,0627657697317552
0,0399455929203749
0,0494393822022115
0,0382519068903414
0,0500443959774173
0,0409884675951302
0,0510542713274438
0,0353938746490295
0,0591525765632291
0,0355737369529969
0,0537883095471952
0,0388564295945322
0,0619009599525781
0,0408887416771425
0,050369220614088
0,0410582214854713
0,0563468407989441
0,0382606371078368
0,0465393857451026
0,0525617575156606
0,0622024676573885
0,0432240887098732
0,0519004250982576
0,0293805522884825
0,0603250640516277
0,0523325760869036
0,04355685715017
0,0399018532845422
0,0668526315522523
0,0512037776151791
0,0511798275833676
0,0381399418963569
0,0454414811852597
0,0297706142176377
0,0527543301477212
0,0416601990387548
0,0443768004022684
0,036358008437629
0,0482953280156738
0,0439979509986742
0,0500133458731669
0,0426218139467565
0,0736585502448064
0,0306025656405236
0,0929036732709148
0,0349865754599914
0,0470633607336492
0,0603963086430794
0,0707463955378242
0,0457384267364186
0,0508516607379991
0,0345948058268735
0,0506598261741763
0,0446993364253026
0,0384391725777443
0,0517207507973239
0,0801052219659481
0,0444451702884225
0,0507188266987975
0,0325191619519454
0,0304131693882684
0,0403119730919547
0,0802467449968861
0,0362079693468249
0,0612383225268777
0,0312478057287473
0,0409360463978196
0,0590906891562722
0,0764473835057838
0,0414157167677697
0,0497985260512306
0,0414155366578981
0,0421040235889977
0,0311322352650492
0,0862479390762941
0,0387718743847326
0,0462811560647628
0,0177220084902592
0,0731186896096824
0,0752197221570577
0,0696752640895709
0,0373049271592227
0,045629851455444
0,0402376628012973
0,0725502586994821
0,0506802596583781
0,051345638644811
0,0529731937393405
0,0657466802276745
0,0390563766404171
0,0461153832260112
0,0222538791464752
0,0718319533379956
0,0405767961399362
0,0231961526787544
0,0681355401604954
0,0923294278074622
0,0502489815067016
0,0948657278906168
0,0379436530232684
0,0629778887492918
0,0417291603239162
0,0433102885027847
0,0386754066450987
0,0505575434196472
0,027937610480259
0,0537693382953372
0,0530773218423287
0,0464211457035939
0,0242001224311799
0,0790156373670216
0,0397239502005505
0,044652595390144
0,0874908469943328
0,0592884399485997
0,0334190457909811
0,0701393002242518
0,0532851803280368
0,0369824365059246
0,0350291548123017
0,071013619779334
0,0364878949158213
0,054158328185698
0,0347241993670961
0,0482451561468527
0,0538113173858476
0,0586879550084362
0,034615608938617
0,048014008569356
0,0311641145489778
0,0610603303623806
0,0718428564046919
0,073168354811342
0,04721100881343
0,0526769473399536
0,0119046421788785
0,075770020662119
0,0534451619383607
0,052438833309554
0,0372755945043851
0,0537881255944694
0,0284461803678575
0,0450969790900164
0,0341081508059334
0,0416247055334331
0,0182829539029538
0,080131700661854
0,0544449133524057
0,0499878691121504
0,035740425351678
0,0499328950551349
0,0117531270343969
0,0958791285998188
0,0629874626345454
0,0595479735463042
0,0368246727566457
0,0444582607907935
0,0489654232344994
0,0678517498102354
0,0349085391425628
0,050250654039928
0,033624322728039
0,0446852235975822
0,0338283407971034
0,0412218792354866
0,0386369378967482
0,0501570449432541
0,0389378724510126
0,0501831918846347
0,0311664675267572
0,0580798833248045
0,0342248379811705
0,0500217699450601
0,0369908523160815
0,040289853831066
0,042512442503114
0,0689060683911183
0,0399038764754117
0,0527895527271367
0,0322236177126986
0,045237855353292
0,0318275586807103
0,047439758997029
0,0339501456612991
0,0478755090419013
0,0205648104526074
0,0701892608460928
0,0418847525769614
0,0587319614259015
0,0249695518179692
0,0633240932977601
0,048160939056486
0,0535979994359395
0,0338069392280101
0,0568714138331921
0,0307206506976211
0,0507642682249232
0,0600749452364279
0,0621041239066858
0,031962735666684
0,070608890056268
0,0429313482164255
0,0443158739533928
0,0309008271654819
0,0328044905145156
0,0899833243533967
0,060051042979968
0,022823150903312
0,102005613915701
0,0523144355065827
0,0623762779294912
0,0295175963188065
0,0182547278845539
0,106553801923259
0,101097204028738
0,0393704100382877
0,0530786918284498
0,0604923298155314
0,0469844149022509
0,0391722122078362
0,0447272367110852
0,0427268759917633
0,066768892974235
0,0647593422576562
0,107917764587005
0,0264151333942063
0,069897353289633
0,0565565187436071
0,0580001733297917
0,0362260694407984
0,0526440671279149
0,0262709987415738
0,0647169316075995
0,0450214440704189
0,0668258601996747
0,0382120769120079
0,0486373035503999
0,0559254777389456
0,0559978108111932
0,0377983096556049
0,0484421560691904
0,0498152237411584
0,0530833054553011
0,0366258939341691
0,0397468922669671
0,0435827455756145
0,0394243950578152
0,0248530026353405
0,0941176715484944
0,0467762506153388
0,0431368913827293
0,066437049691426
0,0559059019032792
0,037742430857281
0,0463829245998519
0,0454579983871562
0,0534792986205855
0,0328426450532948
0,0384133729535605
0,0498286834800781
0,0594520411240894
0,0384382643809118
0,0525952176457614
0,0299354858647766
0,0469327936352806
0,0396378487387471
0,0533751366429953
0,042299044568042
0,0518906208724611
0,0198550914030396
0,0623469396991855
0,065472684084995
0,0371419591095891
0,0571240676263779
0,0835174746904517
0,0438944666244
0,0503096476734669
0,047619081858372
0,054131202640443
0,0350890309482373
0,0530838139785575
0,042996181959017
0,0490740251915197
0,0526322344557141
0,0595257754751409
0,0378115891610113
0,0442904432901134
0,0508926301761176
0,115549915705204
0,0539960511890365
0,0532887574922817
0,0194517165522315
0,0799156395602969
0,0627813239098013
0,0730805191462731
0,0663788705871237
0,0537783235032544
0,0493643297231631
0,05110723057445
0,0428220456949731
0,0525071474686104
0,0418742607509522
0,0548098741374796
0,0476764591790617
0,0525377707115739
0,0461972623403985
0,0404989166910609
0,0354120468799696
0,0983017169537337
0,0539325075479501
0,0581152059602146
0,0486308528621638
0,0458679404073722
0,04677252160863
0,0708125521875015
0,0739761325310546
0,0814706868609359
0,061092452322268
0,0976530387263558
0,0518253787752035
0,0726827652785224
0,0469845182503491
0,0560310423012551
0,0538680608572136
0,0642787178155481
0,0544354903140742
0,0618780846233438
0,054231763683981
0,0678990229415415
0,0524216118848835
0,0611328852827586
0,0426256446298586
0,078414973097711
0,0603761770424332
0,0722178971706657
0,0489768441031509
0,0683358138651051
0,0853061086515628
0,110399561259277
0,0687052668291007
0,0790358758800782
0,0598663899077518
0,0719301333637484
0,0626408256127488
0,0761840631526348
0,0685326204169443
0,070657300917248
0,0809435577765376
0,0797970193623614
0,0813549073809855
0,0911545583624784
0,0558081532468643
0,0927607828047921
0,0753543937185176
0,0915350957861384
0,087740689838714
0,0904391743950127
0,0552277024519253
0,0947124326319787
0,0804070025368153
0,0811194756148442
0,0890434445570103
0,0910928145753104
0,0758092367816376
0,0850379346951303
0,0808192424121967
0,0848493543527003
0,0827567534625707
0,101956260544264
0,086850129762851
0,0926312746515393
0,0874797659484384
0,0955681986250604
0,0951391490331545
0,100535461417205
0,0806419543502687
0,110187143846777
0,0796996743078006
0,107883333286784
0,0701146809712006
0,110741186212439
0,098066235769353
0,113135201643614
0,109649612187991
0,105582926002214
0,0925976094707528
0,113309060372017
0,0905610341129331
0,10402671897041
0,0938405630224214
0,121166525543224
0,0970883713152783
0,114268744637182
0,0991952156418603
0,111314217613846
0,102839099647226
0,109025563210001
0,104347147063287
0,12463387456258
0,100849768128272
0,114134358199498
0,111471912561572
0,135211249315883
0,130904649783037
0,146480293643605
0,121833434368692
0,13954818272304
0,125036077213334
0,126486969999234
0,120421272309506
0,131145491934858
0,121707561494713
0,142246087064261
0,117506155388607
0,131496724144307
0,128340458306664
0,141175049444342
0,121984333918469
0,141732631840432
0,131000882966801
0,161619491941921
0,128416633873932
0,1479101498418
0,127850152580658
0,159185717004841
0,145418240814505
0,159747085877079
0,152590850103149
0,165494353939207
0,137500200998507
0,166680347387945
0,130124364631453
0,171180812685582
0,141967685054349
0,160095663498225
0,144406149536534
0,167293044393251
0,142065962413018
0,157683532139066
0,141631118180733
0,170192124435911
0,145684467129597
0,173101437174893
0,165271454879324
0,176390200671753
0,166094010499585
0,18625755859806
0,163282255408681
0,194254320567422
0,172173099742755
0,194022790191854
0,188371278913422
0,191185028864372
0,169639831044176
0,194256201419187
0,173049978676494
0,174239096318272
0,172227039681817
0,201716993094021
0,180574026940373
0,199939840253195
0,166501350515539
0,196155894052636
0,175949414564723
0,216200482650469
0,187641825924612
0,219489932644729
0,193887886257043
0,214328802673286
0,193010284041555
0,216044643659418
0,200218361191727
0,222076951709415
0,190196928883603
0,233342584831999
0,205490592446483
0,221826671141596
0,209224926039266
0,221532234565078
0,196227810418463
0,235189600960477
0,212510748526404
0,222011813827551
0,225254380675536
0,230679456062787
0,220922993926719
0,238689433595167
0,203922043553038
0,241301236771404
0,215344508949382
0,238394061260919
0,231777215395543
0,245096621259398
0,231503023985224
0,248311169601793
0,229715748701222
0,257845905609865
0,230637517528803
0,258810501350628
0,231779598498692
0,245563943869568
0,234544518019793
0,263006413240617
0,239963796962103
0,267413909069931
0,241764384099814
0,263233705163581
0,242655268976119
0,258093648646549
0,250041860764783
0,267515233556921
0,254977911923186
0,277888200328037
0,248150618421518
0,272136714128027
0,252762779879817
0,28565531269934
0,270493598211866
0,275967710577905
0,261279271082746
0,274804350077285
0,258651613540383
0,288172877772327
0,273765083023589
0,289661566764028
0,273083336952128
0,277063530198043
0,268495147025462
0,293617771603837
0,267778711681739
0,293753285851991
0,273694431566284
0,292323541649114
0,283010940704911
0,301717678804474
0,298440209048523
0,309658971918506
0,287921575460357
0,298943757200407
0,275987331193061
0,303706390930439
0,292669086117185
0,309819804792219
0,280864117386611
0,299734136685099
0,284549890923775
0,306510016360748
0,29584580268245
0,308726659923508
0,289797431304256
0,301186803225815
0,299278698418591
0,310550265753159
0,29877955955344
0,325992013726062
0,300952584335164
0,315656411474726
0,293581713007313
0,314164442834726
0,313402322085023
0,316218474156216
0,312634045085426
0,338198458982206
0,302333965487696
0,325697025812834
0,309098688049113
0,322592850338397
0,31949704936373
0,33119486719522
0,307565007681805
0,342215804839781
0,324557680474899
0,330102535559104
0,314595464454403
0,325604045931592
0,320981961393099
0,336740432747699
0,316607150366088
0,336259002763959
0,318134906058352
0,332840597727035
0,319785940711786
0,342665179961586
0,31830738619256
0,342527739205737
0,320199346768188
0,337965776078391
0,335635822426865
0,343770668415343
0,32575279619174
0,341389243698892
0,332018909003495
0,345381552122112
0,340237445649001
0,350527841017616
0,332794770770205
0,35046661713564
0,325466024393935
0,354421718477033
0,343416784390419
0,348849413057768
0,339981107883155
0,356431816217818
0,340768886392702
0,345667955336172
0,336427555682933
0,358464375144319
0,337136163079264
0,342671095205769
0,349199872355693
0,377741483069929
0,337981353783367
0,342730995003278
0,328634779528496
0,360279741069618
0,335601264499569
0,332929213285327
0,333647780306568
0,365889653183359
0,341498137715899
0,359632922350138
0,337369968199069
0,349741485252327
0,340705628175257
0,354000811267454
0,342559560187348
0,36222161328538
0,339464681730319
0,353242818450913
0,338595609566189
0,358144087728121
0,337666157549635
0,360020859617008
0,351874328925891
0,346742245703156
0,332833916197524
0,355559173756094
0,342448337060769
0,362369867439512
0,340596678212838
0,35043764549062
0,342736628692812
0,363430289712145
0,340442633729673
0,361994906596546
0,344748448906935
0,347022453709047
0,332331449775424
0,362240643398493
0,34475535872817
0,35304309421382
0,340515797654337
0,364210960418789
0,347574313164016
0,36254748902722
0,345828665148277
0,348413487293755
0,345285911134177
0,354419787653768
0,348461714847738
0,349171062694539
0,346800142969994
0,356073751874756
0,334253530444227
0,352596849620155
0,333426866226051
0,345045669583775
0,332527435740375
0,351896028315462
0,334693812445479
0,35445759393652
0,343378927650615
0,347917117674371
0,34574469725501
0,346778659190932
0,345197712020414
0,351394398947263
0,33933397052421
0,351357834329097
0,340196294212552
0,351065561516854
0,331565709689895
0,343831120493347
0,33360707066965
0,340812559813922
0,327908128072063
0,342091882555004
0,339106396628601
0,34289120939719
0,334219780451466
0,343299581915886
0,333849325522727
0,333675878404308
0,335388294543728
0,349415437678638
0,330605178941526
0,342624530674944
0,335490943990223
0,346793145044751
0,325721987349796
0,338753967032985
0,332563118354074
0,346254734140266
0,33491533830833
0,340850939174394
0,325937971384949
0,331494431934746
0,315877541360497
0,337799490406399
0,326631681284966
0,327277744467002
0,320577438641596
0,327106247951788
0,32544312550469
0,327622699781477
0,319665320567835
0,333209263214721
0,315645689010968
0,33418858115939
0,327893568700036
0,324252031689304
0,312776295596698
0,331412379337003
0,31864783738234
0,335741254495682
0,325075202401863
0,325225756616784
0,311572679259471
0,313918066808273
0,305119159975743
0,319753685931629
0,311344509656332
0,321797226043859
0,309771800814534
0,312885330879456
0,306949171941603
0,31162919792725
0,309296027831073
0,317855646594829
0,303909993149646
0,313979986559236
0,298796918693262
0,311310272873975
0,301252961544623
0,311785930427208
0,299873963052578
0,311602612993113
0,303545044742732
0,310041067257579
0,301362316989098
0,30917575803589
0,293719274958522
0,303525227917622
0,296001395429543
0,294983004004668
0,288342065464067
0,304967388255644
0,284527134969523
0,295565800829084
0,292118584518912
0,292055749192068
0,281882745541729
0,289178562063987
0,280634497589241
0,292340994056977
0,284864279531109
0,295378888699636
0,282972750303105
0,287331002853592
0,283614468947523
0,283782294824238
0,277394977643842
0,285522002804552
0,27926981601837
0,281966641377938
0,274360283899245
0,281850957187688
0,277582030220014
0,279332730459371
0,266986343193519
0,288238374120555
0,271478442859364
0,272062388343043
0,262422173632293
0,277062530886637
0,264153208037582
0,272056751399698
0,262798474322172
0,263846820461029
0,259094789132888
0,26430501121469
0,255779803802738
0,26505453534885
0,252897785962718
0,269766257633828
0,254567738552017
0,257637316678709
0,248401155991661
0,261581240689076
0,248772826443972
0,255561753694926
0,257066364539177
0,262807306095267
0,23927257063334
0,251466078899002
0,245368376663889
0,249537128203117
0,237984618619044
0,240073011675932
0,236390772887699
0,252235294929287
0,243420906125964
0,244419749031959
0,240621567612762
0,239457812755571
0,231335684983053
0,237901835426529
0,228404467093307
0,234247623994958
0,232686818324433
0,236503403319705
0,223345244508243
0,230856911422954
0,2226655611604
0,230944736290778
0,226090311947032
0,231727451709571
0,220158720393227
0,225957233362356
0,217774923708922
0,23016404457565
0,220015347438871
0,22165776910432
0,21087137671735
0,215163128438262
0,214099328600998
0,217305571043858
0,207387725124418
0,212062078147143
0,207191346047251
0,215414871810461
0,209777953946573
0,212972796520022
0,209584673251732
0,20742059976331
0,206830651087072
0,208752906782435
0,203941383898994
0,204408236940368
0,20192821427989
0,204254512144453
0,195706608678073
0,203398329370682
0,192672706444312
0,19998852200978
0,197606736598923
0,195916866143227
0,188668590015548
0,198051056738922
0,188544142504676
0,193071586364861
0,193041296927067
0,191493328105963
0,182569262598997
0,188312894607048
0,17739017858737
0,194587508386883
0,188080331043533
0,187458337732858
0,17927019977204
0,186222751525095
0,177739204477551
0,185408617482979
0,181264528415245
0,182944358370526
0,178825989111015
0,180668805185206
0,174693111268945
0,178428009713025
0,170275954195716
0,168840733826044
0,1716199030255
0,177110198873819
0,165840869758578
0,173402429737259
0,166525542817363
0,172987729930509
0,169061502669274
0,168100745663645
0,158188199784991
0,167486548834992
0,161502231330331
0,165254657072763
0,162369381257218
0,163739191769623
0,158918596210037
0,159280272903454
0,156944932714359
0,160409170463604
0,154286923284099
0,15840321014732
0,154611600319506
0,156421761834793
0,150699884473828
0,153577376426372
0,153020258397668
0,155821521813387
0,148754721288667
0,153385723024059
0,149532860810153
0,151011485380004
0,144714207921215
0,15189962626022
0,146376117520912
0,148494458755451
0,141778701207787
0,145395062451603
0,141748433694575
0,15014055125483
0,140716490416814
0,147026463215388
0,139510412167696
0,141696984998112
0,139019800441849
0,141686254697553
0,137406756209869
0,138179504921048
0,134764691207846
0,137092685291371
0,130994669811742
0,136425013552674
0,129109295075616
0,133971201821852
0,134700545790737
0,133915049832544
0,129418705173503
0,136974663840906
0,1312635807634
0,129671122406687
0,128836381600962
0,128235916098028
0,126362789228781
0,130032999089635
0,124760194302044
0,126236844983365
0,124815197679596
0,127460235965325
0,119624365547178
0,122770640551786
0,120178404889354
0,123468163919288
0,123562231946335
0,127147679790253
0,119656977372265
0,124764271419419
0,119101346743646
0,119825227025452
0,118301918898884
0,121441503435637
0,116611552744662
0,121026907866827
0,116255086051014
0,121906519313825
0,116905836349208
0,115203525690903
0,111090030963868
0,11158813602933
0,107820139024265
0,110903191604272
0,112430226033007
0,113741246782221
0,108286335743777
0,110154796987748
0,111223006697032
0,115203073447389
0,105697117759341
0,111331374143506
0,103699976645668
0,109509315755383
0,109576256263922
0,104001405194112
0,103317216034277
0,110476924240507
0,105411490540744
0,104998598967472
0,10226404115286
0,105969636330879
0,0995923349697641
0,10385330108602
0,101985903591898
0,104650967603987
0,0995755950536873
0,103862614294133
0,100464280302331
0,102431375961295
0,0994799514410282
0,102540624829858
0,0990168529438577
0,0974478946082125
0,0977251261574227
0,0992438890232133
0,0979246957351646
0,100027425216684
0,0904484695314812
0,0926988418735054
0,0940266357867008
0,102260878995367
0,0967847505926915
0,0976493343103593
0,0951416618644632
0,0945550687488343
0,090815593324038
0,0975020495457445
0,0973112058339052
0,0979242914799809
0,094226489813673
0,0953999665741729
0,0940135674893054
0,0980382113319161
0,097397872945325
0,098189597256325
0,0937479310482608
0,0995549760460923
0,0973216655122568
0,0986540283443764
0,0961534535567374
0,0980246837265762
0,0976795231339501
0,0998978414292062
0,0937274460974143
0,0959119694650067
0,0945625406673267
0,0998611819126619
0,0948283729272524
0,100392570922175
0,0983471271881018
0,0959381146372116
0,097731591965841
0,103697041536641
0,0973493270072936
0,101908313920633
0,0991442699605062
0,106758988484897
0,104457748431412
0,106031009208959
0,0999829339989345
0,101021517197842
0,102215280974742
0,10565766740972
0,103859527923905
0,104575954868715
0,105494849538802
0,110750741624956
0,105539875543937
0,109104775460388
0,108905925332478
0,105517059455965
0,104255593305617
0,109327843982637
0,106748717903338
0,112986881459743
0,110813465968067
0,116960232141303
0,110010745761637
0,111236491161516
0,114370713051684
0,116777374581532
0,113964598038347
0,119630411033894
0,119395239270844
0,117833547528469
0,116535813646814
0,123500126523834
0,119614457901351
0,120757617180522
0,12169781696256
0,125518242912852
0,126811118055664
0,125596541915823
0,123981251467747
0,129932672867481
0,127112360347231
0,128315777991123
0,130948154453146
0,132360891077843
0,127829101493128
0,131523337617898
0,126771786481249
0,130770297058723
0,130143517573509
0,132527663445342
0,129761988265851
0,132010792716308
0,130320963604006
0,126740966606596
0,129532013707787
0,132380136286813
0,129821683731611
0,128917741177623
0,124445697630464
0,128490508500767
0,126425846038267
0,133240331885959
0,13076792345749
0,127406701617881
0,125115648158787
0,128056470891063
0,128521981592178
0,131233084484311
0,128636307945432
0,129945623353632
0,127487489080624
0,127604598177056
0,126158235956003
0,125633689520529
0,124026751719995
0,124301530805518
0,12486782576358
0,123369103167865
0,122064337263083
0,128121317485759
0,123715324678377
0,127892197882132
0,120767961964708
0,125461569086833
0,128491218606261
0,127654382352739
0,126470649016965
0,129232863700395
0,131451514813731
0,126578289319933
0,120735366391958
0,127952007927988
0,125179344199482
0,126533462220339
0,12541110047764
0,12460051002575
0,12651787755575
0,125950378430048
0,11920048189367
0,120774511903509
0,123977578099288
0,12573476866249
0,12185565290413
0,126975257672708
0,121112421549594
0,121473892569879
0,118666045846666
0,113970866694566
0,11872185576309
0,120201005152139
0,117535227283498
0,117233864684024
0,116472790484091
0,117846355004883
0,112478800331856
0,117088462554124
0,115633112905982
0,111560320844326
0,109970492408815
0,112624814058273
0,109620541188821
0,109093329054293
0,105790009485997
0,108824721227968
0,104511137993672
0,106747742985074
0,104201210937023
0,10429589465961
0,101100078702787
0,0976348169167801
0,0983432934495526
0,0976176091752535
0,100102513312774
0,0989587923707653
0,0953515639180894
0,0988268929167003
0,0967310738456464
0,0978018617184379
0,0930930808082199
0,0953294324476276
0,0953094877453521
0,0971531639340285
0,0958540184409146
0,0966286545563883
0,0929001175952238
0,0907637384575383
0,0910016033096923
0,0921633668684995
0,0885983509674697
0,091057340353306
0,091065558357573
0,0902142337692409
0,0883144576316522
0,0907811606420773
0,0903515749037739
0,0875750400455056
0,0867332713133262
0,0887042344322968
0,0848711076052468
0,0884957761472715
0,0877765826990449
0,0868154296921537
0,0802425511048688
0,0822914154474133
0,081211490945392
0,0829782201162818
0,0812205423363925
0,0830545184535362
0,0824301813052542
0,081800116495742
0,0806243080743364
0,0809354005367607
0,0815053588358011
0,0818438734988193
0,0800503196412156
0,0792981448209676
0,0773441912560734
0,0794782010772597
0,0811245012137993
0,079898111484634
0,0759535643227947
0,077597040517537
0,0796368954843519
0,0809364759591315
0,0789563810893625
0,0804481899815659
0,0789086608829308
0,0756223250680771
0,0726190268367971
0,0758462324100069
0,0740346448515634
0,0756795261168901
0,0757104427920759
0,0752024663237521
0,0738133576458681
0,0758287091477496
0,0761760375037661
0,0742478116928809
0,0721430256031868
0,0736797915044986
0,0731407445528094
0,0756445072522195
0,0713045798310825
0,0698382095199202
0,0740312830099956
0,0748931897811099
0,0733229454871798
0,071295291998875
0,0723891593561895
0,0715753330866169
0,0706259135296487
0,0730923043634503
0,0703009004923085
0,0713976799584365
0,0710508954041281
0,0731349971416381
0,0733665472630837
0,0724838916498911
0,0737679387081363
0,0712543009519939
0,0674148343432893
0,0662823654080558
0,0676368717428478
0,0702594069153656
0,0697426178281711
0,0705943652690575
0,0693015642104835
0,0706436610723136
0,0666238964607356
0,0691893194367064
0,0687026359273134
0,0683526321293844
0,0691275604670988
0,068475219400888
0,0712489216073941
0,0707952038993228
0,0664026501562977
0,0665980355220668
0,0677562463420955
0,067682657336238
0,0653294337045757
0,0659766703941051
0,0649755281610079
0,0641759732998312
0,0690089639300122
0,0678313239860226
0,060829486834227
0,0624911066282539
0,064847116455574
0,0661468774691566
0,063292437055525
0,0653401037132249
0,0650652748410014
0,0678019259557586
0,0682603816423319
0,0647197665028323
0,0630998645777202
0,0677329234222464
0,0637322236652434
0,0622548146295306
0,0650923555425721
0,0642901061553913
0,0621907725662991
0,0647505528596203
0,0643727924292222
0,0637601454023569
0,0645402609881225
0,0635373174370951
0,0631471810203232
0,0651968516748875
0,0649995392094477
0,0642103102042065
0,0645028144308127
0,0612132400793695
0,0649167303686838
0,0659451948787391
0,0647223879436237
0,0629774795380565
0,0636642641828613
0,0634028973316976
0,0616340018097157
0,0665548387115915
0,0625249725842483
0,060894195397324
0,0620244009652715
0,0608224424453007
0,0642297757845611
0,063429157035625
0,0607887553901002
0,0609752796297989
0,0614328951942967
0,0612810862453444
0,0609378590441439
0,061578309187056
0,059440189456901
0,0597108490381212
0,0587708607131828
0,058768108493384
0,0594039224519823
0,0596138399402939
0,0570577388755968
0,0586965453573998
0,0596763582873832
0,0570078872927745
0,0609801572849218
0,0616139875940228
0,0588522084034574
0,0602561488929384
0,060630203843251
0,0580050677521472
0,0611241992226327
0,0599308793583562
0,0563665740305468
0,0573695596210179
0,0573151670658381
0,0580676656959893
0,055979750423417
0,0539514211574689
0,0578781060081861
0,0558437990256417
0,0550386953067271
0,0579939891986277
0,0575352457084205
0,0581579417327512
0,0562285175877468
0,054683456018112
0,0539294863584654
0,0547519445574774
0,0565447893137185
0,0579410315474679
0,0547053037011167
0,0548428229203758
0,05723512746769
0,0555445557941135
0,0534943533182859
0,0525832356184005
0,0537572950447858
0,0550442102210561
0,0539351608984266
0,0555830332983524
0,0547692847901381
0,0536730013051402
0,0538331955623823
0,0525170133326742
0,0550210208654783
0,0543162848786102
0,0514627095331145
0,0531856725634968
0,0523869396892055
0,0489354378586627
0,0507910769445908
0,0511898780374193
0,0508119613254305
0,0526840118889386
0,0505598310716109
0,0495651058525726
0,0516652076379299
0,0520066964212328
0,04842502956065
0,0484956113744562
0,0508262181257278
0,0509782368539001
0,050695614687494
0,0490329698796066
0,0488187435856377
0,0477037494544293
0,0482513397768725
0,0479650653070472
0,0496973039637167
0,0490610304681254
0,0468830782342392
0,0465472177728897
0,0464043974225092
0,0463124792668277
0,0471266025041571
0,0477221729045976
0,0497440441838684
0,0481460351742874
0,0479253026201114
0,0471679652582954
0,047510448696493
0,0480294827877153
0,045761488393611
0,0460862301801545
0,0485374110122252
0,0469768614157238
0,0457023016268895
0,0472083312560624
0,0497960315672466
0,0484896836627153
0,046226192262486
0,0453425445755904
0,0479445541923611
0,0462778145072281
0,0457136439528828
0,0469245298923569
0,0475538688233862
0,0444257712275951
0,0466710213357262
0,044915011132724
0,042312760249307
0,0414380848929713
0,0437003609186661
0,0437932821666481
0,0474207162593003
0,0450050412212035
0,0462981922811867
0,0468331945268917
0,0442221493862456
0,0427998861704968
0,0425348227808078
0,0436118620849209
0,0443108494544096
0,0434290416078576
0,0424866577712096
0,0414188124561279
0,0410692531101531
0,0424004191425055
0,0424995068365861
0,043655464278874
0,0451344998654829
0,0414617835918432
0,0425596687758173
0,0426893778264008
0,0444641672427981
0,041828493992517
0,0408639077939244
0,0419247853916677
0,0427276365445181
0,0410243826611938
0,0426654359209939
0,0413794193369809
0,0420288841845514
0,0420827885554035
0,0414656705490094
0,0424964851835204
0,0417548234370608
0,0409267490134582
0,0404821393117968
0,0410289350454015
0,0413759453230859
0,0393741243929601
0,0399689975895678
0,043178093810063
0,0410406040134267
0,0438595913077029
0,0428432941600566
0,0381723525951528
0,0407556224217331
0,0413602006200601
0,03970586694497
0,0399566570122841
0,0406575119384686
0,0394520082594787
0,0420272401620567
0,0408185300834299
0,0388971805708766
0,0393505694754094
0,040232536700168
0,0398874232486434
0,04432146851523
0,0409579214265648
0,0419603735443709
0,0385164022220832
0,0406452595116736
0,0426457831718376
0,0420994209675985
0,0397133912142131
0,039975678691253
0,038207019769023
0,0394675665353772
0,0388618644222501
0,0388435186450214
0,0383727026776679
0,0382228939572559
0,0383783624130718
0,0381507551942318
0,0371783534347656
0,0406733242952614
0,039686199805975
0,0395103385199455
0,0373096315123997
0,03881943663979
0,0393149585554694
0,0418200364424334
0,0387557511019941
0,0390516865379462
0,0391291655535572
0,037688962054647
0,0356380527009299
0,0365612317617311
0,0378865697163038
0,0371481654747445
0,0381034551976779
0,0371174215414299
0,0332610439367223
0,0382728320112636
0,0386014802792245
0,0398458474467869
0,0370996948024414
0,0363477643531261
0,0374833451582638
0,0361097964328554
0,0363187468097396
0,0388932354152734
0,0390798930594099
0,0366761686531751
0,0366932830656619
0,0382987310381521
0,0379879345747982
0,0357824292363151
0,0368591638874177
0,0398763406175407
0,0372834139556365
0,0364302678608109
0,036137457753381
0,0348798177670304
0,0340118776853123
0,0358518291764312
0,037102010346682
0,0358842613160125
0,0348584253833401
0,038112810550164
0,0358362175528006
0,0364147498920256
0,034927309839142
0,035588173887501
0,0343822548108101
0,0324791717274926
0,0368229389879318
0,0376316280824171
0,0350286370292911
0,0340483438093462
0,0360709014845914
0,0353462070162617
0,0335397577618667
0,036817325476257
0,0343273841706939
0,0358947540987467
0,0341725930107425
0,0339173361766368
0,033436499061819
0,0313775738620987
0,0330216597546517
0,0341266572894184
0,0311987034025243
0,0327650004705889
0,0332775438126827
0,0342689338888728
0,0331707576978177
0,032384168560992
0,0336813753502984
0,0330049457823632
0,0312976126879128
0,0359269461189505
0,0332230513954673
0,0346544467836059
0,0336995181381043
0,0317555248644109
0,0306573625469388
0,0329662417289059
0,0331083246852563
0,0339037688270234
0,0308374794484167
0,0321228026079428
0,0344265370060017
0,0331776374788175
0,0297392643991171
0,0359709831517696
0,0323221185313608
0,0330307369721763
0,0304149491794089
0,032856615257777
0,0324167277145053
0,0325104556947865
0,0303885090176563
0,0321540381252218
0,0315486186263115
0,0303317903778506
0,0297033701380641
0,0331953334788313
0,0314309268917597
0,0308747291650028
0,0314614441053244
0,0317092379502241
0,0306129445680059
0,0322953301340773
0,0297432334867982
0,0326234713022632
0,0333011194653244
0,0324058461428957
0,0287617031444083
0,0310806957140642
0,0309322568826283
0,0312852499932698
0,0304823964906488
0,0288515488924918
0,0263782159817989
0,0306981648425352
0,0301921803688982
0,0299351758389482
0,0297508950146772
0,03027812744373
0,0281382074952057
0,0305321994734246
0,0282464724555299
0,0294937427253815
0,0285597174485375
0,0281836822273032
0,025642374489271
0,0296117476735147
0,0278995608527683
0,0285127442914914
0,0277054139026973
0,02917633522773
0,0275081672016901
0,0270877543168449
0,0262270949131645
0,0278817222429838
0,0283298971121811
0,0293484167727722
0,0282128062381407
0,0291308015318849
0,0251017120273667
0,0294031946477742
0,0273970832765743
0,0289143544258478
0,0305248146032195
0,0280844508255279
0,0285518683720628
0,0300054092033865
0,0284754278472278
0,0324775136382523
0,028511393997146
0,0287718792495787
0,0273088655751714
0,0277146140826069
0,030025968906287
0,0318574101992588
0,0320719490618468
0,0333187396627968
0,0271538388952592
0,0290514852924927
0,02724249063034
0,0282715944608652
0,0284231601482946
0,0298559954081725
0,0311142855045608
0,0388155307687935
0,0374041155089253
0,0295864617195109
0,0243279442717
0,0271614349347852
0,0297430279727936
0,0357831489740161
0,0288907998966671
0,0286898960752091
0,0324826324007011
0,0281782789343416
0,0276080373363743
0,0307053642526394
0,0275604713719171
0,0363481266015247
0,0293062042441191
0,0357613046136755
0,0273928328879319
0,0299994507327108
0,0332129435705013
0,0313729625467936
0,0303570052952654
0,0313506471490201
0,0264977996613312
0,0238672999649394
0,0287495228012149
0,0266442810136572
0,023336588320535
0,0312170659169667
0,0228659320739722
0,0304190978518665
0,0208274987536405
0,0259744830998799
0,0247170993923922
0,0321759502022509
0,0215188321276808
0,037636074746085
0,0217355851678705
0,0439439793466469
0,0210020884957009
0,0408263847501064
0,00955625830248266
0,0344243669884483
0,0144028901847002
0,0558444681297739
0,0129107581251637
0,0483750714478984
0,00150886189961918
0,0558508607293928
0,0115167101406916
0,0627413111466386
-0,00241303404878285
0,0586948247702209
0,0111523179836255
0,0568224662053207
0,00360304902252315
0,052350821035772
0,0200224008311155
0,0352463725561051
0,0167231837946244
0,0360811084831433
0,0281741048360216
0,0243972624399775
0,0349679594166218
0,0204800365883917
0,0342410577396624
0,0226235064700427
0,0311741382995791
0,0258645970826633
0,026154729278079
0,0299694114535315
0,0244283229174374
0,0293139306515393
0,0246424596048912
0,0303202976398832
0,0234759433015752
0,0271413001321657
0,0245620714320795
0,0274163785929641
0,0247931067324283
0,0265553372506412
0,0261629938741437
0,0256733467776669
0,0247275165300954
0,0263772990406855
0,0236583505638294
0,0264684223186417
0,0242629635274181
0,024237135766852
0,0230921025084227
0,0233716270964709
0,0231903532601705
0,0265264264048443
0,0224477950791654
0,0246382558748021
0,0236347192560962
0,0246650377820505
0,0234816782877159
0,0261598327301941
0,0256886109432411
0,0278657395287725
0,0251748614876261
0,0263549415820512
0,0242584669342162
0,026309706477329
0,024291759039687
0,0271837471910769
0,0241100161427035
0,0254750265092226
0,0232694681704066
0,0257320000882186
0,0236719850297831
0,0229151724549084
0,0216039924487326
0,0266248463695264
0,0241020505574135
0,0255860522341925
0,0243897569960171
0,0265975013863605
0,0246570780478625
0,0265683445168145
0,0233766502510235
0,0245822075944277
0,0239211185651841
0,0266178821081409
0,0254489367920344
0,024442476483794
0,0246436054129558
0,0266071624261254
0,0251575391972234
0,0243515783104731
0,0229527136323319
0,0240997377174918
0,0231775747586025
0,023134711020396
0,0211769162430498
0,0244121547989962
0,0239474996017829
0,0258703958452276
0,0242483134056801
0,0231075065849761
0,0230034257658502
0,0252586888651909
0,0245723492680283
0,0253654460995433
0,0214400256947603
0,0251805746711855
0,0209456180761114
0,0262920250939441
0,0243192321890992
0,0244954124758289
0,022384977803036
0,0229025868979266
0,0244968767518843
0,0266528843143861
0,024656704808605
0,0243955562597838
0,0242218366386776
0,0242714662260803
0,0233912461407851
0,0254700230767583
0,0228844790746818
0,0273283741111382
0,0231805407110573
0,0234352409559039
0,0238072343085377
0,0259586587019738
0,0250274780970854
0,0266992103323171
0,0234263207613952
0,0242338291547556
0,0228669876280932
0,0265848367357498
0,0251458206966495
0,0257694654603956
0,0253966773605311
0,0268162340935425
0,026063247392096
0,0277767694410211
0,0240476438934774
0,024515463243325
0,0252226268430292
0,0241010169438077
0,0227835774341088
0,0242947931487057
0,0234257198715544
0,0252247424780249
0,0241604649352025
0,0268948897053012
0,0242103975178122
0,0236782896000673
0,0224579565389442
0,0259476325596946
0,0226932697279197
0,0257665515858607
0,0231663741544154
0,0256125305343067
0,0250895510368801
0,0263280779310656
0,022847333270128
0,0241282052980805
0,0251158194671043
0,0268251558102898
0,0243190760133376
0,025379362944864
0,0244615908791614
0,0256109647338751
0,0229760185863508
0,0253094594701515
0,0236624429254126
0,0257068907785993
0,0242144921681865
0,0251585716000479
0,0250209618678966
0,026375427150151
0,0243268055175862
0,0264569309365665
0,0257944782039497
0,0255839403952302
0,0237626954303832
0,0261939629950552
0,0238971227183388
0,0266051938356449
0,0248920026408543
0,0262586418025914
0,0254222451723381
0,0270305212337838
0,0232499234081518
0,0277447906217034
0,0239460103929966
0,025155540211508
0,0221865704963714
0,0249882001883723
0,0233647725740593
0,0276056854281178
0,024591878247512
0,0260854235758678
0,0245785544040571
0,0256689177630673
0,0240410604383482
0,0244615701609397
0,0246063827827058
0,0258894389455375
0,0245847017246347
0,0249160088629172
0,024134708759536
0,0301566505489991
0,0262862698382137
0,0272003956254632
0,0229123092961117
0,025817175836593
0,0244620244469239
0,0254264252828892
0,0231421331397256
0,0236023092076839
0,0239170650340473
0,0247104478686222
0,021303360731555
0,0247380068552138
0,0237264886256598
0,0249485488839651
0,0240280572885588
0,0244641438869721
0,0230174222047219
0,0256589915747797
0,0234019072278033
0,0261696451077536
0,0215341215927588
0,0257074921906072
0,0262162851961457
0,0259360041535236
0,0239729849796219
0,0250733463553183
0,0216984960744608
0,025642077338927
0,022087587628258
0,0246883574522758
0,0232017066251382
0,0240167392744754
0,0257266869559235
0,0253243056657171
0,0231242618973868
0,0258414724310038
0,0233675794271674
0,0251548173503247
0,0237089037737355
0,0266158997642543
0,0231406138973651
0,0217790855217521
0,0202744853087382
0,0246237244545024
0,0223673719666602
0,0255762811502232
0,0237649492244236
0,0244329920265814
0,0223133339133781
0,0244485105935009
0,0212607103758255
0,024084216973428
0,0220073258642042
0,0264345775732045
0,0238356115372384
0,0251270187693137
0,020658259211016
0,0242399576148605
0,0228526354868524
0,0235081874454158
0,021932024999596
0,0237947702422948
0,0223874057150988
0,0248394550879659
0,0239784261925155
0,0231918495368666
0,0229668436180954
0,024230437059582
0,0223343527982961
0,0235512454444214
0,0225184424535511
0,0245264163242136
0,022995541056627
0,0250580284135703
0,0220299098220712
0,0240274891030972
0,0209597892780417
0,0245123069984436
0,0234971823964813
0,0214446234240887
0,0253754323587264
0,0242245942729584
0,0206852122969501
0,0255254732293822
0,0206345273694313
0,0232271198988886
0,0233950094519842
0,0236191741787113
0,0219599584124067
0,0235968316484217
0,0226669672978575
0,0250740489271439
0,0204785245340659
0,023968582580732
0,0217893932481599
0,0252098985199226
0,0212305420357941
0,021920796579408
0,0185304255805076
0,0238456731695356
0,0221486623799297
0,0226412390208655
0,0219130558275316
0,0251727908317518
0,0203681392466743
0,0248856906695468
0,025947804050423
0,0249874277656559
0,02132417765836
0,0245629624468542
0,0212822234612904
0,0224021258384271
0,0214492021151818
0,0229198152836838
0,0224579627903833
0,0246502065908376
0,024997510094979
0,0211747183678385
0,0222696190387476
0,0232646353088119
0,020957571415834
0,0217277778502682
0,0198000311375023
0,0221893624597681
0,0198718723219753
0,0238955833363714
0,021893679881895
0,0221525067851749
0,0207531091774933
0,0229722843078208
0,0210439202563047
0,0209608772835697
0,0257215616190268
0,0223279553962218
0,0224779653706537
0,0196407206716876
0,0222137321266697
0,0214487644927643
0,0228551413598193
0,0224895096481069
0,0229097571706078
0,0233977376229772
0,021194439907234
0,0231957321310608
0,0202349334317762
0,0226228065203611
0,0211213131718096
0,0211714292981339
0,0218801615245107
0,0203658891726007
0,0188263288146164
0,0209766557808044
0,0197281674999549
0,0195636880467451
0,0206126876776146
0,0219951082119282
0,0203377817484417
0,0194760135500566
0,0216804784603471
0,0263879608320287
0,0209909452577189
0,0197718255891115
0,0195865653854886
0,0280901216314761
0,0172752675135598
0,0238351719931303
0,017639828453319
0,0200124294375793
0,0202786881580418
0,0223079824565331
0,0196922380354405
0,0207029023890796
0,0189254146153959
0,0200591700422982
0,0159020063393021
0,0212523107571782
0,0198733991834707
0,0214841258942974
0,0173460941835895
0,0193101103924706
0,0155183067456307
0,0199781404326029
0,0202400668371102
0,0229373140217471
0,0166329113987324
0,0261837557859908
0,0187379345370673
0,0248623642722286
0,0179216443507254
0,0234261327896548
0,0183095855699104
0,0227655500729169
0,0200098380253855
0,0199516324669181
0,0167910910307383
0,0208080184870815
0,0174711884987261
0,0183014674782029
0,0178365019241148
0,0216778866768817
0,0182750264769293
0,0212495383844825
0,0170386652887142
0,0219924748064872
0,0165109841912986
0,0221311458094535
0,0180461560853423
0,022727652905326
0,017220221127264
0,0249838611104279
0,0161281887282743
0,0178603527711883
0,0336147721415791
0,0197138593959827
0,0236090961308679
0,0183478191450809
0,0209454818765663
0,0212569595232554
0,019189879242894
0,018127315804121
0,0187500838261117
0,0184230355827607
0,0196777988218451
0,0191554365951676
0,0205820733627112
0,0173278223117345
0,0195777330535203
0,0196606999023466
0,0217344008698747
0,0181911553357292
0,0208484356714728
0,0143211095262319
0,0203208241410924
0,0254538018804861
0,023433922791066
0,0214565673817109
0,0249139779814126
0,0107932452675142
0,0372506208437207
0,0191512476850185
0,0221473657583362
0,0190194568239517
0,01939216068221
0,0185975891375348
0,0188628906211662
0,01750999897099
0,0197406341005612
0,0258176448733247
0,0163729674397995
0,0245130365741354
0,015587462211966
0,0196477200852334
0,0169272372156567
0,021171552704011
0,0166392470907553
0,0178300772100407
0,01756813884609
0,0175911001209449
0,0193525149285492
0,0184088317205297
0,0205371492053457
0,0163866390176989
0,0174003067139211
0,0235766046465578
0,0209962046202324
0,0190172043193072
0,0169990460183641
0,0158828345144907
0,0145999626400071
0,0364048873741513
0,0129818115559516
0,0267274431596597
0,013650849924141
0,0225150910057427
0,0162444500975651
0,0230097500086209
0,0149747836545902
0,0222230228676946
0,0134942864710476
0,0221216666199126
0,0162561212634885
0,0201923888041451
0,0176858268090738
0,0189625990152714
0,015504268895321
0,0200529966317174
0,0169586761864193
0,0146936532295372
0,022313608168002
0,0153165783435195
0,0189597381188433
0,0339407385649682
0,0248944662943259
0,0281260830517342
0,0215612487671922
0,0211961871377884
0,0158760338141003
0,0233414135803933
0,0141161248256368
0,0226514350608977
0,0138021460358476
0,0252482963443318
0,0154505094887996
0,0253881810604491
0,0137803279401183
0,0220227965892562
0,0119084313394633
0,0232315835945638
0,0118978095354608
0,0247763084933104
0,0104494527741158
0,0265858181495724
0,00799263975164019
0,0321367298435332
0,0117565576081541
0,033441887065895
0,00059685862219105
0,0473506895434836
0,0326584053112859
0,0166916054449508
0,026710481622291
0,0137198298046613
0,0200244320870871
0,017348255793683
0,018394356268867
0,0216199993570861
0,0179501721832635
0,0204899272177022
0,018355299503902
0,0201715395952444
0,0218993259375478
0,0154936717003765
0,012520033208288
0,042083764997537
0,0183591270560748
0,028013323262234
0,0133496149458461
0,0135064573526208
0,0364564853003094
0,0139455926827173
0,0287003996202497
0,0200368819199114
0,0187597073838818
0,0183347131786912
0,0188577434709977
0,0181478384175563
0,0196729986142172
0,0200497223097
0,0164806717004693
0,023237492817412
0,0125637350786783
0,0266092180055848
0,014942398534853
0,030557064782915
0,0270247116503473
0,0143861092061495
0,0247032527639385
0,0217596008825227
0,017624743205998
0,0198305711179224
0,0182926794897251
0,0174566299911472
0,0239275479231906
0,0331023665128326
0,01303707356434
0,0316979249589005
0,0254272969508263
0,0168129645940745
0,0227972406939087
0,0229091889931776
0,0292050815768177
0,0119011625174294
0,0177173486659108
0,0491247697902805
0,0096486687055151
0,0471156075973179
0,00834416582637701
0,0354160595316894
0,00641959409375138
0,0321645550855022
0,00139162000432582
0,0484930650601057
0,00781961788682887
0,0341077035783306
0,00985740905491686
0,0374020537574487
0,0260894938054729
0,0244786779455863
0,0197775979300313
0,0236340022902377
0,015437540790097
0,0318934582533708
0,0214005354864207
0,00748010714408151
0,0412820883853284
0,0377402003183304
0,0386026938664744
0,0290733510658589
0,0047619786139311
0,066437032697517
0,0164356182055554
0,0286145885194967
0,0142931437030903
0,0266361181499489
0,0174580164837468
0,0131229201244963
0,0439306915625969
0,0263270678213374
0,0177710154262624
0,0332986986439279
0,00385786980571859
0,0412522310803113
0,0221609186606227
0,0305216982560494
0,0152006537803208
0,0375281244203318
-0,00232127585721101
0,0698713152790904
0,0287571823154065
0,0253774943629176
0,0462629008390128
0,0292190716820713
0,0382216456824975
0,0267895904217668
0,0283699146810203
0,024161930344025
0,042884552882663
0,0297434569255812
0,0184061568487604
0,028032080967607
0,0549991543851151
0,013086259684528
0,0416973823945024
0,0204431015925232
0,0213787710339405
0,0365210828866136
0,0645884008450872
0,0487253445800414
0,0344326609472153
0,0198692192318674
0,0542552565749148
0,0279913645108421
0,0287800497574893
0,0282740453396146
0,0278801620469355
0,0304280347647161
0,0233294357131102
0,0393929716590571
0,0275700299216755
0,0296897035020861
0,0301769606638568
0,020810416981881
0,034303473109613
0,0415209485823877
0,0713196286182202
0,0198589004393106
0,0805104338973718
0,0442333092483033
0,0419264137377601
0,0313175820409541
0,0279457915964369
0,0442257358802245
0,0328734328224194
0,0365726562060038
0,0184176016319394
0,0543668618621043
0,0443815876367161
0,0255682536993325
0,064892587084331
0,0238034868272109
0,0549714350563651
-0,0248207884342577
0,243745665910481
0,0334458487938858
0,063173984998408
0,042200456730343
0,0292731488943733
0,10711838394799
0,0476858313954093
0,0462471900670803
0,0460754887209457
0,0400508927355391
0,0468413677077219
0,0519621656352056
0,052412664252971
0,0618465071516127
0,0573757890393619
0,0406522506194274
0,0590731707005969
0,0955395280728874
0,084423368334122
0,0788091695643232
0,0508636925873518
0,0696472470615258
0,0724274587233184
0,0559331493793676
0,0649562607171634
0,0626209752527241
0,0388447811787756
0,126534436357782
0,0573989529906492
0,0877202319022008
0,0520688348747227
0,121307798084928
0,0388808802488098
0,126945120234738
0,0860296445560824
0,0837152415080713
0,0790039426502436
0,0764390316618183
0,0852500500483434
0,0621246742295619
0,11290838664275
0,0941013013113833
0,082169329951904
0,0906793598308156
0,082957982232456
0,0916680163445616
0,0841564962646437
0,102117317178149
0,0719450890377235
0,132784247857192
0,0314944026669319
0,218634359167042
0,110156294604002
0,0932351553844832
0,103975724456617
0,0786483849488932
0,132490507547755
0,0912700762553074
0,121906961123708
0,119779021587142
0,0859123957526673
0,105630854552922
0,0886051008342067
0,104886918602122
0,0831250915477569
0,111008587421195
0,0710046348771329
0,12802862090991
0,0818095772341503
0,0995239411387569
0,152319040087715
0,0901045650093069
0,0972102913033652
0,0879216546603802
0,0909133911733008
0,0882106633141231
0,0903287575926829
0,0797797369979603
0,117640213866077
0,0726684104208901
0,103158192020874
0,0721113747859258
0,102073972091378
0,108002164155275
0,0831418472951072
0,0921253469578514
0,0795827628973283
0,092933292596468
0,0742924765261454
0,0676194736161427
0,133722154200062
0,0813820778325351
0,0921563071766485
0,0763098081573008
0,0825262840355938
0,0812533131223622
0,0761411125700557
0,0761955945385896
0,089804943382868
0,0680659991674837
0,0856485510621041
0,0719353054694872
0,0808606001830686
0,0713129486985644
0,0826613559427067
0,0789142884058878
0,0778521725361294
0,080558084088919
0,0752815099482068
0,0780675022943418
0,0742991745499702
0,0764595488471359
0,0716300033802679
0,0707551877257748
0,0841951557854089
0,0721747846449275
0,080298720319396
0,0768744839762464
0,0761309387641005
0,0746637422998671
0,0722999647111367
0,0740792563697056
0,0726989336620179
0,0746646654589764
0,0703785771802402
0,073530420547366
0,0707291805236178
0,078195853108042
0,0685195173825733
0,0789080618494113
0,0645247521528026
0,0887360000302642
0,0492521743405161
0,114879239273164
0,0938317601039701
0,0682875535809172
0,082162281025648
0,0610536113443804
0,0798630525728324
0,0443326604839378
0,105854884847449
0,0881087931498327
0,0693577786806446
0,0704748103902123
0,0649708776603978
0,0694607291266638
0,0842105070029295
0,051625204681442
0,0824624562315902
0,0436879999732603
0,0810339164898131
0,107644515170549
0,0548298715540574
0,144947652415856
0,0758189263370844
0,0730062298447433
0,0483500212131458
0,111931010562418
0,0471680673845892
0,0786908177334228
0,0479608951384176
0,0987541075163901
0,0769616954298852
0,057598210375284
0,0687206421672146
0,0538701024483719
0,0659697606250147
0,0837135815610197
0,0617004445101987
0,0672848987426226
0,0971576614267499
0,0578691998842762
0,0980356898367406
0,0895340139174562
0,0875496868284216
0,0524515537682526
0,0595220421494214
0,0637018020901964
0,0329687182848047
0,120932613070268
0,0530329004082843
0,0735778917920854
0,058742688015689
0,0486451877133642
0,0598429174214042
0,0565833282714939
0,0785184776073395
0,032669373433655
0,107800550504194
0,0341173023945775
0,073807150215775
0,0603004017316628
0,0756679636437143
0,0937345434363375
0,0685101632247478
0,0511042701154774
0,059679062196227
0,0928790649171158
0,0493046712179055
0,0740627320012755
0,0522362537916251
0,0403398518090272
0,0771266090901518
0,0487780238496384
0,0616317962239211
0,0640718059113915
0,0516528637962668
0,0956329732953301
0,0819502944540622
0,0969796788689833
0,0643515873900997
0,043512254664811
0,0548518706658063
0,0457374728172582
0,0634278571873464
0,0384272218264354
0,0687979135418562
0,0679755879426824
0,0213558188787328
0,106911934229919
0,0519953736024342
0,0533967089075455
0,0525247391783651
0,0491946681876349
0,0500163782697957
0,0601966407193297
0,0764679209492544
0,072239891523131
0,0520527209241963
0,0857685251968192
0,0443046111621094
0,0706855029888429
0,0477934146651031
0,0661687877279801
0,0498909927725239
0,0719864698045238
0,0607391106903485
0,0627840071344853
0,0610213401728231
0,0693883505415498
0,0535068175772274
0,110675673176283
0,0417139707466419
0,11442904250755
0,0618640023889319
0,113434665749881
0,0836574527275128
0,0759989416187897
0,0840685622570929
0,0761032108391053
0,083322275071203
0,0833575556822426
0,0651603979482535
0,125377102382035
0,0751788991988908
0,0997643576754463
0,0757234510475742
0,0974695213105601
0,0781242143824869
0,121791519174077
0,0873746874205377
0,11394145427541
0,13627455800372
0,0974931652219685
0,11069942165834
0,084688119713667
0,10458028831148
0,0979964985355205
0,0893408322294599
0,103688030532161
0,0787219099256883
0,114855731872825
0,09556771514667
0,0998549512100776
0,0958930735760758
0,0968572943018396
0,0984901625416564
0,096786281773352
0,0966805300152048
0,0999003381649344
0,0968302724514101
0,116415980850428
0,0684608252986112
0,152093704443719
0,109396978885203
0,107742416994525
0,10552265864211
0,104850591086384
0,113168134626476
0,0980063283712795
0,116077760629105
0,117453279419867
0,104207589772114
0,11853283021087
0,106348896636994
0,119068493607037
0,103946464365886
0,143662477644036
0,0995844075190317
0,126100190179361
0,107549347531105
0,0978015768928773
0,162863235665392
0,112756600262759
0,143057535384244
0,110394472295598
0,126374466788662
0,11352052905464
0,119637794677128
0,112404993197813
0,122989977490736
0,113072940104464
0,120141869438
0,115789453004839
0,114818887825033
0,121629880738256
0,109299845617037
0,133546312479207
0,11373728000841
0,116933923833647
0,114797710731478
0,117312264643276
0,108043438907039
0,124654369208399
0,128954087301675
0,114390028309567
0,123669758645256
0,114227437730725
0,124146097520376
0,125810407212732
0,112270435543203
0,115499467042646
0,115070767672765
0,111695358786148
0,119808942920158
0,106459531781629
0,138817846947766
0,111087296788232
0,122652846198888
0,111601357721394
0,119272778214992
0,112406521895987
0,11925603799284
0,112260906071339
0,123997910185703
0,114664021118236
0,122712956375214
0,119032485882027
0,118628671877047
0,126362053449765
0,12450048617961
0,126704943760429
0,121925147950528
0,118986007710612
0,121872835842881
0,112855586714958
0,126362894376841
0,115892780320412
0,123156655551939
0,113473909053048
0,122242437162242
0,0967952369200566
0,140981319690416
0,111213871848228
0,119776623791641
0,118076507042931
0,10785495691173
0,115384899638234
0,106212296011395
0,111851904891039
0,106300793993726
0,112534386433709
0,105767176580016
0,108329752347873
0,105222355750178
0,106372049188537
0,106287151899566
0,108380834850942
0,106634321650311
0,10362485249381
0,106996637738886
0,104657454533151
0,105997411077919
0,102460879617954
0,105334184488918
0,0986579566737246
0,110616442756434
0,118940810172514
0,114742383463813
0,109182820435747
0,0981546613507179
0,111338225987968
0,0969642887642714
0,107663092057607
0,100002781449102
0,107976107788188
0,0996857702111636
0,105698672011804
0,0998113435121421
0,101628262009767
0,0999847099448793
0,104376170820166
0,0993800855115147
0,103166933205002
0,098740330524725
0,103698815848554
0,0980636154218993
0,102131365645313
0,0988931577896395
0,105661735422574
0,105974745043563
0,0979913285849873
0,104065304338725
0,09689800463852
0,101276989618799
0,100216132340551
0,10199794814182
0,0988542584655586
0,0967655392728242
0,100482636309688
0,0989067212597234
0,100032288989558
0,09702265784302
0,0982059631262691
0,0987242147071715
0,0959397762309075
0,0943439729400467
0,0962169822414916
0,0942747320364192
0,0930743862136679
0,0933638611351918
0,0925874385994396
0,0921500251904896
0,0910735833322364
0,0903527518292603
0,0886825724424291
0,0883263970240757
0,0877142676010642
0,0846152692586567
0,0867031188581776
0,0883495266851478
0,0878607248999478
0,0878745518586776
0,0887334751709649
0,085717421091581
0,0849859922889908
0,0840370110366477
0,0837707627044221
0,0846073320578726
0,085222092543239
0,0859812552806497
0,083999142930066
0,0829163657554568
0,0850457688034124
0,0856257077989276
0,0846108084337013
0,0844132854477725
0,0830768374974555
0,0844176134167901
0,085443509876563
0,0883158942909717
0,0875268543658566
0,0868850545073865
0,0855518073662973
0,0878300632607077
0,0893583971484416
0,0885705000855021
0,087127761986286
0,0875077167339408
0,0886619233815695
0,0900812599068209
0,0861364340025358
0,0895253363368237
0,0890233748166343
0,0879389915539113
0,0911931306100764
0,0894129542236193
0,0894690873204137
0,0862769956138195
0,0869916256836503
0,0872166585419121
0,087348030809598
0,0896093185232095
0,0896249064291718
0,0868153053018361
0,0869502004294099
0,0861027495124071
0,0877380716907403
0,0874156635832643
0,0867728968454904
0,0871519601657368
0,0869564636464066
0,0854500454439003
0,0865672914120059
0,0846896474098319
0,0833061138933811
0,0850775431470025
0,084910924285367
0,084333604064291
0,0842069830089732
0,0827778885482286
0,0828714331670812
0,0826141188895003
0,0822030882749222
0,0827763395972413
0,0829727167426411
0,080664708125635
0,0805471326701055
0,0799847975004165
0,0804289082182562
0,0793075967759886
0,080805140150869
0,0794273876499033
0,0793955960120499
0,0792164989800367
0,0783091183118066
0,0772373457778563
0,0767133997879185
0,0761686119354575
0,0761150633762174
0,0750177111061038
0,0748762833437244
0,0749671930803174
0,0754791056141743
0,0751848124699383
0,0749849605436209
0,0727100563279084
0,0742998766602581
0,0744823779252795
0,0733152515937679
0,0725972390439294
0,0733771951495732
0,0722592636113675
0,0739367499008867
0,0721422066736175
0,0699610493821148
0,0717192549186119
0,0719693067790785
0,0698163010876858
0,0695498191120257
0,0702016874764749
0,0696700266187512
0,0684274875307344
0,0686661261280558
0,0669818387302916
0,0662121986900829
0,0647112848709059
0,0660143292470845
0,0641964301305546
0,063553219433346
0,063957420508953
0,0665455097607998
0,0634255952858506
0,063183319232475
0,0638649636507597
0,0661831650881265
0,0654584102585729
0,0660362628926313
0,0700951778045252
0,0708024552784273
0,0746649826460643
0,0771908396781971
0,0795026892070513
0,0818059138665254
0,0839975433182101
0,0894002515593759
0,0916257432858805
0,0963608338552817
0,0986040850964209
0,101860216867624
0,107107403510611
0,112194363289056
0,116858564595087
0,120811014967754
0,126100911699578
0,1311696360104
0,1346040380734
0,139367542959014
0,144539052198223
0,148941838843923
0,151624049106514
0,157763591347003
0,161948053983413
0,163513119838957
0,166548060078992
0,171528177816013
0,171475655052123
0,173195233562173
0,176517379759253
0,178759115995992
0,178212992089788
0,178407736361804
0,177498577328551
0,1793185637813
0,179145855871706
0,178604325646952
0,179028545713773
0,175236772686264
0,173549935170099
0,172697873031977
0,173002563289844
0,173863764004523
0,171563005758665
0,170241198528335
0,172103888302992
0,173114754068333
0,173480781690116
0,172866014368073
0,174051592498118
0,173963043113628
0,175659531125124
0,177701975007752
0,177885446619149
0,180282762637882
0,182308248430405
0,182440700325158
0,184800267136336
0,188372489330605
0,191913191936848
0,193429086081591
0,195404388181622
0,198171909949187
0,199492969496932
0,203598449666369
0,204636699002011
0,203734879026442
0,204137215023758
0,205650515473199
0,205471123990878
0,206090721354326
0,206890610925718
0,206793607455802
0,206222629783903
0,206574576613757
0,205237396646495
0,206022052258807
0,207437976538465
0,210841253538141
0,21074769922482
0,210720247035967
0,214023727312995
0,21566547320331
0,219098031773717
0,220988747062903
0,22445884571529
0,228960611489329
0,228907289817828
0,233398698334894
0,235567123975723
0,236681122715686
0,24303723049913
0,242479270208352
0,245159498438937
0,250907460270589
0,255482215339596
0,258936634676568
0,260417685114855
0,266326253790104
0,272008132684685
0,277927047889024
0,282053166980498
0,287281504504564
0,294387803683781
0,296306052680988
0,303768713376681
0,310939789699332
0,315941600367811
0,320980594328393
0,321777556803944
0,325039592196182
0,326671346005044
0,32742280968302
0,33045664362352
0,328187041553348
0,326723655331565
0,327651107526596
0,328097333085313
0,325049559654584
0,321311297922056
0,321170147903812
0,32309441794745
0,317996512761209
0,314478016810122
0,313315843907698
0,312249667684889
0,311215358176684
0,311052869861646
0,314226779782887
0,31389255156413
0,314703306387137
0,315945386697542
0,318310934871104
0,320714079313902
0,324206615296676
0,326910062005261
0,329708659331959
0,332586501162802
0,334590666865296
0,338389024922729
0,341435908217325
0,343415484573498
0,343953122449214
0,351454727078545
0,352808086431726
0,35392134004276
0,354803523094661
0,354836943795483
0,360652168525549
0,362893387120611
0,361656862977785
0,362928736559957
0,364947026774977
0,364594735114556
0,365642539678274
0,365800756072987
0,368091743825831
0,372941061063126
0,368295219776752
0,369233407823239
0,373329116624904
0,368153066043313
0,366597687686058
0,367670442010297
0,366234968594575
0,36944073188381
0,37061222530101
0,36758503332484
0,366498443367611
0,360588019558506
0,358247561108047
0,358002323124057
0,353346687302409
0,351487111666239
0,340906543389886
0,335962600922123
0,332140520325293
0,325604406240303
0,315786363695509
0,310799179758634
0,30150123804486
0,29233356082852
0,283650907071042
0,277000501756029
0,275936767890811
0,271323587546553
0,261478127030448
0,256426125475407
0,251265999219404
0,249147931747024
0,245074768940967
0,241227131626604
0,239176460390746
0,238089065099687
0,234554897829853
0,234772176777463
0,23184453023431
0,226767563278705
0,224426957945576
0,224150340016387
0,219221758450671
0,2186230194344
0,212715615517837
0,20803164964059
0,204752570375861
0,198583942942841
0,19133379366875
0,188697538290013
0,183671295751564
0,178694599572668
0,171837896196051
0,167850236225826
0,163035578708905
0,155948647650397
0,150872883206341
0,139695161066183
0,132686401336132
0,131073374492102
0,12498360669877
0,119380083259949
0,114611701214784
0,109932795469573
0,104808598822538
0,103337456852503
0,0982579840115726
0,0956118153177534
0,0911816738163624
0,09133367077716
0,0870833448466589
0,0854365484711954
0,0800553624393377
0,0782503342101593
0,0785885100623472
0,0770030800949268
0,076150318994429
0,0747568040677359
0,0739914148150047
0,0741291535575194
0,0713425700737054
0,0734456486841575
0,0675742934483818
0,0686884151033563
0,0709114680916339
0,0717685969708203
0,0705835532930552
0,0702464156352663
0,07063222537371
0,0742492617482705
0,0752685506428936
0,0737730354001273
0,0731554926493007
0,0743772153486669
0,0753117456182146
0,0789555980371831
0,0790221521859051
0,0764639597042465
0,0753611566873268
0,0766285512958533
0,0759060653317881
0,0761616368825654
0,0726142426187723
0,0729841122967044
0,0751127042268437
0,0787932966548094
0,0786812787550273
0,078176824899014
0,0775752021859033
0,0759888655631272
0,0763322703523952
0,0796036256048962
0,0810398180221743
0,0789138550748503
0,0747703857313065
0,0789618260111458
0,078470138057515
0,0795183766839638
0,0795944473712493
0,0803416540892603
0,0797158649216908
0,081227690244446
0,0799987646716326
0,079642726154831
0,078973036007689
0,0816182939401155
0,0755391963964428
0,0784406577690921
0,0772928441231454
0,0805179144593937
0,0770890168176022
0,0763179057437927
0,0768057007296976
0,078368574514966
0,0786553526329166
0,0792184458427529
0,0751809541656691
0,076829111273609
0,0811464054084151
0,0816079831131571
0,0803988027119851
0,0847811362339657
0,0831087381337648
0,0871819294379239
0,0874276211761167
0,0908584703854854
0,09078778175264
0,0923729060790754
0,0938419340760171
0,0941895784227369
0,0898858742501366
0,0924494311975998
0,0883132182819892
0,0880332100022955
0,0884174781411213
0,0855090741714717
0,0832743776425405
0,0848690910791679
0,0831324077352285
0,0806429468751389
0,0786546545833926
0,0827768008055776
0,0795090404957728
0,0811865937293627
0,0797828612230764
0,0805609829235886
0,0816653422075259
0,0808542735010235
0,0803424764442184
0,0812020826650077
0,0796164887502428
0,0805038190060073
0,0792003785266958
0,0802124393441014
0,0772803363931659
0,0813148012785984
0,0781773213491487
0,0762535499662136
0,0829132895512493
0,0836758977597538
0,0765356121752465
0,0839464720792593
0,0829326837518966
0,0801328727246879
0,0765928848311958
0,0825636518515189
0,0816834325397962
0,0811838722231882
0,07840704877463
0,0778450539647356
0,081344579843747
0,0820893989454946
0,0724009593836956
0,0764081864407983
0,0778271433319451
0,0772743539873755
0,0760058934508443
0,0795185151857925
0,0784227319729962
0,0805415641768857
0,0706796818616659
0,0766734038579689
0,0731669771872853
0,0767427773482563
0,0745237755335349
0,0761804282292421
0,0744513887563572
0,0745618058464583
0,0721183510337722
0,0771260804104553
0,0675029511163845
0,0699343565771899
0,0778580503379355
0,0745558226024912
0,0713467041000757
0,0681534719800214
0,0657898375253355
0,0718288182043523
0,0642175293690094
0,0705302765641915
0,0678041126337649
0,0756682752095408
0,06899355999762
0,0675542954527424
0,0734022047268164
0,0673059251098436
0,0699272689175041
0,0677193929945253
0,0721503002500215
0,0766451492999812
0,0663819040287303
0,074404149749502
0,0747720462890568
0,0739968391771452
0,0722703105642733
0,071753045007971
0,0730895591076771
0,076952987022178
0,0717043366567939
0,0716086660517802
0,0737936527218957
0,0802223071880416
0,0752053355089208
0,0837016200580374
0,0838297661426576
0,0812364981888846
0,0822393129174521
0,0873560919401517
0,0771676504170029
0,0855724676888806
0,0858949336383704
0,0858224996059097
0,0842710026935327
0,0977967191820954
0,0959104637715813
0,0883159669200439
0,0978024753325651
0,103180529434055
0,10729673198204
0,108733662633818
0,11115009924379
0,112358506256452
0,115560478959446
0,101986376613521
0,0983858119605508
0,107881965321489
0,117078716609664
0,128957243576533
0,123172093123581
0,110968652695811
0,106821803385399
0,105718386784586
0,103695111441571
0,116701795570733
0,103316395021568
0,111803054941285
0,115983896125282
0,115482552721656
0,108255503896881
0,121175832813167
0,120425772812221
0,112277522831972
0,103215226897206
0,123163663955458
0,114246234259731
0,116013509913871
0,112864206881357
0,110381442334909
0,114424207685547
0,110958216179065
0,109368000381418
0,122369035304566
0,111152391896972
0,112339670021859
0,112134945514088
0,110678822853768
0,0996769558477617
0,103907497660523
0,0992231342352994
0,105277823022964
0,120473196715563
0,112407599418222
0,109125940631359
0,119225677466826
0,111011606657546
0,096348306021695
0,0966476892318265
0,101200619913633
0,0974018860078263
0,110212189304604
0,096996189193193
0,111181068503523
0,103130296357614
0,111337373109982
0,0905049393111302
0,0841586034319906
0,101529337013539
0,11416588001649
0,105434155049055
0,118124555456306
0,105109651911633
0,0967551819858284
0,112348184777365
0,11833124982473
0,104270449319934
0,127959508348838
0,113535984197228
0,123792423523598
0,105190004270938
0,117795990552684
0,127497737235723
0,120956523335969
0,13118083820233
0,134043493891026
0,112355415898451
0,110081651938316
0,122355519194593
0,125698173101747
0,120156334788405
0,117007494871972
0,13706639498262
0,134204671475518
0,114413045224427
0,140284489605931
0,163457992328704
0,172651091336541
0,128111892047085
0,155109626659856
0,138670363583779
0,140109837667584
0,142147304410458
0,119808445273369
0,150755361062701
0,182614985412816
0,127916708959281
0,162144761879955
0,141383729978627
0,143761178694922
0,134060851674751
0,15755872633063
0,136417893760484
0,148111581560835
0,106871470702017
0,144090478312793
0,152470899334186
0,131507114587766
0,143241350643453
0,125900528673807
0,118374791923089
0,102146476053056
0,163103917208151
0,125536030202329
0,110345380697757
0,141450862172928
0,145887470953456
0,113589850011822
0,0829647861899031
0,198241022157979
0,137633607189576
0,161314642759738
0,154853779044114
0,127326773292726
0,144123072869335
0,146537675205181
0,185170992292026
0,151941301399688
0,184452316158452
0,150117976476084
0,0872375052218001
0,138145543180517
0,122550426417254
0,154333052491113
0,135837479710045
0,127505334114664
0,0946702820260433
0,196639169210638
0,112706031747245
0,188886224403799
0,112196198572451
0,109368275626093
0,15683651334003
0,149711222117394
0,0152422401240294
0,0255667595010181
0,098148661565739
0,133620312138933
0,142789735920326
0,224566401630808
0,307127355676058
0,182167737145368
-0,122630889589003
