3596
4000,36533379555
650,420452594757
1
2
2
0,0287784668709997
0,0264568257291545
0,0308814713346446
0,0184851895508674
0,0277543009045888
0,0259051218064543
0,0195908595457035
0,0104472341741842
0,022219131134496
0,0171276504179768
0,0319003629842817
0,0182491144040632
0,0218229294693294
0,0228263390881898
0,0254440430841447
0,011224229966844
0,0228246931989661
0,0201060269068467
0,0276003785498202
0,021197378524515
0,0234675984485569
0,0265420844413356
0,0274079540996619
0,0157050622971188
0,0291079147274675
0,0257035939348487
0,027085569990917
0,0213061321059478
0,0215194033339921
0,0195347887238133
0,024164110625991
0,0179106771255633
0,02880079421265
0,0185964460342671
0,0242403126163324
0,0202916179004171
0,0166454956250925
0,0133055545213931
0,0302581586787145
0,0259984799143048
0,0253201789326702
0,0257323386911695
0,0285226672402066
0,0152610964490002
0,0251307760681725
0,0198662361356238
0,0214823356096337
0,0199609057648832
0,0278154225416604
0,0256248917732133
0,0289119403311003
0,0204591669629519
0,0273537200581264
0,0241897712456401
0,0267258545850838
0,0303942081553635
0,0281124847683011
0,0132273672426923
0,0260439649194902
0,0228598799783555
0,0302414184814266
0,0153586494267147
0,0189102510421825
0,0111604161478818
0,0256805781834693
0,00925910148811421
0,0248194242300515
0,0144087364497185
0,024497418789244
0,0164867156426077
0,0193310862909578
0,0153633615540112
0,0315412034662022
0,0204069217645243
0,022813980798126
0,0169144094374128
0,0258674165725744
0,0170958047562145
0,0203366460399272
0,0224755263602496
0,0400786652715087
0,0224708281427804
0,0318622643523309
0,0241462743704741
0,0279045413151159
0,0268313992865655
0,0259105351211224
0,0267838731068936
0,033102165978939
0,0218066526988127
0,0229526325555345
0,0161235749439292
0,0274931545465759
0,0190502867995905
0,0215446700481201
0,0107165340325723
0,0191214788827952
0,0206437602655144
0,020454899180347
0,0100580756484344
0,0225144451361887
0,038562627773486
0,0123375340380525
0,0424512768931875
0,0121031364140827
0,025867522598931
0,0549116697497555
0,0283495747513246
0,0327955630313562
0,0200447131676557
0,0256129983827879
0,0131426888563787
0,0287437015839383
0,0130642419330651
0,0398225284989946
0,0291833269385322
0,020315383914696
0,0208881940120995
0,0270521284616919
0,0176236165608934
0,0274316351969231
0,0262822402824784
0,0198224512678292
0,0277020367226632
0,0237002913860578
0,0185037595228254
0,0185444717509043
0,0261003366430249
0,0130021494533079
0,0207493334677739
0,0134724964329485
0,0167403744131277
0,0153922744548827
0,0379132396576871
0,0289116381727866
0,0309408393972091
0,0202234026098896
0,0175807626646901
0,0339429554567641
0,0264530682468264
0,0297646980616884
0,0149124256118205
0,0175167726894125
0,0224060387309212
0,0290278117108481
0,015305535858575
0,0267604985390132
0,0349629820100286
0,0195295417024536
0,0222402769046277
0,0126535610711244
0,0212804237344507
0,0172391323431387
0,0171296818709938
0,0285885407096025
0,0390529894446725
0,00957805076576236
0,04678682573252
0,0145367762742042
0,0359492791174152
0,0120925185180859
0,027902390041267
0,0221961809095099
0,0186923174653889
0,0155593550941642
0,0237218397197492
0,0285320840668527
0,0145051581234814
0,0230157580339895
0,0211599740552219
0,039667391151961
0,0151634348487807
0,0205939292796914
0,0143893570485513
0,0223820680528818
0,0306705992621887
0,0157876551507087
0,0260741215435508
0,0220253482690415
0,0286178713747223
0,0152090872992971
0,0246334881796111
0,0144283404552044
0,0244755428631891
0,0242620992812344
0,0287250471324032
0,0182245074491615
0,0202816708305681
0,0143891801898631
0,0288273153362952
0,0242538558095255
0,049369824730416
0,025084846547729
0,0260206979101215
0,0102742082932526
0,0371153184224283
0,0262283038454994
0,0158287023558971
0,0158281510361313
0,0214603357443887
0,0141965913610214
0,0174988733213045
0,0112441786198728
0,0164120429555224
0,0141126034402912
0,0397867619457203
0,0218698208001292
0,0277211223802103
0,020023969379164
0,0280776894324526
0,0147562220508491
0,0215181717518137
0,0390295706745304
0,0348418252886354
0,0246746022851515
0,0158796303969229
0,0297630734890124
0,0269730494943483
0,0196750762522675
0,0195567206737741
0,0200026849681283
0,020117338904522
0,0151427544133226
0,0207640403184026
0,0144295079166331
0,0230894479202341
0,0200785548920327
0,0228010211949971
0,0178491182834683
0,0212901834693623
0,02498756809853
0,0183211209142565
0,0152133443444212
0,0168102739108704
0,0137291445019115
0,0288154224308638
0,0138255951351792
0,0290147262170322
0,0187516849783275
0,0270375491397059
0,0159110881327408
0,0196624766540744
0,0133458326867706
0,0244555797125877
0,0104660660426398
0,0441551763155217
0,0183555804497103
0,03082288887622
0,0136564649293013
0,0293139785452864
0,030297944756428
0,0209386689562586
0,0235745444275663
0,0150089527588379
0,022057189968211
0,0180210317424129
0,0313030493981469
0,0303556758003272
0,0200191365464883
0,022898562896483
0,0168497964492409
0,0198312355265813
0,0277196653395305
0,0165836958288114
0,0506960134645363
0,0305486837221307
0,0247168336317357
0,044418838039264
0,0223990004841268
0,0298858559140759
0,032307218672596
0,0201979099376347
0,0494672091836663
0,0387368338805766
0,0325596332663438
0,0195169538462218
0,0209689131692525
0,0222179520000743
0,0217172945125906
0,0355251653113497
0,0180090453162218
0,0413629411193081
0,00773521397336754
0,0502360745113126
0,014934370402156
0,0361848254094322
0,034505034183099
0,0162750451215474
0,0279859929598433
0,0186269744359596
0,0162445357823912
0,0221370558823989
0,0295047785778106
0,0198397721663758
0,027881910436246
0,018537564473553
0,0365744599448582
0,0219560680477162
0,0271185423223941
0,0219956822260941
0,0326058195621058
0,0245060555118314
0,0316840713189582
0,0187903837349285
0,0288711683318606
0,034106107216022
0,0216852814986448
0,0301815685751508
0,0256610733476087
0,0313091637476785
0,0331361327064913
0,0190133634380564
0,0247562051705247
0,0240517877055102
0,0266300224434282
0,0203822291594285
0,0244134385718281
0,0225813344051023
0,0318685250791776
0,0282186950835117
0,0216081527954671
0,0264120634519457
0,0134063696387428
0,0257874301061995
0,0210129585377776
0,0297834513557343
0,0201982059263432
0,0294558525172138
0,0261163182394954
0,0257290881271769
0,0346113161265544
0,0334572410785913
0,0246864508104293
0,0475825538945412
0,0255879444521588
0,0378527921298952
0,0263554130663666
0,0355223844225607
0,0260668785871135
0,0304685295941056
0,0245699723618443
0,0315190864842353
0,0304095911397749
0,0357583188307843
0,0263799042055969
0,0430223402444211
0,029900529245927
0,0590630758518318
0,0455150614755638
0,048371436757965
0,0235647918827558
0,0341539615189362
0,0489760914839144
0,017184074999753
0,0587013384553762
0,0333344230582328
0,0370012736849632
0,0341311411369302
0,0399855626301821
0,0418143793372424
0,0344279888846419
0,0441127903446853
0,0383272052615968
0,0394804667146084
0,033195633804325
0,0444242651863228
0,0328210685503474
0,0622624306561467
0,0481420458663562
0,0433739521577477
0,0469161230238909
0,0493629058341544
0,0493754430685572
0,0725439172252998
0,0366712972261307
0,0857218536022626
0,0378415308694978
0,101514826130746
0,0535057036704439
0,0581667335233413
0,0410848562230319
0,064034445033561
0,0493532416179267
0,0596649785846609
0,0544503152417994
0,0664050614294545
0,0593431309547655
0,0696631305378261
0,0539161889008294
0,0769456849681617
0,058771703220814
0,0791891728976729
0,0608360434152306
0,0760222044317175
0,0712899161075316
0,0787315690601558
0,0778553447112233
0,0964099776960001
0,0904938046196759
0,0722193249138735
0,0797891252836611
0,0746244780632572
0,0823598353079906
0,0795874370615809
0,0911875814198661
0,0806180947362813
0,0915636917083285
0,111977806648349
0,0858003315540302
0,123128652396266
0,0906095300804874
0,104555687624474
0,103007576113386
0,0989450749196757
0,109276415967741
0,105954321389597
0,0860324384892696
0,107944941476166
0,112999641929523
0,0985666454802426
0,121370199041352
0,104577230464486
0,102687649242367
0,107444146561145
0,106907060525108
0,123434152865798
0,112276049306482
0,124334377802722
0,11284244514897
0,134544123407316
0,128364729977746
0,133474797405061
0,133029042903058
0,145995598012796
0,120617079672052
0,151162815823266
0,126664464335719
0,150890815180864
0,138074093501295
0,148426352470042
0,166715799970195
0,149892918733094
0,173487978863748
0,138603039163543
0,132981853462593
0,156224146143008
0,146939464138716
0,166801236057851
0,160901464803884
0,163934671995794
0,163591602856229
0,167681527454285
0,17278110487934
0,186440098610877
0,166114497458127
0,183152577009579
0,166294472078485
0,186781690518865
0,173409696586731
0,197023269367641
0,178355700865428
0,186255526463025
0,209338192341525
0,208641711498579
0,21692550082674
0,21314051589898
0,193597053607806
0,213653257908921
0,190826015495001
0,213688340909969
0,200250326108244
0,221412731700397
0,206837854027255
0,2221061477425
0,208117879427854
0,237002482402089
0,218024079030164
0,242276378207486
0,223887668662022
0,271247067749495
0,240540744579735
0,241777725459701
0,230109516757596
0,250459596246578
0,251288025630443
0,265935713821744
0,243909642413613
0,266371182753344
0,239419989609943
0,272267485542577
0,243928555203886
0,260223940394233
0,265903949660121
0,277131255003197
0,274570423783573
0,303510447470523
0,269797224136827
0,302543356663754
0,281961092875642
0,294502273339693
0,282490917141269
0,31588427600106
0,294941775011827
0,318045806180777
0,293632436696082
0,327039598554642
0,306407842676711
0,343012595519237
0,338311305679456
0,318224233444182
0,313783407140063
0,345705385579228
0,323948057380841
0,351344847552082
0,320810235172757
0,341611573169728
0,331114527260296
0,377730750375109
0,342704201873128
0,361333660880804
0,348679674201802
0,379472563402329
0,35009545715285
0,376283592289558
0,367229332832523
0,395834911307546
0,376138987405676
0,392755519698297
0,362737459666459
0,388886827056942
0,370151773686947
0,423266314050788
0,388623635064315
0,427819687595653
0,400443056341495
0,417113952019479
0,379973563691322
0,401160963391111
0,375673674926296
0,434860736139882
0,423203731113205
0,434507387837884
0,421285327651797
0,447549875934285
0,411224862031672
0,46385764103231
0,43187086679641
0,472779712314073
0,42195894398122
0,452789832962394
0,446111309147656
0,510263957226539
0,446597207548117
0,469859071688787
0,466489350724869
0,495797196820955
0,456453500094073
0,483617562769091
0,465036772565566
0,510746665436863
0,449113353000911
0,508209832644271
0,491292755572747
0,516273736693811
0,47661443866859
0,529922172373182
0,505412387065783
0,519429720666242
0,477476425185452
0,513896846391037
0,493527538712423
0,544024648355806
0,52114011388181
0,543467263817864
0,511641590460594
0,566783485169879
0,545682597021441
0,562633942972341
0,527144159556297
0,561364574832184
0,53082928643577
0,583646676888407
0,548927196481181
0,578379530404003
0,557112639321322
0,593552894213592
0,537352503370514
0,590947614530399
0,544598487670039
0,599896168776069
0,557309859962772
0,590525891417641
0,576967594619653
0,59741662648659
0,577752019961108
0,59989732881846
0,561725757993601
0,640678939038813
0,597384991856575
0,618324136576009
0,597965708396609
0,63567305658843
0,571128792279607
0,628931885055481
0,594694980148602
0,644655749879971
0,587275802713826
0,664234087748238
0,647900730918545
0,640988002166309
0,599450631119426
0,645952995269454
0,641267423208351
0,69319535642807
0,637753780163319
0,686887187163007
0,632979836038323
0,695007261387529
0,631005507783384
0,682552490109008
0,639693127385208
0,674652511538172
0,637497857940101
0,702485003535438
0,669102904681528
0,700863991052424
0,651323527425331
0,728504092072112
0,657689715025386
0,70086526817939
0,636185964688793
0,719774240343545
0,661854293584479
0,692043049172372
0,677476547294121
0,732515799414609
0,678531449715825
0,723580726904953
0,676836470935536
0,723807424315311
0,683043552331246
0,71526436761111
0,694460490828849
0,736075979082684
0,675313780180187
0,7394032833071
0,697266305288136
0,781406340429662
0,714240960275287
0,764735581197682
0,707330342413356
0,769790018826904
0,691094260516314
0,763728357717088
0,695507415725555
0,768810837262811
0,707960809877893
0,763806591096688
0,738860823106952
0,79675087973482
0,732842973357977
0,767324069658004
0,742872160376677
0,775133224304578
0,715979904285889
0,777956150110284
0,741526627248115
0,78785889600621
0,739658449560822
0,780276400855133
0,710930531566534
0,805966317071626
0,742381264601556
0,770812027633267
0,706104636074233
0,770910408027816
0,749003075248795
0,794523564085093
0,75133115195709
0,793977225377546
0,734907342941193
0,812463758066281
0,771643870383181
0,803983829107043
0,774787599677843
0,766204772075337
0,759490005174545
0,787938881146163
0,770995997063979
0,805147991609373
0,763390936051376
0,813622768280859
0,763770243151039
0,806866986313462
0,775996743878655
0,795875664609135
0,730185356610183
0,808486596109106
0,765061284730549
0,824442422755505
0,751206756260361
0,814096961759153
0,751210319352578
0,803080418040799
0,74705065738536
0,828308320321563
0,753265678955141
0,833696119780883
0,76761428990295
0,807481412057402
0,787845435317086
0,82051348833101
0,766814637411546
0,802075225905929
0,7844853661498
0,818920660288332
0,759621227037606
0,790789216167725
0,76214814960007
0,802301800753159
0,775428798234932
0,817528983432471
0,763705058073504
0,842172046346539
0,751575194056038
0,846929437409997
0,761878143992069
0,844138948155778
0,752106388150294
0,822257751720853
0,781379343978121
0,81219995728217
0,78386958481108
0,794276763274368
0,76483566530061
0,813453276783318
0,791060929779652
0,785435917515925
0,76219123405656
0,797713992643031
0,719777149399079
0,808114792506226
0,743632015003087
0,792633791503658
0,758677814957056
0,823515030276723
0,781069240322637
0,759203677658692
0,743385271919459
0,791166723853531
0,750375262816843
0,787024516677895
0,729848590686415
0,784228183642577
0,760984873458009
0,792946929308559
0,754762530548591
0,774817954687854
0,771568659373615
0,776741967836184
0,756104485154262
0,778524044868784
0,724996330129223
0,783034599764377
0,734264808600683
0,79965434726233
0,758691108962056
0,774957029433265
0,743388904884165
0,773387290656256
0,750154761937516
0,773075382478262
0,75728550763541
0,778840070886918
0,734184844128081
0,791141895002593
0,732330237873565
0,773387573618307
0,7331946734327
0,76770795570059
0,746651792878258
0,752937716913018
0,722851065965446
0,753800876006255
0,752717708237008
0,739351871651533
0,741989257307968
0,761133340249366
0,73742162623004
0,742413695712719
0,711079045629088
0,779410482292023
0,703974968638473
0,728359009143526
0,725778212592553
0,759349396928419
0,714204121768427
0,74006732789744
0,7241149750956
0,757181643392486
0,714986800361496
0,716232688431219
0,691688549266912
0,735159553761123
0,708741891058673
0,736782223491256
0,691503717613355
0,711397900223953
0,702971966168527
0,710929105361911
0,703735203136257
0,691330842763729
0,691066118618544
0,70443661668994
0,689842148793016
0,705396279194272
0,671385884605148
0,685784574764382
0,654357432343056
0,684924921778876
0,666423133378175
0,683053426164462
0,656031678665546
0,695382062443137
0,668798130500006
0,691269526885377
0,659336055544465
0,672339758268147
0,660771934247941
0,667517348569807
0,65352567810708
0,662471370109895
0,656321357525942
0,658738194115011
0,638879395159472
0,663432649466009
0,641441988881742
0,659951641731795
0,630409647622863
0,650962786151641
0,63344409773476
0,638571376310461
0,609539422845048
0,646966854482523
0,63943011626033
0,638155411790614
0,616308954987998
0,64253939669251
0,612848870042907
0,628202802325912
0,604195947715887
0,636152565181782
0,60050796467976
0,638708291443342
0,604954560354426
0,629775543083562
0,603199523835047
0,608510851010089
0,59386251898303
0,624560695704356
0,596060228847661
0,612657564511209
0,597920642799055
0,600056457934444
0,589915022801354
0,599177447891795
0,575438481015543
0,603904396328165
0,568387654142273
0,601389731119886
0,563803297675226
0,572108154025972
0,563101381410267
0,574394824785189
0,569165218920647
0,575759118827782
0,538883328073667
0,569225164937035
0,53966040726525
0,554884773623088
0,540243758049116
0,54138004480396
0,54131354089361
0,546481082343309
0,528726719862713
0,546000893441898
0,536047737764931
0,541319281357047
0,533864449242588
0,543638724481766
0,52519039702909
0,524785759736035
0,517748098491799
0,518465517323451
0,5184549077564
0,519220400502777
0,509729418524602
0,533209378210259
0,485843696419688
0,514657595321507
0,490874552064991
0,508696778685674
0,486120896268186
0,495649117062003
0,483334253936321
0,496083477485848
0,491360538847796
0,489466311600089
0,470219233755388
0,49408283466216
0,479670630884339
0,47661752935255
0,458127165751514
0,47606135828062
0,456848372972905
0,481149894354832
0,454637774972497
0,469991573249173
0,447309346541601
0,46708810612376
0,450106645853423
0,459182218572782
0,444622137789096
0,456504047645961
0,435005090187263
0,446703039921264
0,439753226283593
0,440810299910006
0,429131767856623
0,441129732002144
0,42869944928843
0,433775097378563
0,421021557699418
0,439506759767816
0,415788405538478
0,426528528193797
0,414003791553561
0,424863531556298
0,398872773393618
0,420427484483344
0,403698389683454
0,409458116038096
0,389167058516504
0,409909484757244
0,385923143260171
0,398393704001023
0,391339912096057
0,392633753244104
0,387319689860725
0,395820410837882
0,382243833467828
0,384451416322088
0,385492828050486
0,397191501860708
0,37375172852597
0,377752951107132
0,375726429511484
0,379574690227345
0,366324518986833
0,376658711456419
0,364223308853283
0,368203462050723
0,359594949883903
0,378240460728703
0,358895135395397
0,360862334694985
0,349632836873367
0,357304122848515
0,349863672798769
0,359474883265471
0,337108611219065
0,348628525497818
0,340993715768011
0,347663528780603
0,340944958158274
0,343241959576086
0,336390109784614
0,339145588842758
0,328868930003671
0,336709537101906
0,325872944969424
0,333042339535111
0,325555816884056
0,329941905963301
0,318844701997459
0,326525454404237
0,314295591922184
0,322016711033483
0,308648525657456
0,325057171381532
0,307759230544053
0,31297572650755
0,305971549473412
0,309916005824447
0,301380883958196
0,309949665219003
0,301075165916609
0,305237237061545
0,295972412979632
0,300722827717295
0,292734127284534
0,304642228060012
0,288971918193827
0,296181065601351
0,289270264494968
0,293191545438083
0,285182772897333
0,285652921434287
0,275262367913239
0,27801277131923
0,273840477381862
0,277825331496116
0,263934517074185
0,27572212510725
0,271342491718298
0,272431764103839
0,268741624209369
0,269892160413466
0,261934471969151
0,269026434253718
0,261622517958615
0,268336766292434
0,255707228002943
0,262660753756204
0,249400828444046
0,257230073443552
0,249433933474595
0,25392400948646
0,252140024584024
0,252250039748661
0,244891461335891
0,25025180791841
0,241662286201365
0,248240254345432
0,240204201768994
0,243032384917369
0,230805506972523
0,243100896147012
0,237573090966048
0,242674028016612
0,230946797931219
0,242204479884066
0,231168017405623
0,231812333382865
0,228326775272194
0,229250880852282
0,222452745001019
0,225891326415121
0,226867456826391
0,230879886198872
0,217463566069519
0,225887648294316
0,216575868117693
0,221993959672861
0,213084108253021
0,219555679956391
0,211837284227953
0,219088490691843
0,214460926408292
0,217086418169556
0,212493327266744
0,216683885375237
0,209187760323917
0,215130688198183
0,208431545215744
0,208933206013633
0,204031397700065
0,206148560999264
0,199620231445646
0,211123584003056
0,199880123052247
0,205504142260512
0,202720679220834
0,206384072085972
0,203252102506125
0,206639654425149
0,196545616523596
0,204487354425373
0,19815638554125
0,201318871818681
0,2052458030872
0,209696874777274
0,202650333160226
0,208253284145244
0,195976128386859
0,20756672743941
0,207552647215525
0,211548652243483
0,203836388487602
0,208485973363223
0,200810775503369
0,20977087692442
0,20521819504223
0,216874195701214
0,209231809546326
0,21551249831294
0,208369955079967
0,215675196614459
0,214727898555842
0,220713435932637
0,217123519623932
0,220865112697439
0,224530788680573
0,225452313140684
0,22091308369141
0,226524137562348
0,220263029158557
0,231912866050105
0,223420858059762
0,229952642264845
0,224778966734729
0,230481973035992
0,227142136299536
0,241035719602313
0,234717253572224
0,238037080360686
0,240108658538658
0,243259917200851
0,239947363903966
0,243552325063942
0,242784870893468
0,245986769872099
0,241502882203376
0,255256023063567
0,251350347224554
0,259243174436705
0,258507516897221
0,261899854404262
0,254588928673377
0,269767096264115
0,263891178054494
0,274510749127168
0,273228194920741
0,273952100501878
0,272529692805103
0,280139662165743
0,279485360181347
0,286894106129437
0,286209340637314
0,292934122850373
0,293666547447432
0,2974757561589
0,292167782282628
0,296654489957882
0,296358759293254
0,305687026076726
0,306433749106147
0,305317419414449
0,29680088584256
0,306931813409123
0,296143230008496
0,302932179766403
0,299193765489454
0,302796219110515
0,302697716032502
0,308701774414592
0,30657606281427
0,306779252426683
0,305548194056645
0,298665765465454
0,297872814794337
0,307907069711812
0,293490504736605
0,302618343359912
0,295065604868189
0,300186502525308
0,293665490021359
0,295600060088163
0,296886070968838
0,303872471154251
0,299672031313624
0,292899325443132
0,296136850045958
0,30307845718671
0,300484427709695
0,308856139658841
0,299271863886663
0,29901218464214
0,295241278333991
0,299897409219524
0,29579164359618
0,299167915335335
0,289431250016392
0,299592139199365
0,302444861584628
0,302224425623249
0,292653883859071
0,293536837922841
0,298862986000229
0,3007588490802
0,295749802233272
0,30486168012129
0,296620245539034
0,302385702873331
0,293181336372534
0,303137951603089
0,298753600821893
0,295691473676708
0,288819966991027
0,29295668573215
0,294107288309409
0,292557213659887
0,287033542571762
0,290800658789893
0,283635235611586
0,289785312576375
0,284233228277654
0,284636576187081
0,280909787850036
0,288235585589811
0,279802914840537
0,279402115347838
0,279505168264786
0,280397427625321
0,276568635463762
0,275915574630858
0,273277373574913
0,273906862470388
0,262511062339144
0,266317596705942
0,256631098756726
0,261153439708882
0,25475256234872
0,257426878494971
0,253925323162187
0,254373571493789
0,250932174879711
0,244457069283449
0,241447848976337
0,246998158008145
0,238318757948134
0,242363860537299
0,239515230018485
0,234025665980935
0,230227794422437
0,233653618173023
0,226608558003184
0,228803292218723
0,222587344054021
0,223012942557441
0,217305878220344
0,217256174947919
0,218585008464295
0,217119116838232
0,210295647949864
0,210980181365915
0,203191514287858
0,207157864423925
0,208459679415724
0,205881336828208
0,197384897408574
0,20186616073922
0,202737797608631
0,202218406968208
0,194814640553512
0,198326374769483
0,194813352463876
0,194439006781752
0,190074167253998
0,19283941787845
0,192278030968129
0,189642603794645
0,190983446908267
0,186929572121868
0,186899617472239
0,190514028970219
0,184330230206991
0,184427820737536
0,177336327517425
0,173392459692116
0,177651420481509
0,179949789214358
0,17713085789751
0,176173207770647
0,174139794379037
0,17599986694198
0,174077266094078
0,177015594788638
0,171427479141397
0,175089714738466
0,166736441002904
0,167989633458883
0,163054856734805
0,16755605450496
0,164533623621475
0,168646335859552
0,167078013851362
0,169347658282492
0,164653907817161
0,165556891052751
0,164856134183913
0,164031364311922
0,158822603741273
0,160496694962642
0,161295754094729
0,159975900423972
0,157026438626856
0,157563070449509
0,158766605683274
0,158596764484837
0,157106468361199
0,155577616131834
0,154318964826421
0,151620098141181
0,149257677943114
0,159750617199005
0,151508762531329
0,152040687043377
0,152136230249404
0,144269858562969
0,145861885589806
0,149096029697498
0,149400180155051
0,147441664375329
0,142876401563489
0,147470727263385
0,146343746213332
0,145692938226725
0,143979469075362
0,146591445180191
0,143196142258053
0,142934302532858
0,14300275498037
0,142046734300448
0,142714098505536
0,146621316992401
0,146721167168991
0,140668465250244
0,136996883663967
0,143292233456448
0,139789923689181
0,145291995766823
0,139397293646887
0,138574047622809
0,134635650179728
0,135025933337541
0,134858197084702
0,140515125901753
0,138752426983329
0,139773620361631
0,135672663979174
0,136795808652232
0,131135583020362
0,138315049085751
0,136218607758824
0,136408726951967
0,133944008195561
0,133872207693373
0,132735117272198
0,135053890339329
0,13417021846791
0,132755350408508
0,127846470571858
0,129857912130478
0,130269802869366
0,132347984561364
0,132452941035246
0,134668215227657
0,128694725382272
0,131508688518206
0,130010295294428
0,129050886598457
0,129827854029387
0,128341799212166
0,129196633760003
0,131242027234091
0,128548919540757
0,131893940392766
0,130254015456251
0,128455869896994
0,124387852130202
0,123062492516039
0,127084749219649
0,127451093973341
0,124717713802985
0,127243352546503
0,126981384516029
0,124063960246644
0,122413432093503
0,126027123090277
0,123577732338982
0,125395845290879
0,125608065397942
0,128053821501338
0,12266481753664
0,123153778156622
0,126520785334787
0,122558527411823
0,121056093896106
0,122239407202442
0,12166298971683
0,119138866230453
0,121003890898836
0,121676531716545
0,120719584527607
0,119330281869002
0,121396019487992
0,121619522934235
0,114984517325915
0,118957054850807
0,11593830333766
0,117385453706225
0,116264069869563
0,116378064620927
0,115308997998409
0,118488591376674
0,116679689146392
0,114517779325295
0,115359813758826
0,117501078230171
0,117012856987927
0,115554930703725
0,115219147950401
0,110968301910274
0,107971648697173
0,116078560927332
0,114685383367308
0,108613171270137
0,113089648976521
0,109872602122831
0,111235568418866
0,110979490507491
0,108248427480921
0,106343362056381
0,103652299119051
0,10904794042212
0,105858178763271
0,10596428737136
0,10983528785774
0,104762078468402
0,103990579534416
0,106364981946642
0,109168770402085
0,106243552699813
0,106826084206327
0,103760057406517
0,10229531223227
0,105437280500721
0,104349635009463
0,102784019960613
0,0994440581990528
0,10206803165335
0,10229416036666
0,101518227009236
0,0998614242775661
0,0962314443495247
0,0992131299800639
0,0978750664452782
0,096408597982135
0,0952111957106708
0,0959125659997981
0,0979244149434603
0,0947195728170513
0,0929188915188566
0,0981851055153252
0,0956606422851585
0,09129491677676
0,0908057865868978
0,0952685398501733
0,0947824766583393
0,0910172733419639
0,0902489279523846
0,0928386894962685
0,0903509204063135
0,0912054370254873
0,0883536592376654
0,0905883586001277
0,089151205362263
0,0859482340742165
0,0924499988628145
0,0883776995478327
0,0873543219310043
0,0861133738694321
0,0869754406926889
0,0875917685519815
0,0853969102313658
0,0831488881671608
0,083056474525147
0,0861521156110883
0,0846189703267002
0,0847693880508849
0,083503010906485
0,0832252925487685
0,0843767950850069
0,0823490328157371
0,083695465046532
0,0820888025560171
0,0801869337319032
0,0803536548673683
0,0825584325118365
0,0788023346194297
0,0789554217274393
0,0818240936378331
0,0789771870412809
0,0821123584162374
0,0765584640253889
0,0793674231583431
0,0789840983778005
0,0779310348643292
0,0771264726057252
0,077100205114171
0,0773461057995424
0,0787662233282103
0,0770684625904777
0,0736711625400494
0,0741716655745518
0,077753858479563
0,0752488913140381
0,075312294855523
0,073304001642683
0,0736523091801558
0,0742068186853882
0,0771438464578675
0,0744170619196005
0,0748456799711006
0,0734451666470708
0,0738697007824838
0,0703812497049273
0,0738542865630853
0,0748808439676683
0,0752719488058003
0,0752241668746942
0,0732746926151432
0,0721499034079819
0,0715631925348717
0,0715131643222055
0,0717029563045276
0,0712054555060741
0,0701862179573008
0,0681004488580602
0,0715669023538325
0,0723683058497701
0,0723438589055497
0,0662704618427313
0,0692518825036494
0,0704352090106916
0,0665226940562089
0,0688508461292822
0,0689560124702086
0,0689121247803922
0,0687298070955358
0,0677738734323222
0,0671308625354732
0,0690984830518531
0,0697642438419312
0,0669855400599969
0,0697986025892654
0,0678812504046783
0,0698821402597211
0,0643706134076623
0,0679010807332666
0,066651977826868
0,0646762213825059
0,064182164232112
0,066811963883182
0,0666770668284022
0,0649787814328952
0,0659082615191169
0,0647872305816914
0,0644714222989389
0,0650996315600927
0,0687413561520583
0,0687295824879746
0,0662628113671677
0,0670644161594515
0,0646289523031599
0,0658459110744731
0,0627166920791498
0,0620066950909605
0,0640783225159455
0,0628255964830919
0,0617526648629226
0,0606006876199499
0,0650595497837752
0,0651207677361225
0,0624518135843763
0,0611272478835231
0,0633525667121768
0,0626565480262813
0,0633712214812747
0,0638520233373271
0,0635730471218671
0,0642735397019378
0,0600513773414612
0,0637668828337353
0,0595869038452066
0,0608873143387918
0,060553712667085
0,0633308611352803
0,0632396149589426
0,0604075450470469
0,0608516258042771
0,0597276188184749
0,0592847902327264
0,0653730650349768
0,0598942029188848
0,0618832134969111
0,0596727034781244
0,0624878072155058
0,0591118042357944
0,0592095987434897
0,0590799678772248
0,0608733224338804
0,0588919475536493
0,0592158309422371
0,0584631373048984
0,0604395737603613
0,0571574521804244
0,0603815070609495
0,0583880560576395
0,0571210160108757
0,0563802357379571
0,0602537400053592
0,0576676914354719
0,0583200559656749
0,0554152057591665
0,0549123216667783
0,0587373138554916
0,0583373049340771
0,0554839165158367
0,0559970787139067
0,0564601305699306
0,0595782750958607
0,0553316149711678
0,0560855637332697
0,0571548512359999
0,0528821019572779
0,0545953858684197
0,0573381162920181
0,0526975823303625
0,0514583181561597
0,0552657381531163
0,0560510271534793
0,0507169188519399
0,0520740252254985
0,0532066446376422
0,051807698893903
0,0533924493378338
0,0546937964701332
0,0504420009467052
0,054163911023173
0,0507482800158201
0,0504869856961152
0,0530552832905341
0,0537204560508654
0,0513868522440488
0,051966785724708
0,0502617043517884
0,0522242292845216
0,0501173130661575
0,0514463527219696
0,0493912317730564
0,0512556253150993
0,0498202935971398
0,0518561170430991
0,0487963321922383
0,05109794294745
0,0485441495934323
0,048793925026802
0,0484411657646946
0,0504896941992273
0,0473529201845636
0,0455647792742563
0,0447787476407409
0,0491970053252562
0,0461180905961274
0,046654358729013
0,044533423769399
0,0469258228874461
0,0466806060928726
0,0461248190372621
0,0453094508278077
0,0455594841365593
0,044324728665151
0,0467630582905037
0,043422339251753
0,0470580465581105
0,0437536057356739
0,0463811633816228
0,0414024077518939
0,0444225588332278
0,0444783654662552
0,0434247471024772
0,0412985901893548
0,0472623105780409
0,0437475063169789
0,043421334265456
0,0442101280255211
0,044251317152824
0,0425816285387776
0,0437856862901413
0,0401783097389684
0,0440553759816071
0,0414530970429891
0,0414415456596516
0,0422023553671717
0,0430254611861034
0,0445442716885229
0,0417308649909703
0,0412922481914981
0,0399039712050377
0,0411919742720668
0,0445996269154257
0,0383047632312254
0,0399426446510862
0,0404045672151629
0,044760074435852
0,0405167807942487
0,0392660305350399
0,0379520921506575
0,0410601618486546
0,0374399711364729
0,0384637400765481
0,0393930253103775
0,0390541419970241
0,0369108531883843
0,0376629804620291
0,0373411903177861
0,0400837133628974
0,0412130479466777
0,0397671129126459
0,0374146737374679
0,0394027772976536
0,0393510093980922
0,0387226913070268
0,0356521380322069
0,0390798796391008
0,0387836723610671
0,0357733901784177
0,0376046064617407
0,0396462210127704
0,0378547003449925
0,0371682684291679
0,0399525958786611
0,0372405518217767
0,0349590147422081
0,0381218343025911
0,0374754195715477
0,039334281488635
0,0379042060847404
0,0439429202459079
0,0394836513552605
0,0390636199331328
0,0378391354126322
0,0382473642708455
0,0395632105273021
0,0433115572480335
0,0391710268498392
0,0377382112640114
0,0386633139066579
0,0368094116862393
0,0315408802270856
0,0365443706944257
0,037228289500646
0,0381094769982152
0,0308381228208929
0,0355193581503935
0,0341202878123575
0,0326030684144146
0,0319503975038835
0,040242285209439
0,0318118799253625
0,0431662648672404
0,0304393204151529
0,0349284891072472
0,0377690196559058
0,0362563197827437
0,0411661711843292
0,0367569523883956
0,0270258071307568
0,0391853841552114
0,0361331921866123
0,0322819162099079
0,0315697073540935
0,0358107980407839
0,031325454139829
0,0296173117582113
0,0330359995363129
0,0318210629455663
0,0360162361737008
0,0295397610475459
0,0380827473320609
0,0269159335036232
0,03996367547682
0,0304012932711146
0,0460969927856748
0,029932754617529
0,0448545418156542
0,0166768234241528
0,0445654702144502
0,0163008614339168
0,0542597021093073
0,0232844895789853
0,0599939799188908
0,00513098213434248
0,0561725933676063
0,00946382241799795
0,0729911697462839
0,00586060731871642
0,0597895484066012
0,00162820421799183
0,071885374625979
0,00378333871152128
0,0607344826098339
0,00682303730213914
0,0619073474409021
0,0161832116674519
0,0474359834163849
0,0274475854067092
0,0347891154359869
0,0347490788085422
0,0276900203205522
0,044047037111156
0,0234071278214842
0,0454620205414315
0,0232003107489592
0,0421704932703154
0,0268797503422492
0,0359639544483294
0,0342848707946059
0,0317693816067159
0,0361612836743525
0,030079031566508
0,0329626597925624
0,0308126740512618
0,0301691607531011
0,0373508203738046
0,0320858424069081
0,0375178180913863
0,0317990487863186
0,0330940550725755
0,0293230853239212
0,0314588186808903
0,0300764761779572
0,030940075443656
0,0324483668290683
0,0342121268659511
0,0306824777987405
0,0325411226704968
0,032144966623236
0,0318858066486713
0,0290019077960129
0,0320027731395207
0,0299762739715379
0,0341770629873826
0,030890347110821
0,031885270843057
0,0303437794292602
0,0323759771354813
0,031300581400184
0,034232832965258
0,0321018673674093
0,0333683454697814
0,0298598883905436
0,0304914967602168
0,0302994783609877
0,0342691246876651
0,0301406973014661
0,0304050192397461
0,0324580776650356
0,0333069595259895
0,0309629564618481
0,0321884219678306
0,0306377775046779
0,0322319383860262
0,0313189029556681
0,0321058141455373
0,0330152608599597
0,0322937801505439
0,0315448417819193
0,0343386204190716
0,0321702192209642
0,0355149088865341
0,0293189812682306
0,0300634898328996
0,0281687259168322
0,0341317864573839
0,031219104491378
0,0331019078660191
0,0300208981733094
0,0332659730123244
0,0306969622668188
0,0304868109348039
0,0306039938117606
0,0333139263156692
0,029909217830743
0,0338799318134249
0,0295074037494033
0,0340791865169183
0,0309320869813425
0,0307166433583088
0,0307139567140236
0,0339801580513907
0,0298544389152314
0,0320124748229233
0,0292119439640854
0,0320354594624928
0,0297054561461883
0,0328570874537709
0,0313233404218785
0,0329382665386449
0,0315104270757479
0,0348991122393963
0,0308361913608802
0,0325884328679929
0,0325244135436892
0,0336390645063494
0,0303253563725682
0,0333696167353985
0,0301259008118945
0,033648871550672
0,0332681250019147
0,0347364515638618
0,0319725464562012
0,0337910318717289
0,0315236476340212
0,0314773648683444
0,0311871486546389
0,032794752149407
0,03043820911821
0,0345729668162966
0,0348894199199398
0,0334069644705359
0,03264509225311
0,0340634378732244
0,0312592380795177
0,0328940000088853
0,031532400851226
0,0323487564785314
0,033303256773963
0,0345775308842565
0,0328261037020039
0,0358571748371454
0,0341888023096933
0,0338395377474273
0,0322562889462157
0,0363419210025355
0,0312003623953075
0,0320097700955799
0,0319511172604249
0,0339319413731867
0,0299921035534283
0,0341681736669656
0,0328023362312231
0,0345599753518695
0,0323621717108192
0,0346053651961803
0,0327752447859246
0,0350174903520341
0,0328587645939573
0,036116648932391
0,033106996069852
0,0327822670000678
0,0333406567203874
0,0338768859002889
0,0325285315564209
0,0343749824323045
0,0335544717698097
0,0341669637245814
0,0334397632051376
0,0348692577589181
0,0332082203961906
0,0346655360528795
0,030438450630486
0,0367846978654644
0,0343479541223979
0,0373918914887252
0,0341585055607593
0,036246665006154
0,0329744431654126
0,0365316793221366
0,0351644820135029
0,0363376371424271
0,034010346790427
0,0336211436916454
0,0334368259798976
0,037121670740105
0,0344663560460607
0,0352865493501837
0,0355087580907167
0,0378989174283204
0,0346921898649953
0,0354993067665419
0,0336096968384342
0,034089256568448
0,0346468760486595
0,0363310949683272
0,0338755113648999
0,0370439464345091
0,0350775361412816
0,0364995253448011
0,0345689997135543
0,0371322349659041
0,0329810628598252
0,0345729245518745
0,0342591408484523
0,0338426576450474
0,0329175030352778
0,0359607242030725
0,0351091424932544
0,0360707831115478
0,0337725371785978
0,0341580765689698
0,0335424688239531
0,0338210874993761
0,0307392275180434
0,0348097546715945
0,0308160513305209
0,0334697286868846
0,0323153600893933
0,0336860550171704
0,0323641328147658
0,0366025162649488
0,0337747411046641
0,0350039226972324
0,0327280697069586
0,0350170780220625
0,0312806779112352
0,0359659908834891
0,0329745572684437
0,0338345622196516
0,0310696987601206
0,0360403365785243
0,0343641995927698
0,0338314614638913
0,0318670452084306
0,0346110701706455
0,0316762027496179
0,0348672652143066
0,0308214635013013
0,0337196284093279
0,0319167808102785
0,0326841527565542
0,0337659351465158
0,034174579703211
0,0303228010260492
0,0318496912958846
0,031269426173423
0,0316840997199727
0,0307050417367865
0,0346555853855951
0,030642055912156
0,0327698760955122
0,0314017002534833
0,0330929150484576
0,0313843642692766
0,0327704532689479
0,031416595396902
0,0333428127289872
0,0314213809108352
0,0345704513772554
0,0318014231051806
0,0332636552806721
0,0287305665042218
0,0323139671071278
0,0325158871613883
0,0322007004481783
0,0303107844714498
0,0358313395120571
0,030726743263438
0,0330552010922392
0,0303470788656119
0,0362652358722405
0,0288437147134093
0,0311321841132123
0,0326023836875439
0,0326855896248804
0,0313930172944069
0,0344733178442726
0,0309390980759413
0,0323760531656666
0,0282429710668536
0,0310659150708139
0,0289699840425619
0,0316489568090966
0,0294834777700582
0,0331081797048921
0,0310365498052812
0,0309451906998829
0,031830689402688
0,0319328432733913
0,0322582291759592
0,0322984830353846
0,0331712048518544
0,0325287266835059
0,0309133775775203
0,0322531318288316
0,0303963400677025
0,03287966303908
0,0305261641797756
0,0292928569395923
0,0300180809712125
0,0310009267321849
0,0304951499830506
0,0321106100712054
0,0304475886367245
0,0329018108384527
0,0297665161234483
0,0301529900892124
0,030895346792423
0,0315683731796035
0,0322443445686698
0,033572952732414
0,0274462932272119
0,0336360207771649
0,0304221857634962
0,0298158633893338
0,0280902057890977
0,0325009199759657
0,0297538393393695
0,0301594516789552
0,0271581366096936
0,0294117614041767
0,0283582297839299
0,0310957826235894
0,0278905903019443
0,0300274114493973
0,0302732784383977
0,0312424702679697
0,0304796858855709
0,0317854360469259
0,0257821471258334
0,0312556874653783
0,026141393645737
0,0295195418260473
0,0268293038023671
0,0291914951080929
0,0228733761938591
0,0317346331651417
0,0278518999422797
0,0296923906328076
0,0251295031636424
0,0297724944017595
0,0279818122860053
0,0275494102905107
0,0264956599078272
0,0300762727146343
0,0277184815524502
0,0270336982074963
0,0261892302394297
0,0303371761597194
0,0278321749878312
0,0269042336175773
0,0267782962202417
0,0276593817478038
0,0272180505197787
0,0276945832157149
0,025526902800496
0,026229951632025
0,0251920268385019
0,0248412777249641
0,0249544270569644
0,026509669703378
0,0272695103753402
0,0256182793283849
0,0314772885582804
0,0247840324299092
0,0283294722153962
0,028224224170601
0,0294814617165642
0,0253605213183059
0,0264320955903138
0,0248576616422338
0,0254301982444122
0,0249444756825066
0,0276023228934483
0,0268855694453463
0,0247430672939613
0,0240389624549171
0,0246787502248804
0,0244525679445362
0,0253439126623984
0,0265678797173372
0,0264109014560183
0,0260969859624439
0,023812260418736
0,0231740855212271
0,0234119120418598
0,0252075298569642
0,0268595720676425
0,024491046059534
0,0291287757360051
0,028040043828675
0,0249540072988946
0,0275477441534433
0,0225747417478169
0,0237544200190894
0,0226763073735272
0,024704598522616
0,026913970274083
0,0275744150174181
0,0246915488793627
0,0240937280533414
0,0228124997033842
0,0279065659053287
0,0258853370195477
0,0259692245724334
0,0252192166821637
0,0242034730805434
0,0247590313104594
0,0255937581803809
0,0234864349845325
0,0244152183963601
0,022866881401312
0,0280459167734213
0,0245890947801441
0,0293599774866371
0,0207519094824962
0,0408383225671508
0,0186892812614095
0,0260367114010095
0,0216688275664329
0,0256690497843957
0,0226619721980226
0,0268302358262967
0,0223436554570742
0,0255008240576181
0,0236659831170028
0,025408762111365
0,0221990430639473
0,0262418136607607
0,0208836541529285
0,0283008415282667
0,022495403411926
0,0239617629937506
0,0229336151953944
0,023250152724772
0,0234142988098071
0,025562934479282
0,0283648304055568
0,0301078818787712
0,0191076420971255
0,0299826961462078
0,0194553697194113
0,0316068944153783
0,0287962956325798
0,0185649015409531
0,0257506630632648
0,0208443816409529
0,0279049751744866
0,019661314590194
0,0288439139816004
0,0220096202706089
0,0318449983154008
0,0205255746790549
0,0273054325460537
0,023658190978516
0,0243705442504164
0,0258149571300223
0,0253261594524587
0,0241483262514222
0,0242523827491997
0,0240900390885631
0,0215081614650052
0,0254464027218234
0,0241923781109094
0,0228777939166337
0,0241437599946
0,0232434465927403
0,0293041381607796
0,0198532261736648
0,0262678435125388
0,0195049142612813
0,0278694015377342
0,0236981237285149
0,0362755146618011
0,0191862446419022
0,0250959405399694
0,0232741893483947
0,0229434401443265
0,0256821396834354
0,0238838023964609
0,0233030259241101
0,0209230768235609
0,0233284031687688
0,0248584870365381
0,0275869051332653
0,0217310055500666
0,0246110677739915
0,0221142139827362
0,0244160352607505
0,0216920033650264
0,0259435805198272
0,021016535607121
0,0268096595050565
0,0260870961385013
0,0283784477795491
0,037080542995967
0,023147658172769
0,0333337017238922
0,0219084056228791
0,0281389452696688
0,0194123110552885
0,0280547447785902
0,0214957722938162
0,0256527149836707
0,0210149858643533
0,0260210217785242
0,0235428385326505
0,0265429899703646
0,0216636245627261
0,0265344919434602
0,0201241266291113
0,0250092154734922
0,022046519298003
0,0244142188604246
0,0217112168737025
0,0260358113704635
0,0220951401546389
0,0284241446835589
0,028960430872723
0,0244163778968127
0,0333051729162625
0,0167769012104638
0,0477871465529738
0,0186414907862001
0,0349047600571498
0,0196682611941824
0,0273797580198077
0,0216285169787448
0,0266489424395062
0,025826882206422
0,0248042206200648
0,018752754437671
0,0280337336649033
0,022707363646017
0,0250312087916249
0,0265212995816777
0,0293624300915726
0,0359108604433985
0,0328465295537926
0,0203420478878462
0,0329303794264074
0,0150882637084325
0,0426534739299072
0,0223370011939064
0,0238821552632609
0,0281339450127488
0,0227147043849033
0,0256178963804043
0,0238783884296052
0,0291965003665624
0,0272995675402861
0,027827818349374
0,021688526688629
0,0270874118625892
0,0239759889441757
0,0231045404005452
0,029373168467054
0,0260196538473844
0,0312173543951849
0,0246726142694843
0,0245707557690942
0,0280938474133281
0,0247243056332386
0,0278471396682476
0,0249303909939227
0,0314178906626386
0,0238552279074651
0,0321221361532022
0,0273179675892334
0,0302568518291072
0,0329351171390531
0,0250093248696253
0,0295129204587536
0,0353988690301558
0,0193524553009299
0,0368399675475718
0,0129096299263027
0,0583030197823522
0,0192252429638
0,0402533058138112
0,0243352421547155
0,0293092686823058
0,0261892619644033
0,028717121513807
0,0257310807540338
0,025414406982473
0,0402041206578195
0,0168362362177738
0,039632268367257
0,015169097301185
0,0415308522649232
0,0241496085377327
0,0352486663345091
0,0230496748020942
0,0339517600822173
0,0205617754155133
0,0432350383334064
0,0232020801839319
0,0485054130627031
0,0348404334810752
0,0263442618246608
0,042619644192914
0,0305835533611735
0,0356837801753667
0,0393882380486738
0,0230557350800795
0,0388626004670439
0,0220491921785247
0,0397023472067002
0,0241892214777671
0,042183873112957
0,0366925482700348
0,0283504980956882
0,0362349312561148
0,0387333790879774
0,0363827910843584
0,0436366783816749
0,0268195965991858
0,0389030328722223
0,0311263991376
0,0486720291779619
0,0120173311270696
0,0713922028479254
0,0150089332390029
0,0674726775404921
0,0272892648847868
0,0495162395539906
0,030179957754255
0,0476722386235565
0,0353441022717361
0,0504927384332862
0,0321715887270997
0,051634688762409
0,0270691287367861
0,0570928517821401
0,0360145282938282
0,0408967637750696
0,0463943980410868
0,0467801880561638
0,046752819639128
0,0768324461331771
0,0449264284431139
0,0516230674143407
0,0457777239776617
0,0496937088806494
0,0517094751865927
0,0412609632000876
0,048136219288763
0,0445997531274556
0,0472080511299789
0,0528428848005163
0,0468346836985419
0,0539469293233062
0,0406607388743755
0,0566524110697552
0,0432058652395025
0,0735463008907891
0,0543429709606954
0,0670266862237763
0,0610422686932171
0,0491111599576064
0,0687788411239464
0,0511912303926379
0,061029801023984
0,0549011128056981
0,0564295713575113
0,0584820092376446
0,0558144773962364
0,0669706245177419
0,0492443083999888
0,0796500773716707
0,0577402900832649
0,0780212262897794
0,0615225618101809
0,0723800542016401
0,0835573209109288
0,0251568482764865
0,106121907628019
0,0529939641684202
0,102423616600505
0,0645701111840698
0,105699727001092
0,0862498997735954
0,0825890440905871
0,0810777514668176
0,0924932441213943
0,0863121100337261
0,0992708174626143
0,0951203576024779
0,103136146847849
0,0998805392833453
0,114766399377101
0,101622728328834
0,150689291288203
0,126402637931968
0,1267288901486
0,119112792567343
0,130745310042488
0,125758196780775
0,134019734200241
0,120383773602029
0,149065740843542
0,122188298670876
0,161850869058289
0,141968710858984
0,146953045708319
0,155456255144845
0,144062469722088
0,181173414490343
0,137354353060525
0,199542071262191
0,148790044935439
0,184192260532052
0,165138602228206
0,184937392388364
0,182552002842914
0,180747126143231
0,192595165968784
0,183432011314827
0,1926571399115
0,193749792680619
0,196650567017477
0,203132506541006
0,206048055991045
0,214212587794944
0,206354663084596
0,272437499612098
0,100507241968772
0,234246336485139
0,192358049928919
0,216726190125567
0,207037427241767
0,213067544773254
0,229868734922266
0,194753938432356
0,223574815327917
0,206968171496032
0,207965191157362
0,213590865657865
0,207666369762653
0,217075746107762
0,204844128701666
0,225537693808001
0,187198021699465
0,246705616163085
0,16865854643867
0,247116877369207
0,208630246666891
0,214810782826239
0,205136538764763
0,213749079916303
0,199720422077513
0,214368330040693
0,200377904631806
0,209688135567639
0,211986232992275
0,198267912552251
0,212465619254859
0,198171947703491
0,21916729752108
0,20149817152913
0,192871353747133
0,202135528592228
0,187820749030354
0,211064942197324
0,18029200851872
0,20915877741085
0,204249059260877
0,184845662878796
0,196625189112369
0,188101368134285
0,187711613252684
0,192691146687489
0,190850867948386
0,188366991579846
0,190010613207759
0,184449074896482
0,190001430521423
0,185528370292801
0,194581578843506
0,184469390994929
0,193920216301892
0,182108243937105
0,192723804354514
0,186734149254594
0,190688890521403
0,183715884145815
0,189033716782028
0,189109215377
0,188282243828384
0,185381965261092
0,188769253088778
0,183496413632368
0,189030613922276
0,181123884121631
0,186192668860542
0,183513395089115
0,189574777547771
0,183539850697597
0,18616897300848
0,183720580665194
0,185674469381233
0,185364074635671
0,183834604499147
0,179543868677473
0,179528653055517
0,177979776758529
0,176000785621011
0,197868494398116
0,149495943598593
0,200516329397946
0,1736845012705
0,175726467813204
0,169430197758276
0,166320462830584
0,181705922245443
0,15961490250895
0,182901596476209
0,166259087328843
0,164630856314599
0,16729636244321
0,158997059630825
0,158108270712858
0,164050713134098
0,146716722995191
0,175409881307256
0,112867935676837
0,21862705842164
0,173277440867292
0,176505846357172
0,150412774083342
0,157690910699902
0,14911675379735
0,151307959733688
0,160224379658484
0,132202476959367
0,160319766414907
0,119750330205572
0,157449575233039
0,141021293835175
0,139398880616656
0,145935595746515
0,138682990100118
0,15038016951631
0,15237415744302
0,145375396871486
0,145008659996676
0,154045254837737
0,136221931568461
0,168575646022413
0,136073951679993
0,136055481756604
0,121122218054249
0,133181936103859
0,144138766707022
0,113793744655515
0,148734331031156
0,115966900802568
0,131393272676648
0,115983208582297
0,131119244367458
0,128106861131296
0,12089395187836
0,137497379195117
0,104619198560724
0,144898814916087
0,0959526717469218
0,147341405390786
0,105269830438391
0,139466352793519
0,114092412547586
0,12800423429437
0,119327001761891
0,13224149094976
0,12723701154386
0,107525123102065
0,114823591477779
0,116170307688858
0,104053669335431
0,122828023263436
0,0987954223510633
0,130271515614916
0,127675612725366
0,129945121182465
0,141833500465979
0,122067429175822
0,110678272782636
0,107555815355834
0,0989392757324736
0,115477415308976
0,0935792120179555
0,125647392011798
0,0839117586637526
0,119060816101339
0,120176791296882
0,108569457901893
0,12339781770171
0,110568953529891
0,110362868192796
0,11903340617684
0,109873840020264
0,136007670330878
0,125142089951962
0,133216337656023
0,120243057334604
0,123667824072202
0,133327636118489
0,122832067796826
0,134089192234402
0,126492633535621
0,13909308869548
0,133536070199302
0,143857253571961
0,143649979313678
0,14463233572954
0,156794523129835
0,163321736914274
0,148373423657842
0,183428191060509
0,143632262759349
0,209574710561912
0,155727893123282
0,19243697227282
0,175732059600779
0,179885467208879
0,188187907880314
0,184483441314654
0,19535183502985
0,204160697138609
0,188396884113676
0,212424239728937
0,192369789635097
0,21598037348712
0,196596486478164
0,223528886470297
0,200597353279237
0,251773308359835
0,199728583084433
0,232758879660183
0,233876117091982
0,219016031357539
0,230024565658437
0,216931479336916
0,227535560672227
0,22262040848999
0,224881291609557
0,240983588205978
0,224056648443404
0,239262417943678
0,22628691121467
0,235413492781513
0,230778696571038
0,234361024619127
0,236653811244938
0,235965523070666
0,245839539361716
0,243932189281664
0,243470557774424
0,268018926887058
0,234119453824145
0,265755256356517
0,24914742702696
0,264114860392413
0,26253200916141
0,254119707571912
0,270167800105981
0,267855711224547
0,273168495443716
0,269260378908205
0,264634416725266
0,272590059116098
0,266354679536579
0,289989231221322
0,262807636704017
0,294619874094467
0,264540990914847
0,295109310688859
0,285748529756278
0,293047125870039
0,30897389303285
0,289074432927544
0,302672201027384
0,282456525390268
0,296519659839715
0,286505666481832
0,298099279324805
0,285706760338387
0,297389185174475
0,288533187392816
0,292960672965632
0,290077006657273
0,287643495633964
0,296411524515225
0,292355718845119
0,298234359192827
0,285237013156138
0,289487338869913
0,286104561888085
0,297765946511329
0,286866514310401
0,298324587292552
0,291619776864082
0,284260037029534
0,296585524175626
0,287596231218802
0,288316860596487
0,289929255417209
0,281515773762097
0,284924281911024
0,282649931206
0,289176110896117
0,299056332556687
0,289367110962732
0,302365323311244
0,284124779183251
0,296037802763564
0,288827543954802
0,300118590213365
0,290030800613623
0,304889258134767
0,292526313438447
0,309426452249685
0,299416985289826
0,305766199629626
0,299788806915773
0,30517697025505
0,307075366836781
0,305896135133047
0,304231140594004
0,301121103638907
0,298980375245719
0,306008445675803
0,299045896626478
0,30298643474972
0,292956423298125
0,298453154505484
0,280854410187457
0,306269687062839
0,276380670325909
0,295650731700207
0,286915996145752
0,281660483773416
0,278428271639138
0,275578011229296
0,275475199649225
0,272359401396907
0,27060428198166
0,265206419761861
0,270233008744068
0,270622545822146
0,263416602935981
0,263801949562872
0,263634988355605
0,263020961883156
0,25997906364417
0,264123217314787
0,26059767235406
0,263129188699191
0,25759314660212
0,262366783426527
0,252381119742014
0,262704333746445
0,260975135131653
0,265826668454768
0,260579948179153
0,260702713039575
0,26408265985202
0,253534051439813
0,260807951425567
0,254604248766153
0,258064610478841
0,254004997050982
0,256039124903455
0,252326284921949
0,257894422846926
0,250974734805475
0,253907686198711
0,254258433789436
0,253225854146917
0,248460221070199
0,253403408346527
0,250390566160077
0,250523917862764
0,248901814533507
0,251181876240318
0,249784192673867
0,25000532882492
0,254233282279877
0,247823870445463
0,25519331426591
0,247876307242445
0,252817158900887
0,248925737267553
0,251229396015763
0,250120976076844
0,249456701250688
0,248494902004094
0,24817556522416
0,247788166178149
0,245318703256611
0,244732284075058
0,242846741650847
0,244248757371869
0,244164558909635
0,238582910277445
0,237647457499409
0,239096740362324
0,236163169099366
0,232406954975023
0,228871527195529
0,228854640514123
0,227365673276311
0,223148549242179
0,221719939947207
0,216756942946144
0,218465579955935
0,216066640598884
0,213667542501975
0,211401844253966
0,215195168919324
0,210528756372251
0,213006051461464
0,21143857839049
0,21046465960783
0,209267160734443
0,208970914463244
0,208949911243746
0,209147325386051
0,209274974024477
0,20857586214835
0,211313514571713
0,210806008811131
0,208478715037756
0,212510943323309
0,208459495221879
0,212624676888118
0,211769730364962
0,216674759855249
0,213942291506308
0,215983677400659
0,217710398984504
0,216645143428789
0,221017405101351
0,220082303010849
0,220280737462391
0,222634222408336
0,221110951434396
0,221623237506702
0,225379998853789
0,223112916729475
0,226034816551606
0,224575929646786
0,223387169538161
0,223540611521304
0,221391503960793
0,223554795146358
0,223223387274972
0,221085027863673
0,221891594042123
0,219403630014837
0,220724233826092
0,22021747214937
0,219323072635038
0,216736143821589
0,21605346834632
0,218887861535858
0,215794618356135
0,214349731515287
0,214315609025026
0,212687090960474
0,213409819259715
0,2106583836494
0,211139838370803
0,211415849076357
0,208483743886128
0,208699672373903
0,209249458256811
0,209747358887126
0,208117637330207
0,206969973584975
0,205392017755202
0,204844126388255
0,202999129368531
0,202821323207752
0,202544485441974
0,203510598867473
0,200432430154978
0,20028945963989
0,2005003232371
0,197713336544798
0,197483286190416
0,195791773429503
0,195796789981424
0,192948962167772
0,193083724121935
0,191830074347106
0,189099274690423
0,190268809033028
0,18949505970884
0,187344241474441
0,184209525149262
0,183866617209326
0,185573312930692
0,183342601415474
0,179144366494093
0,179682074803926
0,181828596172143
0,179782746085581
0,179748628409281
0,180504940281386
0,180237569112302
0,178987931287614
0,17635475414303
0,176320376052091
0,176125280608118
0,176794842419098
0,173529353965634
0,172562733883675
0,172496579493005
0,168843436786624
0,167653769366703
0,165081263586623
0,162659044958186
0,163630171837084
0,159891681241297
0,158091567393423
0,157279948309399
0,157572063090754
0,156008197612183
0,159211464497608
0,157874795771054
0,161813024099833
0,164576635113449
0,168935521164987
0,172276820622733
0,178239797175655
0,185293234818376
0,191880758909706
0,198861515831022
0,204812848899771
0,214318120330511
0,22375557090989
0,232146891851966
0,241522379814161
0,252585336182548
0,262574388922934
0,272259651987602
0,281635400330017
0,289206671900685
0,300059071485789
0,311806076986765
0,321369101236392
0,331184382915298
0,341571637987115
0,35070319452221
0,359484639682477
0,367158089678795
0,378739247384458
0,388725466831055
0,39231095468148
0,399043914981759
0,406144983733622
0,410591248730722
0,415313914101899
0,41859979722148
0,420081345093205
0,42462408011751
0,425382633607916
0,423478238696109
0,426440780248582
0,42260005505983
0,42611757528273
0,426246577730852
0,424718570132578
0,423074635748198
0,423808307689478
0,420025108163533
0,425556526398483
0,422141328212713
0,426283417414625
0,421045318463658
0,42452036222882
0,427129758350888
0,42861528453269
0,431253755577002
0,437346059118387
0,439365868578731
0,443444411820332
0,442868152690697
0,451506489405951
0,45508573389185
0,458747859489568
0,465428845159039
0,474255971260156
0,478581313969319
0,487721772200324
0,492351574635598
0,499987132913977
0,504814945232043
0,513465685675375
0,516271922829252
0,522132802359704
0,520011524891327
0,526205425639443
0,526270073874958
0,531563896383865
0,52400559140673
0,527870936636538
0,524640263028622
0,525175738963291
0,5254285752472
0,521795118088324
0,524178672069783
0,528003217296723
0,52661949372709
0,532836881865832
0,533623596598494
0,541467475771589
0,54638242933693
0,554417692205962
0,561310212640153
0,572572149752399
0,579577583410424
0,58411456857834
0,597142831853965
0,606272472016613
0,610413720695859
0,621610524894931
0,635276292281977
0,640035088424713
0,650807130588272
0,660819131827967
0,671380311217759
0,687316388092218
0,694552144934332
0,709495075547118
0,720989647391624
0,740677681516432
0,755296442139441
0,771289086997701
0,778865348725419
0,795182216461786
0,799289873945352
0,816956862513871
0,825582565765634
0,840365432824543
0,845667017898911
0,856556159445776
0,865836747526587
0,865947005685953
0,870787152440788
0,877324683849609
0,890971233022338
0,89566018028276
0,892731963622028
0,891159499080452
0,89282303137406
0,875663890539728
0,874922955135885
0,878770457322167
0,869145917071133
0,873426094747683
0,872682662082744
0,875231979468564
0,864845051377343
0,868074060927197
0,871461033382678
0,875632140897289
0,883068034825753
0,897617349958094
0,908861743010308
0,916821283667308
0,913314186645384
0,921264419031321
0,923850998484444
0,942370693033
0,952920045456605
0,965928704372735
0,978035750761934
0,972619512626358
0,997828130727744
1,00260223047289
0,999500326440179
0,997430204639246
1,00614316850362
1,02462507851367
1,0183550935167
1,03633042579816
1,0234820071727
1,04398227473673
1,05613138200304
1,04472124343229
1,0671236752076
1,08221588329004
1,04776360122235
1,04656350520553
1,06315261321263
1,05451395488305
1,08033248382372
1,06358331922562
1,05200573075159
1,0588403981735
1,03397742798332
1,06578279100128
1,05051301229604
1,04003505936083
1,02356913704786
1,03460237363067
1,0067383066239
1,00364244333549
0,98390308360534
0,957360572775227
0,940191574705792
0,911985868950344
0,881079741993054
0,866347767016231
0,831277854907685
0,814003178209574
0,768573002522684
0,74862050904947
0,727295935144509
0,701867519992628
0,67929663310614
0,652769520934345
0,64661584870849
0,630819061590991
0,622933652885316
0,610398658924645
0,597788282064334
0,596389653909373
0,592683889017638
0,590002337069289
0,575555336111652
0,570041805346568
0,561680749745438
0,549365178487691
0,542758888914037
0,529847186104365
0,522663743556132
0,507064753761358
0,490735316888939
0,487390467325379
0,467331675965447
0,453979915339395
0,43762173682377
0,422360649387373
0,407337590003982
0,389363301893241
0,373471639104776
0,361199581292992
0,34422353999163
0,324637884900941
0,31128071419364
0,293925432515028
0,277022903322369
0,263963914272339
0,250862636368507
0,239018991770692
0,229116595326412
0,219348714414361
0,207223094765898
0,198446931592284
0,191164669126605
0,185743473221092
0,179130565973734
0,173204224049347
0,169119087268964
0,161218936455563
0,162673192394003
0,160680678463665
0,152226003409523
0,153174289634036
0,152521539203826
0,152628996660422
0,151724526622033
0,148374247056739
0,152703188774442
0,151351084614944
0,152034513614902
0,152592762820116
0,152278110806631
0,154035418282432
0,154201907283972
0,156683193596148
0,156677267598719
0,160949693199516
0,161983675261759
0,160993839822688
0,158558525133753
0,161241711595427
0,161148582337891
0,160548462832238
0,160361274631084
0,159031634584936
0,156468676428429
0,15439571530013
0,158343519155322
0,153166357920639
0,155389611321488
0,156967084725009
0,155524396044962
0,158960484448594
0,157629505616306
0,155393684724848
0,161711145810812
0,164492309446788
0,165339047909033
0,164153616380632
0,16431162982428
0,16171077434006
0,166386342143528
0,169644377734724
0,165325063119629
0,170480418943028
0,16880894583957
0,171449997916466
0,171945941424939
0,172324559249924
0,170532047473852
0,170008176644308
0,169354275034405
0,170826637041508
0,171490547863081
0,173673030218013
0,171043332192093
0,172565026973081
0,176650859159823
0,168487400141108
0,174525077384596
0,176416070812287
0,180617212590971
0,183686239447067
0,183672490229967
0,192432014076305
0,197302062462846
0,200794306789406
0,209846061291894
0,20902583783493
0,218230588308681
0,227295691650735
0,230317553396232
0,231123867116818
0,232417319125536
0,2306364149758
0,228927575064083
0,225871459918352
0,219353025690974
0,22207243437792
0,211183540001202
0,20360328476058
0,199505172801766
0,202339983246296
0,201242078548582
0,196122693732702
0,192897525379532
0,197864172437632
0,200886170182392
0,195673654177582
0,193803304570538
0,203125408878802
0,196961831007834
0,199279415272053
0,198195612996461
0,192056721447331
0,191942126262326
0,194970299296318
0,194005171410993
0,18788050721728
0,186352030434954
0,188442628001826
0,191016282645358
0,185185827479422
0,187556382789603
0,179725254307837
0,187698153523971
0,181218213112722
0,175353585886179
0,17451161564516
0,175933170946837
0,175579283018524
0,176389009113195
0,178943046664162
0,176455506078094
0,174041025423398
0,171257241281105
0,167084889054194
0,169850219296158
0,171607904910194
0,171763152878255
0,172036660226262
0,16615967407887
0,167224855705877
0,171019281666672
0,163885835774276
0,165729721033637
0,153696881061739
0,156646771642239
0,15074694133622
0,152413975289958
0,152825378713859
0,1576120503668
0,161568316832441
0,153737946368782
0,144022040894321
0,153214543786065
0,153431898737173
0,154140105978322
0,14936507068072
0,147493238275869
0,145612994465044
0,146887920999504
0,143934505921971
0,144763353292631
0,148826439796204
0,140352559515906
0,140610460916745
0,148744161914631
0,144860813510737
0,145228574506843
0,148781244334455
0,149862459967234
0,147756238219935
0,152181493633446
0,143648068887713
0,15125233065897
0,153283364575568
0,160896338694473
0,151906420280151
0,153911010330193
0,157397766567047
0,15515354233299
0,151210218485532
0,160876826769212
0,158716115365723
0,166311306135495
0,166552327999163
0,171115962789164
0,171708295656697
0,168870853928104
0,170824114832492
0,181072204945574
0,183840509602968
0,184658243093143
0,193580019365385
0,193359788469979
0,196553637127987
0,203698903975937
0,220944885727732
0,228755820024813
0,232477892056868
0,237856911779446
0,241816995874408
0,251426477757296
0,247480805984908
0,271445088616319
0,263171345454265
0,266133465201767
0,279787514565808
0,279187913912753
0,292170700428868
0,287181090293425
0,275616287901519
0,281275716178732
0,282223984291398
0,271491764716444
0,257805459276491
0,272473715137326
0,280502375759108
0,265598348934418
0,273171179997567
0,280217832733847
0,265806541564059
0,273710341920824
0,26344640083801
0,265209663492079
0,267592129833674
0,2739426483186
0,274011436163077
0,24225271063963
0,2500598157047
0,266328801091608
0,255634715527016
0,264758421316584
0,255257155771369
0,264027094968366
0,248022392899179
0,247296035609825
0,240338658752132
0,236061811389895
0,240394070984366
0,256699783926752
0,247551301105381
0,252019288962107
0,232473012973018
0,235647966848125
0,253964713411535
0,243587376040786
0,225635353005188
0,2400420196807
0,230854975144165
0,221557854243771
0,22146206627806
0,242418657526658
0,235667104966268
0,249795106350894
0,244719631445013
0,239867294534147
0,254740389168949
0,249436860136048
0,23048207587393
0,248598663387743
0,251508772100296
0,256340772024114
0,261236373762823
0,244797858053295
0,235105460357187
0,267279641819326
0,258149425478212
0,255499950764566
0,249825810304791
0,258611077620633
0,258048739918512
0,265925980567243
0,244471572848544
0,251544028840293
0,281974237339817
0,272769780616422
0,258400422379322
0,305047897506262
0,292949826055722
0,268188639015736
0,25475546529302
0,274765301614922
0,281576654870933
0,31851753233622
0,329276972413265
0,323689507513246
0,330540013861212
0,340994883623423
0,360804041234663
0,352589782209913
0,31120502330556
0,355733814699509
0,34550661175335
0,386089252643742
0,367589615288747
0,337131213093866
0,376592983613924
0,382278230663414
0,343010890068692
0,300975603468597
0,313215619317287
0,335414195278863
0,298135923969033
0,350179117044791
0,292969746817971
0,307449657234661
0,320368429217667
0,311044247351817
0,316469253027284
0,310513674656221
0,280276904584175
0,298143544768122
0,292074035462969
0,30794148635406
0,292988057064468
0,317945405274919
0,303826017826634
0,322440792854836
0,318533615055824
0,315348186040418
0,353300175579136
0,3852732158815
0,369697813889922
0,302486350429759
0,287566333724041
0,31309195792994
0,304644537048516
0,34490723670972
0,25970541021645
0,3168086215826
0,324338444971861
0,304893018107016
0,344891885943255
0,419909137384897
0,292322399581678
0,340032468622733
0,39193242608521
0,408935588621999
0,429156957519984
0,462356722457585
0,379378320390229
0,312362523159354
0,368828939117198
0,411085412553889
0,279229409910913
0,336081233469886
0,222880507819461
0,364667580496031
0,561536028882208
0,38466557252501
0,114922370854091
0,469199634485181
0,373070814254555
