3596
4000,36533379555
650,420452594757
1
2
2
0,0411867592543275
0,0287904007534488
0,0364326204083467
0,0187207894847665
0,0283300504754169
0,0226656915485814
0,0312974994506992
0,0331626511850819
0,0388466693558201
0,0270186585823425
0,0435451474251588
0,022794591183201
0,0285018968983153
0,0261777638173139
0,0321035490359244
0,0207267019772759
0,0326201936491196
0,0324954021923699
0,0371796247711534
0,0230563379458418
0,0344755613971826
0,0266431180383448
0,0341467378036541
0,0216560469957338
0,0375135374919361
0,030606970326498
0,0316932329440402
0,0238532610596747
0,0312248448111797
0,027011822595028
0,0323692269545086
0,0259104162765428
0,0365113232693544
0,0254906908143197
0,0321645492802791
0,031877832325175
0,0319841782534463
0,0248436939433512
0,0394969662171735
0,0326584734005596
0,0343938684617238
0,0252372283806963
0,0350937886252472
0,0212957570303013
0,0360905042385179
0,0294630200456099
0,0275365464524596
0,0224739846454267
0,0421514715987441
0,025870170625252
0,0346646976610064
0,0205472447036243
0,034080137847091
0,0290308127001251
0,0317202281979398
0,042990287681937
0,0420026948161447
0,0220222518574883
0,0353120168524954
0,0310134195095313
0,0413702906582615
0,0289061123154157
0,0291725308845728
0,0207425466903178
0,0341684491841707
0,0216892556511158
0,0356218000717779
0,0235477347692988
0,0349172264214019
0,0249263481803411
0,0269831998228567
0,0305666979035684
0,0420645706197074
0,0222538871588693
0,027470683495708
0,0248261383933148
0,0345527193332572
0,019467400112905
0,0275924004335324
0,0280088673350255
0,0422137114506818
0,0321160633701563
0,0353748633445435
0,0253322144885713
0,035415248337942
0,0243534006086011
0,0253201189467038
0,0397209669425334
0,0478227582486524
0,0267083398423636
0,0261386423985881
0,021236734520529
0,034698289339453
0,0191214645733753
0,0289265724537127
0,0229100495182205
0,031699765580884
0,0230725306956487
0,0315753873160704
0,0189400094598871
0,0344863895522581
0,0576353615993372
0,0360513862994246
0,0325750001642185
0,0176968987897693
0,0275628457775406
0,0483750969100227
0,0347808630485051
0,0405723739654399
0,0226814751770625
0,0304738607361016
0,0199913626440329
0,0336356390137227
0,0197372720222963
0,0437942824819762
0,0383199729140055
0,0383893100337637
0,0243329969014184
0,0317171787850012
0,0207028144937263
0,0326238859304534
0,0362284389385002
0,0405645855357112
0,0302564261141104
0,0301798289804409
0,0211056096152434
0,0297839570045056
0,0379075306928654
0,02839956877793
0,0233949542568464
0,0218301897149808
0,0207339007249418
0,0271507655467263
0,0397301073154049
0,0445991673617567
0,0296994359320156
0,0250011923708531
0,0243054715401395
0,0357256627318335
0,0247928987543788
0,0334730594555798
0,0190214347837145
0,0288758460676538
0,031984565194745
0,0410339783047176
0,0225405132235577
0,0347422135319429
0,0378132080702314
0,0273222002445391
0,0244469612085043
0,0266002978403208
0,0283706281930791
0,0279825877770926
0,0237592126844603
0,0359021899605182
0,0333187245538737
0,0516474016802899
0,0427962708673551
0,0254183924817217
0,0263200515567336
0,0220241769012225
0,0332658129313994
0,0250295878323554
0,0238647678080125
0,0213013064349203
0,0314573707134318
0,0361818654384368
0,0255127819503924
0,0366238633225951
0,0310238797224377
0,0492139028458436
0,0283357718306885
0,0369853588437136
0,0134277316405679
0,0262662493360112
0,0365561418372825
0,0298997833295737
0,0227918013154492
0,0248961123279242
0,0352940255476861
0,0227188843770284
0,0222073586620748
0,027159972604213
0,0302706841594097
0,0294264092326045
0,0295972895337435
0,029597998674611
0,0277179595098419
0,0260451733333051
0,0356692334667457
0,0320867950913873
0,0437992648030517
0,0357152318742291
0,022556928502865
0,0189089657395451
0,0389101118264174
0,030797213361546
0,0272258958114692
0,0295108141845771
0,0291547602051923
0,022760385332485
0,0163836357439764
0,0203493238438865
0,0185460928510209
0,0194343807032671
0,0403473840388995
0,0276164266069638
0,0292392821604468
0,0231806477445205
0,0303049322123021
0,028729846454328
0,0336884965609981
0,0459009822458891
0,0366675448800669
0,028900956079899
0,0191297507990046
0,0363935369301078
0,0375644493130956
0,023221313151871
0,0256124950521387
0,029759219058062
0,026577196139799
0,0213013613022537
0,0213053449257729
0,0199528817009922
0,0246391745095607
0,0234030999261938
0,0260269187645462
0,0274678474100403
0,0281762393677817
0,0358080792718767
0,0270398997522212
0,027367654297504
0,0232358270586322
0,0276847404664891
0,0354835975432309
0,0167243367062792
0,023289514586661
0,0245620589018938
0,0279804916280895
0,0242405736520518
0,0256728265046857
0,0242479636087819
0,0289699952091908
0,0219715992082187
0,0474343774789428
0,0294727838094238
0,0343547792592221
0,0172429350195945
0,0306637741875926
0,0362309924013741
0,032008564111788
0,0206215714212919
0,0177524413331953
0,0262410004485437
0,0255379730484449
0,030565535887467
0,0419204035495522
0,0302417923311827
0,0276820970997795
0,0261892041952719
0,0314794322109755
0,0305437097947474
0,0216749414409832
0,0474089879793343
0,0483429697975041
0,0396910623647202
0,0412065341565253
0,025788540569918
0,0358428185098712
0,0374482809711521
0,0327773597097655
0,0597922791044742
0,0411706161700169
0,042399949745626
0,0278839877009947
0,029216446465909
0,0329467411105256
0,0321633300080005
0,0318705608373662
0,0309924470062246
0,0448042048295568
0,0227762317948762
0,0499576195707115
0,0183669671846247
0,0354813917364267
0,0390034495586444
0,0357834838905724
0,0347429075594671
0,0313211323240652
0,0257139919225888
0,0342410612774234
0,0348233840055093
0,0348698610271011
0,0377119030378489
0,0284806430655444
0,0428936594686841
0,0250420611638016
0,0370117912937774
0,0271439558065971
0,0361834684199801
0,0333555103721628
0,0331731575183611
0,0264252046339279
0,032991562560003
0,0331916386388747
0,0308079973228966
0,0393981011223991
0,0407599438807373
0,0368901175588122
0,0413510231052212
0,0250377389260364
0,0351034138738454
0,0261023231789144
0,0313959663124498
0,025206927605413
0,0280513437571215
0,0270852124633934
0,0346977869763235
0,0350888834843888
0,0349137433419376
0,0292425465819945
0,0265718818605241
0,0310362222909977
0,030100899212337
0,0326651100407794
0,0293221643059791
0,0372485821640582
0,0334315997382306
0,0337819287702636
0,0335904075432981
0,0412346585993559
0,0441416145572015
0,0541013353489597
0,0326426079592976
0,0369388132498595
0,0346861193900994
0,042151897810957
0,0304264906641062
0,0343553240156649
0,0341567611501019
0,0365940869292833
0,0407330387505778
0,0394940109214119
0,0365692787369493
0,0501024159935677
0,0464275561655098
0,0646765652292218
0,0487710214961042
0,0533336439729822
0,0383679149688833
0,0468905862957974
0,0496961490878681
0,0341555928845632
0,0569616297419925
0,043032451213452
0,0437882413153655
0,0390486224823219
0,0451898896419856
0,0502141492997649
0,0422388443283289
0,0444305350669614
0,046561476602389
0,0458347137051189
0,045798139427294
0,051331234802797
0,0387589977406708
0,0625380299528178
0,0580462636196498
0,0509915105283386
0,0562170276692198
0,0552612366597715
0,0591412657757831
0,0809534138398066
0,0638111018760813
0,0872214072337098
0,0525169816948513
0,108300477550334
0,0744628347745942
0,0695084689342219
0,0549650248236239
0,0676878369262112
0,0587183031810637
0,0710630952947569
0,0605839353535837
0,0735134384314345
0,0711861694099601
0,0783934219615841
0,0694643062767339
0,0804290191557375
0,0709428251291502
0,091063028843876
0,0717837816827746
0,0816528645238895
0,0756410546831144
0,0895303930128902
0,0896551797232242
0,113990378060981
0,090649295863422
0,0780890122010854
0,0914553302711581
0,085481542597184
0,0882252672188071
0,0886280783279689
0,0932401028236002
0,0930069099667543
0,10325483157037
0,114768029875557
0,0971068267673433
0,132820909080593
0,104443604077661
0,114023678734542
0,114717505478854
0,112175976094153
0,120625976106162
0,125349195769849
0,106635955756837
0,121010659911577
0,118591206629543
0,109642809012706
0,139749117758162
0,125742375976095
0,11426475807721
0,116287944849739
0,122298908174134
0,133133619926149
0,136108522851969
0,141721369569915
0,121693421526816
0,142556317021301
0,136720339583655
0,143768902790372
0,138175387290655
0,170902319359084
0,140740759855675
0,16123231505673
0,147327026222524
0,158517760558451
0,136986833156666
0,167509301715523
0,18835431928608
0,167256549514745
0,189850469321248
0,161877297716213
0,164903788472401
0,166996978906234
0,167296969882896
0,186816324850265
0,172485296167056
0,178773361818399
0,169529550603808
0,188104350652453
0,188410693278016
0,201359392141702
0,186507735566432
0,200624532601097
0,193993589619361
0,211036766041504
0,19699184188502
0,210442826159849
0,194492247151505
0,225020130163221
0,224075108799796
0,220910717624309
0,245468308961391
0,219091361910568
0,213234937085761
0,230993476045883
0,224766240423118
0,2279716554575
0,219173880417217
0,239937102709552
0,218887249997059
0,251362426687179
0,23983978407339
0,254877865117334
0,252706197032326
0,262363045845171
0,254525117004026
0,273288599672665
0,254034146068863
0,264147877711912
0,266133104321653
0,275089389699377
0,268175902109553
0,298899534333467
0,269251377561299
0,290679043981524
0,283717589523862
0,296230653134575
0,276287968289519
0,288635689467336
0,279755357569164
0,314999457230016
0,301014922794419
0,31345101737075
0,304615931852784
0,339705191161293
0,317023229558136
0,334277633448734
0,312434599886319
0,330249093950147
0,314246532459023
0,329188442471468
0,315420121644692
0,351094991773951
0,329405953681801
0,346259967938543
0,346404678415476
0,361910314028746
0,351098846278033
0,385834932430413
0,356027201145447
0,378400400217659
0,361483587392423
0,391220181405376
0,367987142366882
0,403751255984056
0,368644072613011
0,409787576866386
0,363824828351805
0,411371153713075
0,383506936584492
0,419022045061476
0,412650123854715
0,415073812039612
0,407538732292507
0,412220766147274
0,394582628661117
0,437251442657368
0,412326133458241
0,442400266536489
0,402060123332075
0,44909341755985
0,427796886674285
0,443131066217401
0,428065255234436
0,441386207653899
0,428935659369061
0,464952287837074
0,442023434204787
0,49138748839554
0,484630692059356
0,473619060820188
0,452783708500739
0,48405227750188
0,46674718789941
0,500104439688788
0,486410048017048
0,517922549440509
0,485509331340947
0,534997076401588
0,492858368232858
0,524407725656256
0,478410643397401
0,504479601970656
0,510339901555665
0,520985521536441
0,508885162630139
0,526149695066227
0,530670950834041
0,548779918764355
0,517116338962479
0,57739505390616
0,530651243820265
0,584092229779654
0,519069168506166
0,551802646484071
0,509467163522306
0,543928911309187
0,532614020238426
0,59289445844989
0,571027096388021
0,594612484001684
0,555504604371021
0,580574788722465
0,571064919556171
0,618648750420673
0,574484436843218
0,620648933079663
0,558515965555346
0,608182510079292
0,578170475998609
0,617360360347638
0,588229335583539
0,632418433710808
0,609094736605176
0,664555717834006
0,615872392500748
0,630260538964429
0,620402882398576
0,669634889059404
0,642922549442542
0,668512771219325
0,632706666578191
0,645923132436927
0,6234702901339
0,674400427674009
0,6051573966009
0,662734150083814
0,617149043471341
0,652362953655185
0,625448176670943
0,679882142714397
0,664750461162223
0,686516084471333
0,652784852859784
0,746906609473952
0,661050642598362
0,699705783826791
0,654887056136825
0,699132312492603
0,658192887655661
0,71404818282794
0,715544768894833
0,745545841769804
0,70689155766319
0,721805103204261
0,687166587087556
0,725503933839294
0,686238260279397
0,766550648593377
0,692877812911172
0,753641386350578
0,695177695342751
0,717093798140539
0,685567810068129
0,727006076749991
0,710766514336721
0,763838044347775
0,715274398797511
0,737693774227266
0,703165255223352
0,705505340821858
0,70946323258281
0,795524861157808
0,746174712229603
0,785498322465486
0,73583397200106
0,78247643700087
0,743642460358804
0,782104682368103
0,732066756340282
0,807779886252629
0,751250638152599
0,788012275634445
0,752902868519788
0,793890801952205
0,744637744180063
0,797875920630216
0,72474995340324
0,80908871557417
0,79518706490239
0,795510165717568
0,756044515694254
0,805881027140742
0,790472928326132
0,76790008560721
0,754129994131776
0,803724916456315
0,763639776714952
0,791678587105425
0,794279930230151
0,80108056115704
0,796897665000915
0,806302396181175
0,777539907851095
0,838143837466312
0,805108079234643
0,832707065766934
0,766399601281456
0,769798258120703
0,79221467488001
0,83078539993298
0,748037425391626
0,846816116848694
0,79506484296259
0,811019436074675
0,804488134151496
0,889559550601285
0,796388076755442
0,856111864701377
0,776144174009247
0,834421556945833
0,759441116520478
0,837913457947043
0,820855205487385
0,840510758288419
0,798003731479015
0,857762495949347
0,803515980569385
0,844530484587888
0,798479469258788
0,840024780940077
0,766091427741653
0,83189080739191
0,794814090522202
0,875105670111998
0,796987163151979
0,839140790973294
0,819464960192652
0,873444120716605
0,805645927243599
0,87123448957571
0,825449314531676
0,822358866280428
0,805527248384362
0,813235627744533
0,818112727522378
0,872202176431087
0,836215012645005
0,846933379440793
0,793863386224143
0,834323734919809
0,829043527897606
0,841849325568101
0,8310920268017
0,858994319505132
0,80808614516248
0,837492181454697
0,821441269327518
0,86101948413855
0,803238619497694
0,863167423126708
0,819770524612114
0,852943340970915
0,805308608978261
0,863392509622615
0,828898580830769
0,835042910667079
0,79483803039212
0,841780389726517
0,784447654074322
0,848805719847045
0,799800879018996
0,877433953276077
0,803918178403857
0,834497685403771
0,791663042390106
0,812047352644975
0,801160731795764
0,870480705726559
0,79722710489085
0,815378030555967
0,786426552167045
0,819900069928856
0,796234262702568
0,840331642293536
0,810084380430769
0,821891322063744
0,791934604754592
0,839605457959413
0,80585742077181
0,845299168993998
0,792157659677842
0,804900163569855
0,799280622625746
0,812853235099331
0,773679770204906
0,809217305493964
0,798166569906387
0,830423748082929
0,817885093708268
0,815004684756299
0,77951842415669
0,825437118099132
0,816212829434424
0,826848241923191
0,77699095611045
0,800768423504891
0,776793410034725
0,801835461122737
0,767005801135584
0,796796124548795
0,781607639806579
0,78707803726665
0,771365980063427
0,7937546845427
0,776507698007566
0,839142983777139
0,762260038437394
0,789749253753302
0,768623036314932
0,791478244513352
0,748189169241738
0,813712557623162
0,758583116734247
0,807647136889162
0,765740319537629
0,788553246687258
0,759048650358396
0,789309525499686
0,747297401514042
0,803600509921917
0,740927884566002
0,775739601178274
0,759315853371206
0,759824261491473
0,73720893224611
0,787641327461203
0,753926600809002
0,772404241060159
0,71531337685854
0,77355628705727
0,716120054149258
0,766393198876323
0,733693834944279
0,756016199262583
0,724951864732296
0,759293947542889
0,71910722179679
0,771911670261145
0,689010790485201
0,750916204909427
0,723696756033824
0,720870411697702
0,718334362213033
0,735357801201556
0,708143134899019
0,742654556824623
0,69657689691014
0,718171337331525
0,692593046038957
0,730976131400782
0,694128563555489
0,735246727491574
0,698967116812533
0,687055418990343
0,673582049239859
0,718406656615444
0,673001407497818
0,704851004162607
0,68283515818064
0,674029048978114
0,668324111628171
0,689469536590013
0,67860071809211
0,694095924365846
0,662313995642538
0,69089638277619
0,654815813185194
0,678791540594432
0,669507120406975
0,68766260294032
0,638732920536334
0,694147589135873
0,654542369397792
0,667760880898678
0,639849310385587
0,672104379080365
0,653395283161658
0,660607653706456
0,636560309671893
0,645699657173499
0,612137061094166
0,637482237638504
0,625068370126063
0,642759461868778
0,604967391104701
0,63884428352879
0,619619581573083
0,641944349018267
0,625296584811058
0,630031193040773
0,599885588313479
0,622213009665957
0,609427364160753
0,625212921804674
0,593950477010976
0,605082339272159
0,591629872415806
0,603600992503204
0,576002825544718
0,601492205372653
0,584533210130141
0,605745298703029
0,574288841825158
0,594627250810751
0,571548433865463
0,592282529619314
0,579999838845933
0,584004688610325
0,564075522677996
0,578190643234432
0,558829552713713
0,58869665228036
0,554013480077866
0,571135640770771
0,539614041335488
0,55166140164701
0,542167859315227
0,562391509924313
0,53836567649785
0,566534062114193
0,526223643503911
0,539239133162148
0,522263378055588
0,548038852102291
0,528111871113042
0,541557088707808
0,518177102512229
0,535714411275529
0,503137217251025
0,525775231289391
0,509340537671411
0,543892575721181
0,513158332666927
0,513610674025417
0,499707119673278
0,510189640257391
0,486330171042954
0,510990945471912
0,490061059112919
0,504535437539241
0,481861572494152
0,512023274130583
0,48696575076632
0,491926147918185
0,473873467527802
0,496497641904719
0,479318244664916
0,476632798517563
0,456698682156736
0,473529017354443
0,465261199212884
0,469940162871824
0,46073983359506
0,477553856118477
0,454162829290555
0,469020554980332
0,451137732338656
0,453334470208288
0,444143141879887
0,463632843558051
0,451898932399209
0,455279953151076
0,43414743955465
0,449482659473417
0,421262683112871
0,451601578083309
0,430855796729822
0,436438504826413
0,429712842600072
0,441695368295651
0,41944391995028
0,427548208478068
0,4196271061771
0,423048629443388
0,414443665350229
0,422041375674915
0,413854741073751
0,418107313629459
0,407206848227822
0,421308781524045
0,412840413853303
0,405164254103439
0,401883541447188
0,420434005208172
0,401321475102564
0,409482069444215
0,385228220443779
0,406158968311385
0,384605588544346
0,395129093931558
0,391889990066934
0,399963300506704
0,383533743784205
0,396830718511006
0,376048738883798
0,390376238685237
0,378004360116587
0,38860520413825
0,373121097301569
0,382833363573812
0,368719596552418
0,373646569863754
0,360935859053911
0,373175518309139
0,353322637156625
0,371063861883658
0,362619381641498
0,374447804448967
0,356405358910273
0,356771095080982
0,354015670809973
0,36537722009424
0,350308834105528
0,350092044425099
0,345506384184876
0,35721585195892
0,343731849755366
0,347887703058049
0,344555125893293
0,342196950010009
0,332713305546398
0,347854052092411
0,331611630705954
0,341875896974793
0,325361944470208
0,337362195260204
0,329490740454458
0,340561686196221
0,328097989879314
0,336012049662517
0,318081372517151
0,327973969983367
0,321039539162719
0,328806251324988
0,313162369834142
0,323613356621826
0,313601181994334
0,317469213978071
0,301186584465515
0,315649647860122
0,306186648941784
0,314873089172885
0,300033736305514
0,315286013959587
0,294637558590596
0,306210682505752
0,300070412331445
0,311709832693276
0,295216641760435
0,3014508160643
0,292547334294267
0,304698063070453
0,286621084153763
0,303308130091487
0,286056733078053
0,297631984509224
0,284239087416842
0,291012157603539
0,277282421837868
0,286013818622787
0,281409933390984
0,285318296554494
0,276878232492053
0,28010888651973
0,274408598456741
0,28388879552611
0,275638690006374
0,280421614716525
0,267633732720417
0,273040396707612
0,268292354631933
0,273586260584059
0,264803934242872
0,264147327257171
0,263525353707926
0,269395419200918
0,260229951526422
0,264671764279846
0,254978930080851
0,264628030897801
0,259390551149712
0,257966496025152
0,258156683453775
0,26407386517208
0,248327560460546
0,254899768282536
0,252270379588136
0,257213680179291
0,248452915773936
0,255940319425297
0,250280372917957
0,252627900742365
0,24718966212681
0,248635973033162
0,242364059001465
0,250027139737907
0,243060768559487
0,247627679473382
0,23668855054266
0,249825659673944
0,238905823650365
0,248357072351864
0,243819458796696
0,247341022989637
0,241383939858784
0,248158900268109
0,242441165184088
0,247162533911562
0,241440487073296
0,244185310550642
0,241727610881785
0,254880568640834
0,245086167493
0,247785034355028
0,243642613973105
0,247096394660543
0,241807652166638
0,249373195734623
0,24234007711012
0,256997482284516
0,250576876837294
0,257988149124251
0,247886922160412
0,260134305021209
0,25034816529823
0,259277851040098
0,251157450016278
0,258531209680621
0,257221480516277
0,26825003777759
0,260876907832207
0,27025570178814
0,262761387839223
0,273146230073329
0,257403908848936
0,2744041724261
0,265808748473439
0,270187395076991
0,26593584391485
0,279161560280745
0,269328561522152
0,276516386317159
0,272940579419535
0,280683160570509
0,279254744005406
0,284001906332992
0,275629777357558
0,286663798505888
0,284165743507765
0,292650660321552
0,297598704707826
0,297178437161185
0,293865842241174
0,304006019540306
0,29096795586228
0,308160880575032
0,304088561258005
0,314646442804846
0,311454298478843
0,316916751488599
0,318866035233125
0,321392479623358
0,32082294563704
0,333899233561444
0,323860305270372
0,330228396335282
0,333406078410881
0,333283700604184
0,333298532359686
0,34225156606946
0,33158565514168
0,349586886852835
0,347366735065358
0,343291581934707
0,341705291985798
0,342597578623214
0,333882374776952
0,348485774132243
0,339771770855099
0,351462466849011
0,346707422387394
0,348048922421443
0,336762032215286
0,345520872085767
0,342110483120603
0,344810762852863
0,33667923222616
0,347344109527202
0,329365063356515
0,345302808599554
0,341720212691328
0,343981920918277
0,350693335779001
0,342327480925876
0,335057649279014
0,341302682178576
0,341192241242985
0,344856065393602
0,336864906797373
0,341328036923621
0,336617289916934
0,339864800161772
0,336346673407434
0,34780850110264
0,335315634526878
0,34023355612509
0,343135227374238
0,341535536707883
0,337507288501374
0,346859446752761
0,329060593498966
0,341792151198668
0,336199472540137
0,341907216482326
0,339549468070653
0,339255457576867
0,339425120664475
0,345492825684034
0,335761847762149
0,345219540657894
0,329835216705079
0,333197974803499
0,329419518072861
0,335381533570742
0,328222219741295
0,335349440261026
0,329315581833564
0,334597911630715
0,325666488888187
0,327824651516193
0,330483474621014
0,326882917482101
0,321925327256977
0,326246275197751
0,312191000412332
0,325602804317459
0,323214687821492
0,320728000601467
0,315411829743306
0,315497713940464
0,31040001792889
0,316671247099632
0,311899811135782
0,309868739574175
0,30221576168851
0,305570048250827
0,294415924918741
0,299701440627199
0,295865533960764
0,299287412301338
0,291116640793635
0,295051076949962
0,292682753573657
0,291499266385845
0,277009974395842
0,285103792576697
0,277851221396738
0,282170379208949
0,276132034285573
0,278972810255807
0,271486353197335
0,272986904452754
0,267553077933397
0,26792594518531
0,262284134430334
0,265267837424028
0,262772590896921
0,260127970215532
0,25006967148438
0,257376054703833
0,252270896292158
0,253996450814352
0,246672198007253
0,251710765226702
0,24590172586782
0,248679959080583
0,239898207474
0,243638524143558
0,238624733802162
0,238197287502004
0,236619823570621
0,241677391608188
0,236314185948984
0,237992849274422
0,231882434460212
0,237390873866642
0,23029166956873
0,232355230792223
0,230134406896534
0,2274588123897
0,226323877107398
0,226843328835921
0,226124046420393
0,226728366237582
0,222859343826529
0,222099094752429
0,220300237651393
0,22025359980296
0,2160401796573
0,221892572922048
0,211172435853983
0,21107833714339
0,215532929079692
0,218859504898557
0,211774648537524
0,214303619080011
0,207698779184947
0,211210594395358
0,20247001714241
0,209718722687101
0,204693014317319
0,209454253750767
0,203148206542438
0,205208432153048
0,20247726128565
0,207821144067469
0,204852479139364
0,203349307820333
0,198183677304524
0,200819593218523
0,202058648328053
0,199262168246655
0,196660975256993
0,200456251330877
0,196977055473007
0,198261517487005
0,196546631038118
0,193905281819631
0,192136710915687
0,196112234053866
0,195550042300807
0,194671627916355
0,18648114463578
0,191557185504467
0,187030416385073
0,18995738515641
0,195045332025605
0,190088216469628
0,185802044530058
0,189207510490227
0,184284652404994
0,191112433237279
0,188127908180639
0,185139146897462
0,18482664604696
0,182524688675823
0,18127708516002
0,183100756359709
0,181124499986253
0,1816758384965
0,17729426740184
0,183475400046563
0,18021889707094
0,185046030477059
0,177903248960733
0,180123106157561
0,176885776006745
0,179947027021331
0,178112735916161
0,177447779912083
0,17788457992778
0,177951249606986
0,172910428529651
0,179126748301015
0,17705945321447
0,177757486362344
0,17372335268913
0,175376238024703
0,173952769451728
0,176666648654395
0,170039651968607
0,172353040572178
0,169130265216726
0,173146245978833
0,172230063394534
0,173834333505573
0,171928332730876
0,169716215951435
0,167598526691303
0,172650622439707
0,169636592474772
0,168022517669095
0,166398431582927
0,171738837869303
0,170373059583322
0,17117621749957
0,165948465008412
0,16887895426963
0,16904367095225
0,165500385065334
0,164006694519665
0,168468860907048
0,169022161416393
0,165949366864563
0,162594946208329
0,168156062123176
0,1589892520551
0,162688064674906
0,162908003175004
0,156692271452006
0,157922664979081
0,162671791915819
0,161171496981205
0,163467105845581
0,158896742284792
0,163815540637338
0,16159309863784
0,159035911839265
0,158236524898474
0,162182724840219
0,155281221468105
0,157594374471851
0,159965933304984
0,155110789051539
0,156483242006731
0,154129086454023
0,156651126504947
0,159084991650029
0,155873889074023
0,15457633707223
0,155987608537418
0,154660664486372
0,153219837414313
0,154242651113647
0,148056238349575
0,156318851204867
0,155295849613118
0,153958101617341
0,149851178937663
0,150951762547228
0,149184859433921
0,151516024793143
0,151151554249906
0,148352336783714
0,151705060592671
0,155939105997657
0,148386612305732
0,149235176979739
0,150944797924464
0,151503068330204
0,147563970739709
0,146297006423549
0,143802798414118
0,144431158524221
0,145610222087439
0,143360413888253
0,143360968678488
0,142492178491072
0,141060410638275
0,140879000697473
0,138140497026739
0,140520220118349
0,142237619051862
0,142466549213778
0,142996191787654
0,138430256632809
0,135554590214269
0,138490978524806
0,138900826046935
0,137915162836927
0,141694148194042
0,137437099531166
0,136099554885481
0,134773740543633
0,133625431952023
0,133685510860593
0,130768389790354
0,133718081386049
0,128652392854446
0,134155375693149
0,129553303813697
0,125294285865697
0,129818390920225
0,129976787328638
0,130309483686427
0,126089399159481
0,127346305186263
0,131292974800722
0,125338866539111
0,124717232397139
0,126386874306499
0,12314929180399
0,122295821935448
0,123108536791676
0,126455477761474
0,123098551904023
0,118985456068692
0,120659288004579
0,122174268080299
0,1167252437906
0,118162180480995
0,119159484707461
0,120012971084984
0,118413202954356
0,116448011495981
0,118263341339275
0,117110080032653
0,11892543589021
0,11606806430706
0,114018770432136
0,114521471778074
0,114676421942403
0,11217163949018
0,114354563469321
0,112780877402947
0,110550787585351
0,111510304734108
0,110755072698658
0,112475354967172
0,111466760273804
0,108526454976987
0,107354383153248
0,106796803294825
0,110897094215016
0,109611211310978
0,110619670632234
0,107008887671366
0,106353599157694
0,108736499766566
0,107705087219711
0,107741671628982
0,104805472243276
0,104980776508
0,105007842407114
0,103779643310348
0,102769041358733
0,10434627940749
0,105582464921447
0,103956658874661
0,102816426648359
0,102758834356221
0,0987754575678137
0,100824884727316
0,0989185763386879
0,0990189330004008
0,0992348563547919
0,0989938385894053
0,0986082180858867
0,102804211197614
0,0999726514111107
0,0988770288479842
0,0973307323146736
0,0981141271481606
0,0975365845119791
0,0982004903214272
0,0966068029936661
0,0978179640900339
0,0982801119626671
0,0981394325774806
0,0964193928102566
0,0941268626810335
0,0964017471099516
0,0957570435767594
0,0972097864040991
0,0968873584104956
0,0927384814353174
0,0948086673310995
0,0940525480460071
0,0936107988251369
0,0918353502349103
0,0943877858685278
0,093059009818989
0,0937056759770852
0,090810168434905
0,0895442954044098
0,0931884413615797
0,0927845410596528
0,0895385617054453
0,0905551124841449
0,0901246403739799
0,0916122757345601
0,0900742427122823
0,0915471620478505
0,0886470093503665
0,0902919082923983
0,091733308005347
0,0912965664008496
0,0877820869309901
0,0886525033416185
0,0883791180121683
0,0852254130523279
0,0869523776489211
0,0875759524398097
0,0891049369375409
0,0899666861702677
0,0867876992541764
0,0897685794463654
0,089846007983197
0,0891754499053736
0,087544598238588
0,0887423773139061
0,0865798307021811
0,0858218824588706
0,0846375667864722
0,0851372888271893
0,087269186467786
0,0843592447980007
0,0835664956044025
0,086405841609752
0,0841980233004193
0,0859717749846011
0,0849208581536715
0,0852213090169996
0,0845536389874835
0,0823288153849574
0,0839072668390597
0,0846535661008917
0,0800170655923823
0,0816184678494965
0,0823647657805461
0,0827160111792747
0,0795967674839026
0,0819034946551882
0,0826584745934406
0,0821607751591366
0,0815328197103179
0,081539407370137
0,0798606770912969
0,0812449448717767
0,0796092727187842
0,0825308502851905
0,080088677115678
0,0810628914355307
0,0807976316071403
0,0806163238385555
0,0798625698474598
0,0804145444984223
0,0787106216125895
0,080808867204088
0,077554979972354
0,0795296660177159
0,0800036093777819
0,0788442182482595
0,0781030801988723
0,079706131606472
0,0797385452346408
0,0777992633606234
0,0764708428261158
0,0778603633042808
0,076732715272227
0,0791589728655005
0,074965135776622
0,0775073097836987
0,0763356462770883
0,0768436493359413
0,0742367611872768
0,0742747915301955
0,078257401028636
0,0774606285254573
0,071970933782263
0,0738995058649365
0,07593073816998
0,0714561177470699
0,0730205124064845
0,0763323031605831
0,0720468307019075
0,0715856150880814
0,0715970920905797
0,0731082038647507
0,0708235783483051
0,0715219010997849
0,0683898600017738
0,0707510160080524
0,0715948319047441
0,0725711367599748
0,0713405126498814
0,0712159567729189
0,0704583471160003
0,070812034591191
0,0726337263902356
0,0699307867687846
0,0685594301735987
0,0686091573810873
0,0682765971614539
0,0683457692215471
0,0669103722715692
0,0704761874677978
0,0684442712061621
0,0686513795649293
0,0679946650740738
0,067589137546568
0,0654516505268415
0,0683873978934154
0,0625845491077518
0,0629550071636032
0,0660222733575176
0,0663707872801491
0,0622962843432013
0,0655013618016516
0,0627917417494903
0,0634544707835449
0,0619944870189083
0,0642649247531392
0,0617536503705443
0,0648984708505737
0,0623067969879149
0,0641616706984141
0,0619615966595332
0,0627301954279191
0,0609198398667877
0,0612079258784406
0,060031942226603
0,0631075059388308
0,060971596766549
0,0600938120564123
0,058061396935356
0,0612814966956559
0,0591252402663027
0,0606079954583939
0,0577736706349285
0,0607837832163519
0,0602378603226899
0,0574278281016159
0,058261259453078
0,0578977149490944
0,0562868231549117
0,0581961157082978
0,054464556183816
0,0554300215686456
0,0531234202213828
0,0538631715187303
0,0554022655245657
0,0566862123947533
0,0564013382279837
0,0553066681942494
0,0530072225564749
0,0577324394441273
0,0542702840319555
0,0568765439558708
0,0526683137931357
0,0544001323090748
0,0526463708319984
0,0549852221401116
0,0533162544079311
0,0539185635261349
0,05242640447747
0,0543480448181831
0,0517154738486132
0,0537562072074036
0,0521337196642973
0,0532700681022587
0,0530186715269715
0,0522466493334644
0,0504228809312557
0,0533940904524667
0,0504953922188307
0,0503412811049485
0,050649537810023
0,053000806300482
0,0487370041110327
0,0493260050333116
0,0483274374680455
0,0520588467769247
0,0503479426525268
0,0520770943802639
0,0492163545112063
0,0524665655572621
0,0518542917209666
0,053371337608655
0,0509584177090252
0,0518668019360502
0,0472811819559558
0,0505594015687527
0,0492207418042022
0,0497095086008331
0,0491607862833877
0,0560661096071992
0,0495506692024624
0,0543094871573124
0,0489305413493871
0,0531515431366571
0,0510217963073774
0,0554245959769139
0,053109961590714
0,0555783460510564
0,0485993667975425
0,0520257158208808
0,0405497381418695
0,0465220693058659
0,0478198518575945
0,0554207703041533
0,041494170641308
0,0495050474947535
0,0463139966028503
0,0464852431254215
0,0413831255079524
0,0515652466449438
0,039738560215455
0,0571906662178815
0,0415516109805532
0,0477419111317009
0,0454413667529364
0,0481142433527006
0,0510299377387746
0,0514542019497847
0,0415292728800973
0,0508891707064833
0,046079109235228
0,0440541756081752
0,0426568282320725
0,0456970373806392
0,0372156710450564
0,0432655402564264
0,0430762732680368
0,0441501401916307
0,0400862544993752
0,0424091532937999
0,0488677240508877
0,0407262140544983
0,046014076921182
0,0479371993234058
0,055710154468475
0,040735816985798
0,0535094276123856
0,035324590580005
0,0515963518602509
0,0328944790846958
0,059460822452953
0,0421356610322271
0,0683159855197456
0,0190151499489805
0,0592232647403696
0,0222926303576346
0,0829441590792838
0,0172719782386262
0,0725973463208583
0,0130695406232147
0,0877421868899811
0,0134119690862112
0,07281988546801
0,0128091539745715
0,0763715379989659
0,021208283299065
0,0636135640447517
0,0340150916934451
0,0500492364645507
0,041039010465554
0,0408007943330894
0,0530697085999805
0,0332811890689119
0,0529488031656039
0,0349830670403706
0,0528314276316595
0,0345326530174712
0,0492556749729776
0,0432979081238499
0,0420018942048937
0,0474386179937786
0,0378850504725355
0,0454729359984527
0,0405788089711694
0,0454783431107988
0,0447775013129324
0,0427297803098984
0,0454406838555635
0,0412235499554102
0,0439547149886845
0,0402638847288295
0,041444971747859
0,0423530668899451
0,0410321294040926
0,041392637649886
0,042973842373352
0,0432458586327514
0,0404803925290783
0,0420230700116387
0,0425400837627646
0,040180612330726
0,0423640460382024
0,0422684869109983
0,0430618433441788
0,040017426883327
0,0407631148664359
0,0414469704160358
0,0407839322063052
0,0410891437053306
0,0428607319912914
0,0433367589744101
0,0430661952614565
0,0423893021154613
0,0384694269076673
0,0397577258152991
0,0431857313543783
0,0399963018685381
0,0409714252996171
0,0408839506321224
0,0407121456585782
0,0435085344999227
0,0418361129651602
0,0411709725362378
0,0428355757365007
0,0401854326927168
0,0409517867210057
0,0433574362866664
0,0436439584979978
0,0412417845700652
0,043215878404459
0,0414798579867789
0,0432712442620544
0,0408012559572734
0,0405292258627242
0,0402189406670751
0,0423201774511225
0,0404644559187554
0,0406037603825228
0,0377809995871578
0,0421441438170306
0,0404669941605199
0,0400708185788932
0,0392853376737925
0,0420893223349334
0,0403733503726013
0,0415605346991028
0,0397735901465984
0,0439154976370594
0,0380497245843535
0,0430057751675297
0,0393942100563532
0,0437660535889256
0,0404288358893443
0,0416816746679674
0,0411393229377116
0,0404615923348638
0,0387314399227426
0,044050538948686
0,0402881389271484
0,0437846007080168
0,0416056938660693
0,0409849140436117
0,0404122268420442
0,0431266695950723
0,0405227472814779
0,0423654834966964
0,0405314461779344
0,0421211950752458
0,0402233463034006
0,044062771510966
0,0405322565364358
0,0443133153665072
0,0424395306536865
0,0429504379131468
0,042026198926666
0,04262291053493
0,0392897926019936
0,0419874368344722
0,0409553739954335
0,045138185111983
0,0422450923152435
0,0445893510627929
0,0417315486276173
0,0438588416126408
0,0419318416070194
0,0438228260066022
0,0423553411122995
0,0430797537477212
0,0406076980557455
0,0429474182744279
0,0410215737063073
0,0442426545594369
0,0418365612495425
0,0428796125449907
0,0438469694570107
0,0429205923681461
0,0417433789734328
0,043265640714597
0,0436401134287608
0,0451059233486841
0,0417100367631474
0,0439132901974749
0,0433084198513063
0,0460009991289032
0,0414923648250442
0,0433770032640178
0,0409933705720473
0,0447143300830265
0,0414610337932269
0,0451648386612628
0,0421218387889395
0,0438146277178482
0,0445370536533455
0,042746700989217
0,0412589640637832
0,0450162464969876
0,0419461304709777
0,0435738710708147
0,0439255318873728
0,0460079313396051
0,0438739672732011
0,0453187510876729
0,0413329208696418
0,046244809206543
0,0431296290972338
0,0447864792359716
0,0440934934584442
0,0453824100145211
0,044715936187447
0,0470325411083755
0,0456323354273067
0,0448451330226982
0,0426101713537814
0,04472015072373
0,0436742389775752
0,0459628101442366
0,048300146950156
0,0468009353926641
0,0450056100808707
0,0468219929853279
0,0436962396917772
0,0467658861241158
0,043193311062108
0,0448821663685848
0,0438485044050509
0,046138591887915
0,0435441271445846
0,046323003462131
0,04537550083633
0,0472691726016331
0,0454172601671413
0,0457594558416564
0,043848158194277
0,0464766454924718
0,0442932305980925
0,0449982365653474
0,043050676286832
0,0476939182009347
0,0467327708943925
0,0482019067785208
0,0437646512800825
0,0466187872580752
0,0438027561990011
0,0460685191026672
0,0415136501277344
0,0448834534277666
0,0416862745475986
0,0431540632717851
0,0428300280352111
0,0446245783653394
0,0431696933262401
0,0457662733926262
0,0443423666882319
0,046203059995837
0,0436865162858116
0,0441887393657808
0,0414885748784027
0,0457366395509961
0,0434577852429741
0,0442871410182693
0,0408961117867277
0,0469727673278466
0,0430081975268027
0,0431006680066411
0,0430812481396649
0,0443791375835785
0,0415411177092316
0,0422908698793881
0,0395217169038429
0,042578362518513
0,0429817450093021
0,0428436189702615
0,0444526736287135
0,0451386918711888
0,0411233929577266
0,0432532674289191
0,0408774985118345
0,0418993314245688
0,0416876997901808
0,0433943740246078
0,0402062792649843
0,0438787561833264
0,0410032799067482
0,0406848326807812
0,0423172569443336
0,0431353453212776
0,0422384865604586
0,0418312809311236
0,0426534999082579
0,0426242011959314
0,0433878200334675
0,0452467157376665
0,0410712385638396
0,0429004434169151
0,0409008921435837
0,0405182340198997
0,0410546454961917
0,0434237497417819
0,0413736220266073
0,0417482223110025
0,0425459597997637
0,0439019202573114
0,0396223389746884
0,0426646799004686
0,0408364979196132
0,0439387106132665
0,0405799778524534
0,0429874948637405
0,040960064757612
0,0424181350270385
0,0399758333405064
0,0428492633093177
0,0393325507528224
0,0444398535157144
0,040629416990322
0,0437389897301291
0,0395417811767147
0,0411932205425468
0,0413429549131673
0,04182863089712
0,0418259627211924
0,0437962571577121
0,0415392772179806
0,0425261592766178
0,0401840276575963
0,0421414013189533
0,0409102432312562
0,0420657068631687
0,0421659204811801
0,0407560473028931
0,0418584624722498
0,0428713130862732
0,0395134987146319
0,0407321764049459
0,0396551185998143
0,0422854682779985
0,0399383150486665
0,0400873955402809
0,0397525846917818
0,0402174027744553
0,041956171002349
0,0426563117254247
0,0397051022485015
0,0419954097001534
0,0403830649393851
0,0413126986594521
0,0378147242467275
0,041680789514012
0,0389363978079403
0,0419745917193063
0,036632607814094
0,038419834210986
0,0378746702736735
0,0417723665843
0,0392349335372023
0,0396018559577193
0,0401191718700665
0,0409934513412815
0,0366115813098364
0,0402849187414273
0,0367643725763829
0,0415256684800257
0,0363343487117421
0,0419167631248363
0,0369808510272041
0,0405258792192503
0,0335806022717347
0,0415579531111131
0,0357455793018101
0,040977830574946
0,0353732273965907
0,0380663258856396
0,0365851420318559
0,0377588669140164
0,0349378987543469
0,0374399370795496
0,0354772135153907
0,0373338341995075
0,0351450525508891
0,0372641580586533
0,03556035967404
0,0389511058523976
0,0338087741106197
0,0359061381855684
0,035347119103701
0,0363835586424496
0,0358341068867318
0,0352839333665559
0,0345670069732701
0,03499476435011
0,0339171584695663
0,0375843114160812
0,0364769472596031
0,0363520396530327
0,0417240860691636
0,0340929245404075
0,0368404350684478
0,0368887769529352
0,0396459911177035
0,0338105541405951
0,0337752352846181
0,0340281908790554
0,0342688531703686
0,0346506807646235
0,0355710358108571
0,0352583302554521
0,034362794446289
0,0335541443602433
0,0342512582589513
0,0347271681781495
0,0334318269767752
0,0343648887345313
0,0355902339495844
0,034697620009767
0,0319883821701396
0,0340543048074008
0,0328852030235
0,0345784737203158
0,036906476743558
0,0344741617664624
0,0366541765871657
0,0371508176667961
0,0353690838624312
0,0360028069500981
0,0344637399971905
0,0336966138813021
0,0310012781299485
0,0341324691508396
0,0349378067266259
0,0351511606014621
0,033299740866514
0,0350276061200808
0,032450295872516
0,0360654425787669
0,0353663504542028
0,034604833172279
0,0350502379100895
0,032895625341527
0,0333613535953524
0,0334432925881742
0,0311752554235665
0,0326093427042065
0,0311020957654974
0,0340221436812354
0,0339890440007756
0,0375508642333187
0,0304240824464096
0,0501258362131786
0,0273787257515682
0,0367146888314167
0,0309752141129097
0,0352777655435349
0,0316619645022048
0,0340699897847644
0,0298631971645135
0,0336995859302141
0,032499632030805
0,035136848986745
0,0298882624628649
0,0337983933478768
0,0326230482100598
0,037603082962585
0,0285569896410387
0,0328970543462855
0,0306266909326917
0,0343054137706719
0,0320213984044034
0,0347902694681488
0,036242600433525
0,0379021700739563
0,0288601484673597
0,0407627166429723
0,0265207239049515
0,0425246342182604
0,032785787211415
0,0277531900516352
0,0358472032595444
0,029727516301536
0,036201372779927
0,0285261835494862
0,0375730563055138
0,0307001688818325
0,0427964763768698
0,0300877625904413
0,036225560223869
0,0311039431686986
0,0318575333915269
0,0340396950530677
0,0347240065316586
0,0336093370029257
0,0318444533760062
0,0342738780412333
0,0319895787491875
0,0343548930018647
0,0337847569753857
0,0334402636547276
0,0319135523599884
0,0308849126803703
0,0396049255758166
0,0299416403498916
0,0352508865777556
0,0287401620072264
0,0371426858189374
0,0346885374451335
0,048687322558129
0,0256270884046158
0,034553842506094
0,0315951067338601
0,0316791531764041
0,0322891372084083
0,0324099358917101
0,0327747291451589
0,0315580558784763
0,0318804499160485
0,0320085237325684
0,0368499136779141
0,0317232507961991
0,0334916553530392
0,0299609949696844
0,0348798857122298
0,030669181454351
0,0353341549325382
0,0291331925017897
0,0363695112737957
0,0352716003530846
0,0409599480795309
0,0457332608571955
0,0289082004070641
0,0415409503578883
0,0309393819551892
0,0357241741927032
0,0292555308372028
0,0371730944691941
0,031163613234352
0,0369381089554609
0,0318095223689607
0,0360533797125225
0,0294991212499415
0,0345464504300323
0,0298238642149256
0,0335256642562626
0,0283400223824559
0,0352085646301861
0,0291519446117312
0,0358918540650057
0,0289722913992494
0,0350445861246877
0,0301040711161391
0,0374045271893032
0,0343620464772775
0,0342262368239289
0,0412239633357779
0,0304653473146053
0,0553341098968079
0,0261175311126689
0,0455249367202002
0,0279460683199989
0,037083653634195
0,0315568388078601
0,0355730436173087
0,0354544000737641
0,0355321645002606
0,0289092363017082
0,036313668708278
0,0326314960802184
0,0338838790128781
0,0354412316998945
0,0408044424359879
0,0499068231037692
0,0399526788646429
0,0297801745336763
0,0416174840229175
0,0264423149216632
0,0553321820217941
0,0304272725510705
0,0341041023389301
0,0371790423392088
0,0320482956110831
0,0331910164527593
0,0320811342483668
0,0375684241088102
0,0353177085508886
0,0370000082185648
0,0289118646592409
0,034736931134856
0,0334792736177567
0,0339151457131298
0,0397638710681352
0,0369785285796393
0,0434536806864197
0,0347201143221814
0,0352623747023256
0,0388127787188115
0,03492350754906
0,0375262772908638
0,0327433842709245
0,0385959922202531
0,0337121831727509
0,0457193789659563
0,0360477051032477
0,0396820687463241
0,0410130150773637
0,034898847486823
0,040699100639715
0,0450380582738703
0,0337843625545446
0,0464605796769169
0,0209111997500787
0,0716803219774054
0,0260326059277998
0,0540827449915351
0,0321691298188457
0,0409011862126195
0,034700308833181
0,0408355268997519
0,0345043071608817
0,0384391646168217
0,0498513003880289
0,0269519636487102
0,0486037567212025
0,0271101379421993
0,0518450217413644
0,0336533871221587
0,0436042359972479
0,0347019969035116
0,0468353222925697
0,032235996232839
0,0544020508429439
0,0314429464520857
0,0630078691848055
0,0446903505892688
0,0377444708083581
0,0532770818349838
0,0402772103078954
0,0501446451812222
0,0488228444293542
0,034992868165379
0,0497959241822814
0,0328331698407328
0,052811837275344
0,036350763019588
0,0549739405863836
0,0469873532507839
0,0385340443228606
0,0490648775377923
0,0472264224258568
0,0510646347241577
0,0571000664479929
0,036851616474018
0,0465106892973435
0,0424923678930631
0,0614029429948447
0,0328161712072405
0,0871199256956433
0,0281051441817559
0,0841311402907279
0,0396083945685752
0,0678218639357402
0,0432939350310341
0,0627339648881318
0,0461523094749781
0,0662103157298136
0,0442625390534967
0,0665864351655125
0,0403135191822094
0,0736767871823362
0,0477450076062319
0,0587863684670107
0,0602628814188519
0,0608666948952233
0,0587181973840408
0,0937153071900257
0,053068399562661
0,0654248722068829
0,0595384259857506
0,064794450249983
0,0653463247588984
0,0556185149396454
0,0634166719851389
0,0589223171368296
0,061497903961279
0,0680760631533534
0,0623992736812981
0,068342321758079
0,0559070133509529
0,0743892284034098
0,0598225058947503
0,097397075317729
0,0722363137404939
0,0863053617961558
0,07865535026448
0,0696328922842299
0,0815210281195275
0,0669971557449368
0,0770186862155855
0,0690965044754396
0,0721651947659176
0,074362830495026
0,0731659291635694
0,082817095501444
0,0655167813162537
0,0989835389260283
0,0728408261374849
0,0974089005237113
0,0741784189344011
0,0907919137756976
0,101043034838692
0,0741403077043026
0,118473999633401
0,0716861652970138
0,119884986385051
0,0703498952214982
0,12831040637777
0,0988152176847535
0,0956653298735334
0,0946788606692136
0,103926009444208
0,0993650189659304
0,114405724006161
0,109451612113987
0,115851863707997
0,113941063053043
0,127399479391367
0,114736573803764
0,18198967938574
0,137283756239919
0,138942181937373
0,13144566361271
0,147842437090063
0,140406978956301
0,147497075017925
0,133638908090641
0,162967338073765
0,14484366657782
0,183585099808077
0,150426691146778
0,162088186538018
0,167249663665029
0,158762987281524
0,190856412606625
0,149516453415027
0,212745996815152
0,15770640506389
0,197204417173856
0,172355682562699
0,195223834735282
0,191851391165279
0,192203862309066
0,206420399488878
0,197674504976716
0,199879093626687
0,200233198701526
0,208438975210287
0,210164558375896
0,213696832680331
0,226578373966705
0,216175245054285
0,268653212200207
0,111033230029371
0,249621690846712
0,203154649223008
0,232276507112448
0,219161036528353
0,238971903074543
0,239430060403949
0,20480231127759
0,238486601737372
0,217193251179203
0,217918552841345
0,221983560339002
0,222442430006771
0,230951743677441
0,216387841521973
0,238362010973127
0,209129199629423
0,26675900670869
0,186222018790903
0,273239853996914
0,219731985507048
0,228842221904435
0,220269628636782
0,229822140146349
0,206906594345036
0,230816796849
0,221573316937252
0,229445379286594
0,22291070550147
0,213831422781604
0,225662313622757
0,211939792126547
0,233026608835382
0,216114135899964
0,208476748934109
0,218184405400757
0,203735247433908
0,229004067106246
0,202381202723203
0,227118756805362
0,21557671379639
0,20626451032892
0,215326011026892
0,207864974759673
0,204729432480084
0,207671192256739
0,209445903987668
0,21276389389244
0,211356753397731
0,20727274928555
0,209033490601103
0,201088021877228
0,207811857132805
0,201053508494028
0,213870265534785
0,200699276216094
0,209837853671241
0,202775335641628
0,206376696466711
0,203502241733416
0,209560561336759
0,205755755978828
0,20953885178929
0,204108340549192
0,204013255405699
0,201105192939461
0,206406656983411
0,197803371078494
0,200946620495642
0,198626166255032
0,204087054136471
0,201012760817018
0,201293014288514
0,198081626446856
0,199303147109059
0,19741846117404
0,198232308793092
0,194452003246166
0,196232313167825
0,191236218569407
0,189961371595604
0,216985083483565
0,168588564556455
0,214213911609739
0,181176670455653
0,188983039528331
0,186385058046648
0,182891780023435
0,194432706839916
0,175840416863014
0,19511052054528
0,176375779983024
0,177468389297452
0,178943484796362
0,17373714264694
0,176414048574474
0,173239847056878
0,159898894562093
0,191743019297373
0,129470724859776
0,235654195849405
0,180064567051735
0,208103368617753
0,156222741378413
0,169507285443778
0,164929130673026
0,161822834022339
0,167678832427391
0,140571700630342
0,172275785305269
0,130247441109177
0,167501547252081
0,146288163592213
0,151057961776106
0,159416496738122
0,155338325903083
0,15743013260372
0,163248009987887
0,15875306103213
0,152088696173667
0,164931122059695
0,161491236739448
0,183633780751494
0,139028273976303
0,144820621754167
0,129641240860206
0,142493544425596
0,153170309249898
0,125810532411908
0,158342318714675
0,126372929185706
0,144570207244419
0,128578109895204
0,145622407765937
0,136536443971873
0,135745564104187
0,147190332128878
0,112345358989888
0,155273787926058
0,110398868791393
0,168462369832962
0,121425491081423
0,158325445519489
0,124138323902412
0,139905701640203
0,127827575048474
0,147360059265064
0,140069688201892
0,12086024874713
0,128210189699462
0,128229198938222
0,116426520693213
0,13554222424746
0,113184263499638
0,146540379317677
0,14509169430346
0,150084014026307
0,159425262546712
0,134192349701472
0,117803967093885
0,117996662014551
0,116143962909901
0,130586847352395
0,106999209520056
0,143466643582698
0,0950566841510043
0,139077988892201
0,130728708907671
0,123981077192731
0,136418193166714
0,123813429201643
0,126991266531208
0,133825288802789
0,129355893854337
0,159264835658122
0,135968091638125
0,148923165727456
0,136096678138876
0,144649497109395
0,150112509025594
0,139132548118191
0,152838458186796
0,145235297957576
0,161614210925532
0,153965513706787
0,164612733077556
0,163538847155043
0,160719347981641
0,178743721599801
0,184509229011359
0,175447028075608
0,205831660442
0,163263771311071
0,239616730303744
0,174601843031587
0,210702973166963
0,194553629212911
0,203877910787645
0,209546404037976
0,206867930108154
0,22099390170253
0,231117005228072
0,216345126048618
0,240719655770563
0,217689345262162
0,236862887773171
0,221835131455047
0,255106639682807
0,228070367982645
0,287425446418031
0,218577948311768
0,2644337457462
0,255686680483228
0,246765555516564
0,257797879145929
0,246008976371689
0,254076181838357
0,251005984383165
0,256098137854073
0,268898189470324
0,257258067661111
0,270816048782357
0,255387213417931
0,266376712291761
0,258977393831015
0,267806433394736
0,265844046243538
0,265373256131322
0,273016219704748
0,269197314511965
0,268449970082634
0,299299695478723
0,262054027125201
0,298817406056153
0,270979428523824
0,293290458637963
0,290502525826847
0,286900895668236
0,299771110773167
0,29529149420788
0,299957304422969
0,300763610982376
0,29610612225032
0,303626239802733
0,296267373340709
0,321534663837235
0,294071638231721
0,326141057783199
0,291940054581787
0,327789934204411
0,318054332221364
0,322987608900168
0,332240821201803
0,319285792140004
0,32977447566988
0,310088651370974
0,326193671862696
0,313248546101681
0,32688941808725
0,319213852121538
0,328195306278172
0,316169659385948
0,32212714802079
0,321369174415073
0,315977662414481
0,328174353366627
0,320006935555405
0,32671449162875
0,312673564557045
0,321439945562318
0,311389317824058
0,3257910482822
0,316551134382933
0,325975667533818
0,320265402365988
0,313199900864386
0,32970878082299
0,322419542895603
0,315891665637581
0,319612577363824
0,305120405853998
0,315579747624404
0,312368049660556
0,315108663070317
0,326147368154457
0,314238948789216
0,330292719485081
0,315564414708639
0,323892416525805
0,320025807823918
0,33324747045777
0,318485828114111
0,335125790070123
0,321163610567004
0,335388033012186
0,328110410327175
0,336746560077253
0,328950233005449
0,340347985956971
0,346278229441711
0,338644709195819
0,333048630948545
0,334786160955954
0,332414991478371
0,337216168532198
0,33172969790561
0,332798809378887
0,323920212218081
0,329121027955684
0,31573388483773
0,346317584714662
0,311688776185837
0,33290304690546
0,320767729980886
0,316945213065611
0,309945839517935
0,308072304451575
0,310475716955413
0,305533829177133
0,307429027068354
0,303762362312994
0,301682290550333
0,304324969287806
0,302313127451805
0,299146653545532
0,297377540322575
0,296605867131112
0,298124640907196
0,300265634577869
0,293590911261564
0,297006206491111
0,291999148619652
0,296339469276359
0,290157366295735
0,298317606700574
0,298843257709957
0,303158878081986
0,295075378621833
0,296786695624216
0,298035595536433
0,290897425737832
0,296755987460635
0,288192363406084
0,291255027191104
0,286989838533889
0,288097990884279
0,285142208381708
0,29139688784659
0,28614918858253
0,288776661795638
0,28455093513225
0,285987993652162
0,280890975725377
0,284189832786343
0,281285814562238
0,287225842304105
0,281731945163454
0,282901849650322
0,280445413745989
0,283034853124184
0,287353074538449
0,279193275915627
0,284209449996941
0,279438479341458
0,284319894919701
0,279244952362308
0,280940807228997
0,280795192211908
0,278113016559557
0,27657736454265
0,277006382509156
0,276368996459132
0,27310851803954
0,274696664379847
0,272053323871723
0,274364381675251
0,272608176106836
0,271869477685297
0,26850243482856
0,267707224698771
0,263620354688444
0,26124121467711
0,257867615594025
0,256849441932251
0,253592460269742
0,25229189055493
0,25136135438089
0,247711361839802
0,247002873359532
0,244196516088418
0,244449587560504
0,243939257048992
0,241893984745502
0,238612670819012
0,24092572977408
0,238356867722471
0,239156861629554
0,234786809695717
0,236382854700745
0,237107920224419
0,236846987747548
0,239051855329736
0,237056426335487
0,238223549153087
0,238359725023356
0,236882740499457
0,24248300464673
0,236538509356941
0,242665670298117
0,238510897164874
0,246639857561115
0,24038764112522
0,243524426468756
0,244133672782826
0,244965176088993
0,247163674366246
0,246884192633077
0,246778100703865
0,24971177671376
0,246310126640817
0,248264907249414
0,254200609218338
0,249553192891048
0,250690728397008
0,25180632787781
0,248940584441701
0,249194123209004
0,251617897988084
0,249748525188495
0,249621487682463
0,24742701057971
0,246758170258711
0,247358142220857
0,24872669031607
0,247594625478532
0,245780047974045
0,24714132276666
0,244893702289082
0,245926772070957
0,244108338960767
0,244192375555788
0,241373078671409
0,241807629259461
0,239576666312922
0,240085660884722
0,237470838715107
0,238251239132488
0,237544367030892
0,235137650950164
0,236224681021502
0,234820608024969
0,235668440134572
0,232899306966187
0,231211694961541
0,232867156111334
0,232847132609435
0,229247516809559
0,229181641422195
0,2302498239115
0,226040129200295
0,226245995688284
0,22844996272983
0,225775830766088
0,223551331763543
0,22369302943971
0,221567888217957
0,221557402244355
0,218412331695043
0,217302861439816
0,214533838823077
0,214706089325374
0,213620617009845
0,212050510750388
0,210583031610673
0,210988548102749
0,21013766953408
0,209206545566033
0,205131835807301
0,207009675298337
0,207515581122659
0,205163182467517
0,204948290905152
0,20865401092225
0,205991365541859
0,204460760281566
0,204169931979637
0,202924717930214
0,200997232515867
0,202344121499811
0,1997922144237
0,198136295294779
0,196812722093991
0,192244520347684
0,192742140896011
0,191381325138463
0,186580433086871
0,183029638435653
0,182336911615906
0,181379939665391
0,178719594158687
0,177650111514978
0,17794381433419
0,178971253489378
0,17975151222477
0,181909652153345
0,185881325789568
0,188735092663503
0,192865159814274
0,198295926675789
0,203288628012733
0,210482858310849
0,218667237214384
0,227176737833611
0,236772542398199
0,24481432433291
0,253961471529623
0,262502372680546
0,273386511369693
0,283512074836498
0,295444894065059
0,305147271988734
0,314823176309382
0,329247448016625
0,342201854640144
0,351638160486402
0,362383382362191
0,37494022316838
0,382688096569578
0,396256204752472
0,407655404827567
0,420573100989046
0,426969014246641
0,438977644661978
0,446633591706508
0,45489591048999
0,458460997218873
0,465748923640567
0,469171612113528
0,475048501110024
0,476094081639116
0,481247657784037
0,479529397985168
0,480697318556553
0,483059031939042
0,482905125890195
0,476511448205227
0,477716948587469
0,47311574162791
0,47717357889188
0,472003065297111
0,469872046271168
0,466980101394629
0,469679298460526
0,466566759389529
0,466639720691166
0,469180650631333
0,472484932320695
0,473608165135908
0,474271667684745
0,473970621820201
0,483429595530003
0,481299559693745
0,488999874557398
0,494106299297683
0,496975024358572
0,499300037443004
0,511494763805987
0,516085568123245
0,523004528863644
0,529188135496127
0,534415370537959
0,539356454612224
0,544856480525082
0,546237488479103
0,554247821837639
0,557981471271535
0,563855036538292
0,564099585109145
0,567282952570711
0,562006883220986
0,561314736141767
0,56576655238024
0,566517601770275
0,558783530428116
0,564610065651858
0,559445230762215
0,568463166659292
0,565628669039115
0,574294199834217
0,574657460904912
0,577755801553745
0,584279184404531
0,597270095890425
0,600463484259165
0,611907381187721
0,614409112276537
0,622345535336338
0,630935809915876
0,638903762834886
0,643528338935946
0,651822279037108
0,670989038705643
0,677124670919437
0,678607160374988
0,689436728193925
0,704162561920624
0,719829438602728
0,72960034884055
0,739194680568419
0,768105565570414
0,777578263929773
0,787019595754643
0,803575942137453
0,824651098306815
0,830148423173637
0,84620940509131
0,853831718846045
0,870019491438369
0,877432261413499
0,881862998803446
0,898851382240364
0,902572908675855
0,90740107727057
0,899336790968032
0,90717193020123
0,896258817852562
0,900251949510588
0,902104973572294
0,910725420996876
0,892427759076172
0,89861743414911
0,880292770803193
0,883711434919587
0,89639931081631
0,892156458461819
0,887408888568123
0,878550834632624
0,877895683989894
0,898892519935337
0,904736230042319
0,905318030838181
0,916633565143784
0,922198328054275
0,924032067762172
0,924942680227277
0,936112294140072
0,946011526160248
0,969681172985722
0,972292073037385
0,97678974827225
0,977821539353394
0,989066788441984
1,00416305113743
1,01683640432334
1,02945856505321
1,04309065800912
1,02759916108904
1,0449028018874
1,05647705505967
1,03313395464466
1,04766704505261
1,0583712389709
1,06520931345174
1,08138613033981
1,08510777333645
1,06697934423619
1,09088416977971
1,08667129184007
1,11215583522502
1,07792397983294
1,07326832148255
1,08493651095868
1,10047697429099
1,08098192724384
1,07987696217349
1,08537356170283
1,07536211408633
1,08608936504075
1,04323491747981
1,03316770132706
1,03444435248534
1,02856423239981
1,02448273317351
1,00846004558115
0,988561354901861
0,964141692324161
0,950107800641443
0,909922236320145
0,904751294208061
0,873793788339983
0,852288477571976
0,820905937445104
0,79230176976238
0,783395067485203
0,778416290797554
0,745388625924535
0,733344609526289
0,726182528099677
0,709022222648426
0,7054886613457
0,693842906697714
0,681838756161282
0,679776833934849
0,662523051806654
0,66392536383871
0,661063748425305
0,64603110770268
0,629024941987037
0,619503484133713
0,614961367483277
0,605292056895313
0,590901083706819
0,577716308851685
0,564469242579268
0,551020651012643
0,534004140349102
0,521269117545772
0,50652644619135
0,48734532373384
0,469063903779869
0,452236329998443
0,445297132661523
0,423140538975704
0,404375658583188
0,392918155852866
0,372177752799485
0,356230460993759
0,340659323598796
0,330366047968908
0,313422247785231
0,297953347425855
0,291224662243129
0,279201933648956
0,268005294358015
0,256206108773647
0,250654517824662
0,242274205976618
0,235727803736986
0,226054514309569
0,222816554414348
0,216018665768497
0,209739704625402
0,207830133590743
0,205836716152107
0,205230087280406
0,201505512271195
0,200757260910477
0,198452771243087
0,196514027265921
0,201175358387594
0,198478774879601
0,196644296072081
0,197797436236782
0,19984806092126
0,197065862536988
0,200833773257944
0,203086405053046
0,200877137441446
0,202978033556764
0,207617007381012
0,209783098677392
0,211263928626528
0,209939729172457
0,209159676250726
0,211255265257096
0,21145691342602
0,211549844097564
0,212016709756609
0,207694813215684
0,212085960248232
0,209544258495775
0,207785554572823
0,213633182403658
0,208516413208442
0,211375951397667
0,212422225462964
0,212059065263034
0,213220129420596
0,215646506069197
0,214814213717323
0,215821405854104
0,216243331435859
0,219142691291133
0,219679075687471
0,222033214093998
0,219457070454819
0,219731747083714
0,217463283974428
0,216725802996794
0,216736537002164
0,214224544989862
0,215188463773411
0,215737073972169
0,215340496014603
0,219374860071819
0,218548605395887
0,214197211713072
0,215863645159962
0,216401965639631
0,219290898574003
0,216586755279884
0,220625594644696
0,219538474144485
0,221129618811397
0,226294075422328
0,222748087585102
0,228550493802043
0,240213755251257
0,247194034494392
0,239143719633816
0,247296025036616
0,261647368095044
0,256708120059815
0,263876594720595
0,263426947292561
0,268923180688351
0,266750350288419
0,265013890346064
0,260581311607334
0,264171254609266
0,250591414188553
0,24854165266574
0,241097995411065
0,238558566988668
0,23564083047465
0,233518746151607
0,236420191666742
0,230714097760315
0,231301391473089
0,234925153260408
0,228855856547433
0,23256856020521
0,235200540279664
0,232780806938648
0,233402197742342
0,230696935869365
0,23018323018633
0,230829231408613
0,225397039182315
0,226848489826485
0,227864930008701
0,233099255960651
0,231564897347185
0,22683516419813
0,216875625345267
0,220507859515289
0,233730849771901
0,224973801912678
0,215948459992664
0,217372521441801
0,214092554516565
0,218832254134697
0,218825824815158
0,220941154900559
0,221251442719341
0,218003465210091
0,214973758320789
0,215166159316747
0,210121625932268
0,211689076056626
0,209225538831911
0,210322183837248
0,213866955358432
0,203604997501238
0,205931132944497
0,21543146541842
0,202999111680862
0,202336428181184
0,197934691823205
0,20185731556952
0,198688368743133
0,188759937351597
0,193258886646844
0,199191514633828
0,198373427896016
0,18982875215192
0,183000507695699
0,193106120607575
0,192223176155346
0,18615800401711
0,181724916802961
0,186055777464782
0,185306745314547
0,183108632418243
0,175115848782692
0,180040948924902
0,180171571533981
0,178469794020454
0,173863754206075
0,184387308498522
0,18255907613734
0,187852213681732
0,178557769873304
0,176255701509923
0,184127811747973
0,184497641321938
0,181906915224465
0,176820627909702
0,179241634706594
0,188263175706813
0,190189801900044
0,19006775748354
0,185281300981832
0,193954331894536
0,195498311973095
0,205393268313043
0,203824316571491
0,20160754616946
0,201346410593047
0,208410590078418
0,200330693279981
0,19874412164312
0,208178920016638
0,210017249100784
0,222886727958791
0,217617793751869
0,225387379716501
0,228001148619323
0,229306828529373
0,24462950048135
0,244582342106067
0,259648178632069
0,267942578372504
0,266685616407142
0,271557821500423
0,296884943837471
0,290804894131086
0,298103216684013
0,290626877883659
0,296380769602213
0,308412122249018
0,299892944473079
0,31047674096252
0,30850863119831
0,316080915465716
0,336546372929529
0,310472196245759
0,312562761549841
0,305729848196774
0,318961137600802
0,29675934436149
0,304349269263459
0,299018509494947
0,318979327171942
0,309530938274428
0,316347611573185
0,303287849409873
0,304022896558945
0,316652483411951
0,330572096460399
0,316223869270988
0,300835698848512
0,307267372929827
0,310447945670068
0,302547999574477
0,310968077033284
0,299378726054038
0,298182420912564
0,29423394000886
0,307815454408094
0,287409351779446
0,281015863009773
0,27775706838932
0,275261888411692
0,292957042154393
0,285549836179977
0,278306385369789
0,272389678847701
0,279501559346081
0,296494400293953
0,290965840927734
0,282323851542319
0,288963332003646
0,270790129848495
0,258952408394735
0,286513284889045
0,267673714862557
0,278730945502205
0,281009605035777
0,291599410462396
0,273903604315094
0,256476167830915
0,270314232077418
0,274321874640648
0,281490930922625
0,309712468084798
0,283803893555155
0,287525984446454
0,281671181519766
0,291130805027482
0,288750336771154
0,286251651418299
0,266118095441631
0,281261054286415
0,280228868319943
0,296602473897079
0,290469262844957
0,30569480731499
0,311049281076341
0,322042935726321
0,322381168635626
0,314814573030766
0,338914798486764
0,344607097143504
0,335387559087511
0,311410461829939
0,366974354588056
0,365085278100366
0,332087964603713
0,386516415723836
0,35083616521104
0,407198305554311
0,374565360407536
0,39000062146471
0,40446240913734
0,410474024586041
0,390590021964013
0,374913912287244
0,353736616698484
0,377816356046702
0,409429868435849
0,428861245598324
0,355439091071991
0,384557951073154
0,334120360223757
0,367172933622696
0,391022504784719
0,33444380808685
0,323422848831146
0,349881826562705
0,378318921722935
0,344800566595522
0,335801296276577
0,375248146217762
0,352914141214956
0,349012682855736
0,330878470393774
0,317820220657383
0,361427471744417
0,393204187678426
0,317436376694792
0,327722969059304
0,348799973472159
0,342654919235939
0,318986478109409
0,371784520998721
0,367313841650863
0,398626948999549
0,430587113230241
0,375200617260616
0,334225061599495
0,396590721946548
0,493068135578057
0,471413565277878
0,35506460340167
0,412507422170654
0,371604641464101
0,456043611651868
0,503592778762838
0,362901653714924
0,359696732961691
0,415966662323941
0,48261415360815
0,490469844496818
0,533203831669008
0,394073698032853
0,276865163681267
0,439796645792009
0,331328884118496
0,336255656713402
0,231650987267877
0,466616588093012
0,611676403814065
0,421038884996242
0,524787636879366
0,47059898766925
0,413959780273575
