3596
4000,36533379555
650,420452594757
1
2
2
0,0635699017664773
0,0536243173902
0,0578376586166673
0,0466652484677712
0,0659509349658917
0,0477760215519095
0,0515083172626332
0,0432531520581685
0,0627610824430035
0,0512498950356047
0,0593120331687996
0,0478644703772898
0,05684058204477
0,0533144970993101
0,0587768319476724
0,0413276574230387
0,0524811410746875
0,0515022450972065
0,063860851115019
0,0556415260733672
0,0565697152690253
0,0481345007693374
0,0556627503719806
0,0568706835944964
0,0636800044662288
0,0525322224705372
0,0533427985791307
0,049752990461733
0,0599530576847631
0,0486199433623073
0,0604530566186395
0,0498420693118692
0,0613635323739221
0,049026164769879
0,0538365921195623
0,052320843678183
0,0617550516727635
0,0475768311977276
0,062575597285152
0,0545829966563428
0,0559190241545173
0,0502472217659872
0,0648755548730608
0,0470836633671909
0,0574268863287561
0,0534239262179355
0,0552999108386701
0,0462334329965318
0,064095105257308
0,054344024239865
0,0541222011128235
0,0441273680780672
0,0599816799554805
0,0490166863448952
0,0611091030432339
0,0608895290838981
0,0589740001528379
0,0417241161313345
0,0549481901450793
0,0570568458381419
0,0727610604268304
0,0513068525763264
0,051216995503556
0,0374804754893798
0,0578633667651261
0,0415744124064226
0,0562151624767974
0,0535585939995637
0,0557566898551996
0,039860575837769
0,0517027246308404
0,0540549252374943
0,0665749111829804
0,0472395395594971
0,0523725914349198
0,0435114716049251
0,0524534082742633
0,0374779755533491
0,0454419530070793
0,0486691718210288
0,0687377876607469
0,054651331976424
0,0564694895607567
0,0494300588141399
0,0603994536303389
0,0459516449149578
0,0476477633661467
0,0575588178723481
0,0644657087608339
0,0419787827746459
0,0443828366255004
0,0357273503211398
0,0567871536171055
0,0454397719827224
0,050243236774325
0,037942103590589
0,0539045546487807
0,044601913801619
0,0516914134258388
0,0420199361753886
0,0612552440272468
0,0670372333203118
0,05413156298656
0,0676290763626352
0,0504071785390422
0,0385599630763703
0,0722000556337847
0,0588138302671118
0,0549094161398515
0,0411606592560806
0,0463823098573575
0,0327769420696385
0,0529784508893459
0,0401541469564748
0,05888465594467
0,0574566818448775
0,0556849079003656
0,038316322972326
0,0482881194864647
0,0434613510388505
0,057732476901054
0,0576687692873025
0,0514126539331892
0,0399171854955536
0,0489992338452403
0,0364938835610031
0,0550769723312795
0,0584388751833081
0,0436835025996546
0,0359138972522923
0,0385317007520986
0,0375343827004217
0,0489126141908442
0,0604997963168002
0,0710617671339479
0,0453886867136157
0,0433483518541413
0,0519783050813482
0,0667939737118913
0,0374609774008499
0,0436506196005398
0,0404529801435499
0,0555501371845653
0,0551948269759243
0,0616854372230879
0,0363896928402565
0,0530623996181719
0,0497383052598536
0,0398812611506364
0,0376506335035677
0,0424387629878203
0,0558619583622161
0,0611309060569179
0,0429923041095433
0,0702556219449341
0,0748286230057148
0,0543553560766161
0,0587822333443072
0,0402322569271681
0,0354763699012608
0,0335488504617142
0,0418665103194944
0,0402653995956516
0,0384878643329531
0,0415803759993139
0,0483630284245786
0,0495094199483898
0,0343551928479731
0,0541694334202597
0,0620636216797049
0,068412174009167
0,0412756275842782
0,056737524697104
0,0329355941197307
0,0452921593426449
0,0537867844859576
0,0482951340743281
0,0378923031494982
0,053907854620678
0,0587563474252358
0,0345059129049395
0,0352394797655937
0,0385103323412404
0,0443160824992963
0,04802204154546
0,038912320218562
0,0404945562915269
0,0416630592311019
0,0378748675299166
0,0457935029104959
0,0639787824714319
0,05994735499649
0,0463944890807413
0,0409568179777425
0,0394549371740084
0,060672830289481
0,0523465875146166
0,0303981414644516
0,0375054294908699
0,0390131363078149
0,0426949541142207
0,0363094683017171
0,0407767939230889
0,0392527313419237
0,0413845919916915
0,062350050593815
0,0417631335827091
0,0424974634218278
0,0448608195842714
0,0464995290530139
0,0518606423770191
0,0605325113984934
0,0484255968868486
0,0377397858950225
0,0426987946494972
0,0390675955923756
0,054936754452516
0,0530733255812771
0,0430784243671379
0,0394135501658597
0,0417218318763333
0,0420903323968556
0,0421524527297773
0,0403545809850131
0,0377565542103701
0,0435245885840487
0,0445677062455662
0,0478984940683628
0,0456897052471096
0,0470485985596698
0,0529081480399114
0,0430304131582112
0,0460492588827978
0,0396650543913087
0,0492091430374648
0,0566433185517513
0,0419268502795677
0,0424128468672052
0,0398202794656127
0,0467677929388427
0,0459458891990105
0,0432881692376369
0,0418082671562204
0,0453371703924072
0,0457826408586653
0,0645352683536523
0,0411922231982077
0,0515121304278831
0,042240949937977
0,0583962121098352
0,0610253356992075
0,0472378211460312
0,0411341310334096
0,0432859013756772
0,0446674830470505
0,0443089082086913
0,0482809628594396
0,0525823448667907
0,0521213152586773
0,0541619766372671
0,0461852015871854
0,0464762007610334
0,0480359781744356
0,0469045275613601
0,0866945438717764
0,0560856963234219
0,0556015286584544
0,0659119647032051
0,0335456797270754
0,052715199817061
0,0513660592005922
0,0462182137005841
0,0810028380148306
0,0612914473298751
0,0444511111923118
0,0475671764855459
0,0528852374461952
0,048319355821521
0,0564311457737035
0,0588408325793097
0,058197888905254
0,059138637517812
0,0491787590486832
0,0768450967097876
0,0311369599715297
0,0637120322660211
0,0691477471497108
0,0445128657443284
0,0538187625881446
0,0520093188417336
0,0454643756178294
0,0582299548878778
0,0572398016711128
0,0575094653384152
0,0535995323434583
0,0493894334350972
0,0674163728684705
0,0506600531709236
0,054115564634244
0,0530186263389778
0,0621552773575164
0,0567456041801883
0,057694007103353
0,0441983788703267
0,0527109179173685
0,0596116856489081
0,0647903744435344
0,075642477326208
0,0584488171704542
0,0596454276613617
0,0719792693513503
0,04771712763226
0,0506660681324504
0,0565801464130523
0,0595389904737611
0,0506728290008319
0,0592105073770667
0,0547444368909198
0,0722284479431402
0,0622319307209281
0,0567213526269941
0,061915268560592
0,0545185431580164
0,0598115102485136
0,0609185780931386
0,0601272572250669
0,0566919104000322
0,0703258807909218
0,0669770634631828
0,0726326415375374
0,0741029824232979
0,0688751723839537
0,0847470840760504
0,0820560634199086
0,0617730866676456
0,0709598865512663
0,0670107260309379
0,0709138481310111
0,0693874628665237
0,0725145593932457
0,0634848339064118
0,0695166274316114
0,0870154054850667
0,0850266800159455
0,0771778444662528
0,0945887908003164
0,0888872749995795
0,111316639497683
0,0827076806625277
0,0898497606245903
0,0691231752321154
0,0960440198340682
0,0996946195697468
0,08027230046727
0,110249940621118
0,0829563139387764
0,0947588315757418
0,0898512018894761
0,0949947832937678
0,0926389403996695
0,0942161478431675
0,0930087350121777
0,0985657140518581
0,102438812820626
0,100093425655738
0,10267657269688
0,103085351992418
0,134222356054621
0,11727848063876
0,10516842287385
0,115439961291995
0,115807570750465
0,133905224602504
0,152994685015321
0,130081753856377
0,146715463165388
0,117192101796574
0,166236997836594
0,131360006077375
0,130517035248226
0,118089758191043
0,140584358259356
0,135150424289483
0,142249173553879
0,131596118124333
0,144624002527559
0,150243359470897
0,159179774306054
0,144410665330104
0,156408347515387
0,147299079208118
0,178098076412895
0,174546825472211
0,168110454117697
0,165150309673474
0,190480343118838
0,195682646376415
0,22704613271111
0,179466976044866
0,171784611176518
0,179011799379989
0,176434640472476
0,180862712857132
0,19290767550594
0,200419356382251
0,197726840881021
0,216146463465233
0,224056042413445
0,211746173710636
0,225344860502271
0,201921002972361
0,23054094856604
0,220116292333217
0,220930051834473
0,233400848119317
0,238719848485008
0,213835337401639
0,242294800872674
0,252046524354747
0,235876335497181
0,262639401718628
0,238176744059346
0,239653833907561
0,245664924091994
0,244910386175818
0,264964034577667
0,271369649385638
0,283651219083598
0,271927250114757
0,286193864645877
0,281875988776203
0,284642924010304
0,286539369180737
0,306034093027112
0,29025626598572
0,312760579372268
0,281623286233294
0,30603843156027
0,289640526973565
0,317949663547995
0,321769097225083
0,328272279309401
0,359758041907587
0,32280231859265
0,315407547555637
0,322642342336356
0,321041515021453
0,345221528424473
0,338966027959389
0,357283933839617
0,343158476468199
0,35508751282288
0,367735861763379
0,391144868808764
0,371536251272926
0,388170455652031
0,385796717674943
0,394781530135931
0,380190129315447
0,415861968877939
0,396587052578975
0,422041622816452
0,418479975419415
0,452064755308468
0,456297409633618
0,410755407953065
0,409798544163046
0,427990580209786
0,413236849351205
0,443578427711325
0,447322757589346
0,45987525776542
0,436855340067711
0,476102022687648
0,462317156795427
0,4891814887184
0,462546091364034
0,496579682204621
0,478310321733561
0,523581163197089
0,491667794235008
0,49122147718974
0,481804546205606
0,506829300610025
0,507117143145982
0,543574258373182
0,518003534356408
0,567908421265282
0,502763796364634
0,543209301504774
0,517208765160013
0,572666878544415
0,52350932473199
0,57473143040458
0,568337806320408
0,5770232551514
0,538578140460444
0,592795021689885
0,595730773175436
0,592106990744444
0,551678023486123
0,61868671859692
0,611438744650449
0,610032319701262
0,633121660484506
0,692786210405711
0,63794447665939
0,64894195127102
0,643080150162906
0,666982697261631
0,623122353118737
0,703882459675389
0,629935938736864
0,664502434700668
0,648163694632631
0,700845248746319
0,647180320333926
0,721810322704202
0,663947180749083
0,709752225559389
0,658658850046593
0,698408593846967
0,713948700534032
0,722592130329794
0,693063813547338
0,777012455219577
0,734291715637951
0,776614264680843
0,72344687600361
0,778653530245106
0,739156831545562
0,794917764756744
0,769261922090702
0,807761793965613
0,785331310018542
0,810462202434799
0,769593677576002
0,79504909514874
0,736091401947926
0,805147301732199
0,789113619794609
0,831751602108288
0,795950255180275
0,83211581993347
0,834378761755657
0,911530871404133
0,801135496344784
0,903005193496595
0,831386664974171
0,870915913776209
0,824558459504908
0,907965419676236
0,843499500541186
0,942143447800183
0,833859032405321
0,93564182230263
0,837522458933099
0,912649523310578
0,89345983678251
0,959959867165762
0,871600615565315
0,9555761350012
0,883190423918962
1,00120453835841
0,902671280436617
0,98997550347047
0,896833252730319
0,929923132291638
0,90359501854919
0,982491500867237
0,896993445809669
1,05598477171552
1,01753516351854
1,0452368420734
0,967572301799686
0,988310138712744
0,991319215842879
1,04951279600943
1,02939134439632
1,09541341231168
0,970846721167932
1,07497145517576
1,02768606445307
1,10255194175236
0,965046833834129
1,12590335268632
1,03878929088971
1,11035613396078
1,03855021873467
1,12251136494236
1,07819461423825
1,17357743145788
1,03621708896083
1,19142746259763
1,06655586472828
1,17944853390699
1,07278215295036
1,08803402671891
1,10354468405709
1,08680358858672
1,07890676396274
1,17947943715118
1,01905712836759
1,16522286533422
1,02914557813113
1,27983490828894
1,08867858831029
1,22271700197335
1,06467551455168
1,22530382486951
1,10374207520542
1,26695069209356
1,16736631231491
1,28123452085758
1,13893842877509
1,23864036430821
1,10625176338911
1,29753079971316
1,11102722682899
1,2496824805305
1,21217519902611
1,20419561335598
1,12514112180962
1,38818976056362
1,32327915464717
1,42162606981439
1,20996766933004
1,2899338130409
1,22890291337084
1,23082000810733
1,21404303849445
1,34855160274239
1,26302210335974
1,25527180959305
1,26523131728607
1,48037034707056
1,21835556234529
1,35808732384762
1,26034987723089
1,40887957052057
1,14486399092308
1,28815593961603
1,22472207315531
1,37301374387193
1,38864610764873
1,37807072667366
1,30592760503504
1,49068619896561
1,26542738102712
1,69935054248714
1,32150838917481
1,36112911426264
1,27152410465812
1,51757256965376
1,34249833313373
1,64894471668152
1,40984276019381
1,40699660238658
1,25510492026964
1,51361790129226
1,30614432655674
1,43728720964797
1,25411595079982
1,50806399744131
1,29783871408425
1,63527592970019
1,42523298733158
1,37474202463389
1,33088512997453
1,47820386706772
1,38625678559536
1,76698144740525
1,35190352804201
1,43063615956213
1,19461468999892
1,43601141969803
1,38387515144193
1,51349659765873
1,53898350005217
1,69460761387236
1,33628285387723
1,65983602830001
1,38605168601371
1,47712485158011
1,41669602455506
1,46447038756447
1,27411818342569
1,55173317377186
1,38220900951304
1,56539321159607
1,45920299426683
1,77521008215157
1,39222295479639
1,41034584826155
1,43966491306483
1,57040241924351
1,44196382412773
1,7882516704573
1,41641672626779
1,5705026948467
1,36565356435364
1,50288750584605
1,40479539255663
1,59169161884474
1,54727149334788
1,65882724784967
1,38296951728137
1,47364485700619
1,34495678558794
1,68118440349053
1,55192228787312
1,5713984206236
1,33323904846658
1,71536708971775
1,35903741663202
1,60810311477325
1,46738551008808
1,50898800684963
1,38107589678982
1,56948091129481
1,4789653145584
1,7290254119477
1,59933371485604
1,88345965685078
1,45178008604985
1,5917173514421
1,38685409619026
1,73753943035726
1,50663568845943
1,66127654440109
1,40700097729412
1,60177693675609
1,53162785091324
1,61698365204262
1,48539867512335
1,57248087957719
1,52674825296169
1,68965898538301
1,41712649891487
1,64269627606655
1,4388735452178
1,52834374800192
1,31728362638193
1,74607924848028
1,48282979924055
1,61184069125401
1,4166443243276
1,62153224485704
1,51214724054682
1,62260347194197
1,49565337187807
1,83140385325101
1,533168498013
1,81965193674266
1,42905469927375
1,59178763760169
1,53794300618245
1,76024976423154
1,47043089755088
1,46281808001776
1,60480107364531
1,57916588993599
1,50895568390375
1,62037940672541
1,66119491630552
1,61581788170044
1,42006695964534
1,64425943834836
1,34641381790112
1,76960959401329
1,37691133342262
1,6900312330025
1,33566521303683
1,54475631482717
1,53301903477272
1,59408980132462
1,53612916421251
1,71722884061433
1,44626777511953
1,49941017815761
1,27454095840913
1,53137520282108
1,44193593999846
1,74127718389417
1,4629230847595
1,54437004220879
1,41351781304087
1,68279352898141
1,48809847667271
1,54457741235552
1,4066397887666
1,43268652143433
1,49131553962114
1,48400580960221
1,37281656180148
1,63814968226409
1,46439169242876
1,4356723996168
1,47087801348556
1,47908787903233
1,44990733025647
1,5774247038746
1,34016679181354
1,60456885966597
1,33819872539069
1,64427842709234
1,35398977389401
1,46043099684133
1,378253195166
1,64611554745265
1,40647708169658
1,42174293111632
1,49891624188746
1,58264716113269
1,45857889992339
1,50468365368775
1,34075985305034
1,60280396349972
1,37748637939545
1,47519159273003
1,41394530799489
1,35181734523669
1,40724253210307
1,46207478501536
1,30954174473432
1,43405298226921
1,40075705354522
1,45881995028685
1,35353864522492
1,44104965610544
1,34392879201334
1,45571151030813
1,43165729454619
1,43263721364134
1,35312090659107
1,41127814645165
1,32897018421544
1,35315637614894
1,28302871776386
1,45079611658915
1,41364514180893
1,47740326182881
1,28128946652674
1,33994756869671
1,28901099912356
1,41896558956966
1,28173242609952
1,39887018439732
1,30002953097993
1,44862662673088
1,33552647368498
1,34081593816958
1,31027939905691
1,33510876400861
1,30449185015646
1,28046511835005
1,27279120317013
1,29245233269196
1,21348313210735
1,29223046106062
1,24605382387143
1,3763576719059
1,24506006169985
1,23491386141427
1,2426321447614
1,29807435733135
1,24204726698991
1,26178773368478
1,25423357517233
1,31954416113729
1,20228383534741
1,29270248890973
1,20329219676658
1,24616339477274
1,15141662558059
1,31323651555344
1,20699085865006
1,26916217626295
1,20207154712389
1,18022295091328
1,15882324267591
1,17009983905794
1,20537478669266
1,17871518793716
1,16124001360792
1,15074974510634
1,18344458121199
1,17005366683907
1,10265244521279
1,22428672378799
1,09498412030187
1,16675609102323
1,0667063086077
1,17323791975559
1,12478355070495
1,12770341453115
1,13355744063895
1,12931254450231
1,05810983559974
1,090858578915
1,06228502756886
1,09494301852831
1,04207667798828
1,08921882060465
1,10399092606914
1,12309944596355
1,0266767688954
1,08376715667158
1,04333247956444
1,0312766624697
1,02058506169976
1,06513016552192
1,02256994984791
1,04763065496127
0,951467427382028
1,02979132623253
0,966904162294779
1,02984890822682
0,943605590652641
1,04214989502543
0,960270983694086
1,02366133542348
0,958771580035563
1,0103027015414
0,954336319590805
0,953588696911199
0,932874685366124
0,94494728358541
0,914220837894037
0,949371193072631
0,930286666613155
0,931121627255787
0,901502334164884
0,947626859533209
0,92928503513615
0,928879831037616
0,915721912845467
0,932806435141988
0,871321064741409
0,900947703804259
0,862937566178617
0,898056115874556
0,849236769037943
0,879694423100077
0,855866901589601
0,898188133418822
0,815687085522717
0,859815729821339
0,823580839408786
0,856547773968125
0,819815134319319
0,839587657120989
0,831539759513763
0,847928238364208
0,831516544750372
0,826402067000449
0,79045649464472
0,791455592410879
0,797874846879711
0,805195138964253
0,785811894303595
0,816670343416132
0,773254571887518
0,797309361117744
0,763342281852371
0,788442391379383
0,768423021912716
0,771762004386972
0,753497176332738
0,754138426899536
0,756871213229235
0,762650087608066
0,721044266350182
0,754546130939376
0,726245979502598
0,742418653536923
0,725322701770024
0,726834116418811
0,720082517572474
0,712765461125428
0,697940341564534
0,726662423961805
0,697263538047656
0,714813901357813
0,695310607354205
0,697445623660287
0,672768174353914
0,678774943984832
0,681937857448093
0,695045202200536
0,665089405646309
0,675899344054707
0,65262120005194
0,677016415778854
0,644850704283938
0,663685112294
0,64603457180031
0,64773249940633
0,633454891840032
0,650437876818912
0,626961914616827
0,640118758510416
0,614717799523507
0,634802012448572
0,607838248425212
0,637109981337025
0,60810406393895
0,624481493842487
0,602733115476647
0,618749673847777
0,592554791272103
0,595766238639255
0,588908339682969
0,611899645602926
0,580643139780293
0,590503726616303
0,582317193854026
0,593064587115464
0,588763417514545
0,584937355029789
0,581707794517199
0,583665847210246
0,560637832134115
0,558826992436342
0,549123659484056
0,558019923704403
0,548762901474502
0,557027906019543
0,546431456661971
0,557568118684564
0,538672474365514
0,545930640526683
0,526014657537197
0,539957068536223
0,521869263619876
0,534241377687535
0,529787785179953
0,534853971579123
0,525480621207175
0,522715037979107
0,505458396541336
0,518678800345682
0,503613106731771
0,520785620754328
0,497732863411403
0,507356450870353
0,492911997655973
0,50944135103823
0,488945085837761
0,497552898836341
0,483881072480309
0,497303349404432
0,477528360661242
0,496894799496738
0,487743582184334
0,486946053367632
0,485238017659751
0,481603027878722
0,480352196357761
0,485471385510859
0,471685301001157
0,49139610929289
0,469757388023519
0,466498816682423
0,463046171365873
0,474283222834895
0,459577773440914
0,463792589415527
0,454303909687807
0,467606669485544
0,440083249363802
0,467835269862722
0,462865109304451
0,464741475439205
0,448391585864734
0,471983204584456
0,455860325203564
0,460554581419822
0,456458671679121
0,46263332803927
0,455741338121471
0,4664169291516
0,456248237923133
0,46716377230527
0,45021552399667
0,458504619687935
0,454054329427003
0,46428088604011
0,449721082132832
0,470531293411172
0,45955755517627
0,47119007526969
0,46353973783459
0,477077916370589
0,470817949005851
0,483814005088654
0,472743487718308
0,479603128125629
0,47719119548447
0,486192906237801
0,478179219929264
0,494693103089552
0,486844041634938
0,494865475693695
0,480672058345103
0,497449590141662
0,484476426107102
0,503358439314983
0,496572340154431
0,501875811119857
0,505544947383306
0,513130662339871
0,504323971081146
0,513962626894103
0,518745995046145
0,536422926855632
0,527202045809996
0,52594315916689
0,516352271950267
0,53624567032452
0,527419795126356
0,542301506431723
0,539663004331428
0,550687391417943
0,555811417581368
0,563246940383581
0,559878772304217
0,571390361265583
0,560015517733803
0,585332117929956
0,577721362259318
0,603577799266219
0,600746307950366
0,610307064412667
0,605387455690105
0,618297661351305
0,610181681925352
0,627020596258301
0,61345633403593
0,636258238673755
0,623761817096288
0,643630798107509
0,635969316389141
0,645683460318144
0,6490955418234
0,669012089977567
0,654152283567993
0,651745498787159
0,647871727904011
0,666553720245226
0,651637147735905
0,663515715159132
0,648072750596968
0,676037298118695
0,67404313046012
0,663687090625495
0,653899442215095
0,660758626605412
0,664207162675133
0,653599071816676
0,63454175366908
0,652050710924412
0,637152815735852
0,662524091668991
0,648261871481837
0,650101682561651
0,633087621370721
0,661205005155155
0,643735327306221
0,638585904907067
0,638216594906185
0,636014006103686
0,6285559184371
0,639595808244567
0,63033928412756
0,636044084100886
0,632023580213493
0,646901492442458
0,632139870309261
0,636582936832059
0,628032020538386
0,64099049932915
0,625043800273087
0,637370932154829
0,627891291840139
0,643693743942867
0,632697919393336
0,632042399352343
0,632005129192524
0,642117985487353
0,628089367016616
0,641492023834402
0,631457646340935
0,636693226865546
0,624018512168683
0,628751294515977
0,611909671822994
0,623596565426279
0,613519548995853
0,6243927598291
0,613889412720749
0,621126395835153
0,609164714995363
0,621996133547404
0,60015027938418
0,604928005420827
0,588073340787838
0,597791590534187
0,588406988813118
0,589081804068078
0,588926388498694
0,590786217043965
0,580445459395359
0,581088137690872
0,580448193880176
0,57127740133384
0,557253522348807
0,564507541490457
0,55951416407613
0,555237152447432
0,541318247861258
0,54378258597194
0,537186123124212
0,540572300122694
0,538027587645002
0,543230514587258
0,532897260921489
0,530719266056158
0,515832099715884
0,518414920876632
0,511569725013158
0,517844806963834
0,504080649808696
0,506492671024858
0,495188789352651
0,493599649801745
0,486053560979842
0,482788918376047
0,479906451478706
0,478764722915972
0,473437610750667
0,471102431041624
0,462517535920681
0,473052167850651
0,465988221728822
0,468811531469229
0,456552966497648
0,456897784114956
0,453983723578578
0,466821679493968
0,451851622919715
0,448780666197957
0,442098659362227
0,447499535802404
0,436480907432918
0,446222380024198
0,444285545220532
0,438974269535178
0,43193217535012
0,434419727173523
0,426522155555599
0,428459957993254
0,427324915868948
0,431825676789673
0,422549339294317
0,423444370122771
0,422575524686248
0,423703168581776
0,413605638424416
0,413748496979128
0,409347575736833
0,406969408901992
0,410064382615146
0,40966156852243
0,399882786290428
0,403236834702125
0,401035280474294
0,411715664252012
0,396573110702678
0,393221883329175
0,387285491710463
0,394470200285069
0,395296201853314
0,4005677117759
0,387885491745791
0,387632907068763
0,386119724409686
0,38889595762684
0,383478561775128
0,386929768727959
0,382683671389977
0,384238548679245
0,377228202824369
0,379633948678568
0,379368160725998
0,381024196498088
0,374122323691888
0,375873954421583
0,375373402435081
0,377107251345637
0,37122713248078
0,371815174723296
0,371989057269671
0,37089509509023
0,367968700532182
0,3751575741461
0,361146349638061
0,371000561887156
0,366389639719284
0,365704575827238
0,365290749884306
0,36158415665655
0,359758372732406
0,364554548807816
0,361304746145235
0,360231283285202
0,355628812197377
0,358675009169868
0,353691633973122
0,354228445269678
0,350272804386424
0,351654994061973
0,350738956735974
0,350423411171366
0,349834182912217
0,358406335659033
0,353808574677919
0,35347174735049
0,343649960821539
0,349447211879468
0,343134325344239
0,347703503171389
0,347611866978084
0,346471167456307
0,343786848280121
0,346500412200763
0,335698618324284
0,342105247702267
0,343322089166801
0,342422319472152
0,341615746919168
0,345570218031066
0,339101040252077
0,341546470755013
0,334416453915876
0,340611047992357
0,338007698747473
0,336316824889953
0,334441216811883
0,338417881416902
0,336831150814073
0,334515061376482
0,333861688655339
0,338399394992361
0,334253897676991
0,334416443360061
0,331573453402429
0,335323531879326
0,331880927952006
0,331629684266189
0,326181322450273
0,331920127338641
0,330838053627483
0,328583268009924
0,325854232932004
0,323684465862769
0,324958808478531
0,331326682952012
0,325492333920074
0,326508657833692
0,325083398893783
0,327108300288106
0,326916161075077
0,326119843551477
0,322495825828728
0,322388920834626
0,325312297383957
0,327078263457893
0,31936793038307
0,322898967553225
0,319145203540701
0,319788068232438
0,317781236869156
0,32245265153891
0,317941415735474
0,319617188983531
0,319284295003752
0,316863394748208
0,315725855655769
0,315474610896255
0,313537150378317
0,312872350659858
0,312178366255759
0,309346369513348
0,310468428299958
0,313123688784837
0,311508419183016
0,311799697592516
0,308483453560437
0,311590604908584
0,311934269567132
0,311326409825665
0,305018841624756
0,307457399807942
0,302829078621581
0,309197144997767
0,305967741730192
0,301242210895803
0,305316743023695
0,308298652796865
0,309344116592492
0,305069147640262
0,300985577616194
0,301249389559434
0,295838865658044
0,301348693473871
0,29925937171035
0,294109580121686
0,295552745949245
0,298536268125353
0,294936457819931
0,293619359671015
0,290987003849159
0,293370834341987
0,291363044364831
0,291616582853047
0,294089420336726
0,290249073985818
0,288899695627712
0,285129608680156
0,284663842549379
0,285945052496122
0,284422286397397
0,286364670086695
0,285690764898346
0,284696604563072
0,284866450184344
0,283726011976054
0,283607010524306
0,285762636105919
0,277792719925332
0,277717904277558
0,277248745674763
0,274205026730957
0,273495236546386
0,271270024395901
0,26992726426211
0,276876787818559
0,272471312391592
0,268894178420971
0,27078634207216
0,270012454931037
0,269760221695041
0,265150529778795
0,26540797396742
0,268025413878168
0,264990612425336
0,261781204304704
0,26686560834863
0,262619114426538
0,254842667018259
0,262540833511717
0,263590617238361
0,256186816511221
0,258543428750364
0,252250333669334
0,256804317220727
0,256587229471547
0,255629565410575
0,256001591049865
0,252726443456691
0,252906624491676
0,250213512234299
0,249259681569419
0,249322060735899
0,252228357115817
0,246895454266959
0,245835085387481
0,250371602612827
0,246572729282971
0,246883920919428
0,24707912000395
0,246062514439404
0,246023934640449
0,241743864761388
0,242106551008284
0,241897550464173
0,241258025145397
0,23581691283319
0,239850027634548
0,239869092892762
0,235465109182827
0,237782235385622
0,237893985250615
0,238537260898193
0,234622303979713
0,231828781087702
0,235254245561498
0,236079309872102
0,233341650310172
0,234236907770444
0,232245315053608
0,232027227808549
0,232358353952909
0,231000767323511
0,227989249909829
0,22929447606576
0,226522509653
0,22640016450102
0,225418853534325
0,224781705261266
0,224543086664859
0,231200091509477
0,224280618649667
0,222725714851093
0,221191052452648
0,222913838415622
0,222127813353705
0,225734633358019
0,225204220018255
0,222777211725972
0,223338103502591
0,222100968138379
0,218684767959826
0,219629454416532
0,221491542463618
0,219727550601178
0,217882241210541
0,219644572545654
0,217673151567287
0,220074833174346
0,21788361245417
0,215973926860584
0,214991986802303
0,217682017163161
0,217026263100784
0,214548954418536
0,214722451674305
0,216969346946874
0,217404596214865
0,215454978492688
0,213127832647581
0,212101438729455
0,212068331833666
0,214782498168882
0,213979491474822
0,216008869104341
0,210802062812882
0,212830778870217
0,213465100807816
0,213051126802272
0,210026662513556
0,209768542618726
0,208454980292316
0,208751860956127
0,209859429375456
0,208831292361926
0,20950866392349
0,210166467858374
0,207770102862794
0,20924165134249
0,209831835567361
0,211987483736583
0,205342986850036
0,20507021370908
0,204332990813271
0,2062279385765
0,202785252658415
0,201890980650044
0,203304829245323
0,200708505063774
0,201822215941759
0,200089160566957
0,200869545305234
0,202473412138514
0,20170744788109
0,199438340389124
0,199908687085424
0,199570962476098
0,199320107636972
0,199506396295584
0,199166561780102
0,199035931792054
0,194628686213836
0,19868036916459
0,194943755449972
0,196333184274216
0,194726997956155
0,200387409869788
0,197430871216959
0,194990441948886
0,195229007173369
0,195977287654362
0,191423922612747
0,195535709732977
0,191987674776751
0,194288936003831
0,189383705599409
0,191871183693917
0,189699094413607
0,19324031381776
0,193475035151195
0,192534387725249
0,192869003971089
0,192253920261191
0,191595006517743
0,189271481236351
0,186359614992649
0,190896913360761
0,190109288069296
0,190072782756077
0,187950803910597
0,190590778713422
0,192785330688863
0,190072860782579
0,183518720050036
0,184685308091874
0,186322342794615
0,184636099642444
0,182881929733566
0,186075474585873
0,187098721951431
0,185374091901565
0,180379700568644
0,18342537498171
0,181687362354302
0,184277192550408
0,18055489733452
0,184076897088372
0,178551945290479
0,178579506658336
0,178959883124811
0,181784577295943
0,180100840710115
0,178462340657335
0,173048851872944
0,176526513857386
0,178677352587472
0,177933639915706
0,174522540649461
0,177331172970089
0,176134540040184
0,176102752019571
0,175104463193304
0,172941724253486
0,168407070320338
0,175151660972268
0,171427400030365
0,171725150813845
0,171897240014834
0,169163819121055
0,169587571483582
0,171009160231033
0,167412832160462
0,170248660069979
0,165850622395441
0,167349871284661
0,164350106421495
0,167870353283118
0,166738660891131
0,170479328336587
0,163777548302138
0,160556159247452
0,16031143121647
0,162114830873223
0,159147746596939
0,163374015497351
0,162077623958809
0,164500140394802
0,161509462004088
0,161329779538854
0,160010560574879
0,161373258492891
0,154970990014438
0,157624262308862
0,155735312751985
0,161003126907691
0,155854783801313
0,155786503411358
0,150388408230874
0,153915821891745
0,155424981477597
0,153781583322316
0,151293882366535
0,152093018561836
0,151953446987491
0,152849608793028
0,148605123241239
0,152635691186896
0,150289712538078
0,153281262588089
0,146080695400259
0,14774969844818
0,143656187870276
0,145458627632617
0,146459529162546
0,147650616250115
0,143828215514243
0,141637031118994
0,144664322996874
0,146019833063106
0,142516350075794
0,143485463717077
0,142146391493231
0,142502937763963
0,138479275771788
0,14313758197838
0,14062564917313
0,137368957123675
0,136349060487351
0,140704903469546
0,134930024677747
0,139474625427652
0,137647407765296
0,138367559806508
0,136981640578618
0,13849385300288
0,132435330616257
0,138364716967622
0,136764679006596
0,134905769762938
0,133446776796687
0,136689726681557
0,134869943609377
0,135215123180983
0,130687662246461
0,136649354669959
0,133318691753165
0,132798767838173
0,130196427180605
0,135335980932051
0,130926216165121
0,131248557681043
0,130865027993893
0,133757036841601
0,12965906312835
0,132624295568479
0,131076631642695
0,131318723420617
0,129733310928881
0,134486968171409
0,130694787888901
0,134415512897903
0,129788908587145
0,132089458201248
0,132356346775331
0,136239377654338
0,129654993946242
0,142303093125708
0,129300191790117
0,134227683482516
0,118566325342247
0,131893281939832
0,130202580176474
0,130669380507173
0,11899353032862
0,129551852184878
0,12442523030452
0,130235223322127
0,120428083350378
0,135409428173781
0,121126192810981
0,133224708338991
0,116511756967233
0,12551262647551
0,127738749276217
0,126548617578871
0,123732965943028
0,128240213075739
0,112391299485718
0,126794160917929
0,118490967572869
0,123915901689336
0,11550966762798
0,12488070756569
0,112799899042043
0,120098225990735
0,11894009613125
0,121388908335284
0,117002496065124
0,120263838557953
0,120423767994485
0,118389407216237
0,120996955294065
0,125321053507205
0,127586107522197
0,121130837270355
0,122721395440035
0,111599236728154
0,124279012040181
0,104791565710215
0,135432802677157
0,11446832647551
0,139912174606813
0,0980199897733418
0,135334515464662
0,0980719436310864
0,153159435238488
0,0914472918578942
0,143594495553351
0,0849271326851387
0,158211590253376
0,0842373990935043
0,146661164957848
0,0838731990269726
0,150412427643438
0,0911218792036034
0,139285965920041
0,101413526944546
0,128626427703213
0,108971375087368
0,116498577162105
0,120446164257089
0,108697096512639
0,122978592249965
0,106064288298583
0,124232093249173
0,106359022951714
0,11549333380969
0,113871543071268
0,114432507265383
0,119112125316082
0,109453062115032
0,117357450634329
0,111241315659917
0,112935489720678
0,11372723471745
0,113365461146238
0,115621429517735
0,111002528595591
0,113009262760397
0,111872743880545
0,112319491771711
0,109626360823063
0,107642369574764
0,113058272895914
0,112913078229453
0,110580061991878
0,110257372958548
0,110537226612825
0,111858406510029
0,111190156833686
0,112548049395184
0,11136726767965
0,111337739230222
0,11258491613621
0,109684317193622
0,109940464869387
0,111678559878423
0,111464375074506
0,115642574515714
0,112737989840543
0,112937348333534
0,112188544170638
0,110009520178805
0,110335119176789
0,113471065474085
0,110542732425144
0,1117050433875
0,112379375500151
0,11214914508701
0,112014265177467
0,111548728076565
0,11158700860881
0,112951284735914
0,112154335033689
0,111675144698502
0,110491767311909
0,114612955892752
0,111478161090454
0,112693263885555
0,112681286317757
0,114939935379331
0,110410458524524
0,110286191804034
0,110018576383493
0,112604230347098
0,109641106221973
0,113978051068242
0,111365524966485
0,113737280584941
0,110844545246733
0,110437066211766
0,110261617351911
0,113792067561047
0,112455159417381
0,115009160319748
0,109893263745581
0,11148053306347
0,110841053334505
0,111945981719363
0,110475768371267
0,112420016504851
0,11170541458124
0,112242403205436
0,10823687877152
0,115628505113509
0,11184449928728
0,112335104378103
0,113546651991202
0,116521307502106
0,112000528138404
0,111753149528206
0,110063356002856
0,11346633574184
0,113270521879061
0,112652662901687
0,112799565769852
0,110979570144087
0,111899909577094
0,11625322458667
0,114751676628967
0,115518838368046
0,115705309869332
0,11493475286498
0,114515353281499
0,116359621368035
0,11338860026832
0,116327504082337
0,112477271718346
0,117685256322391
0,116158473362168
0,117270983302549
0,116584410011795
0,115703085896826
0,114875794514603
0,115610300519127
0,117787568799363
0,116033177989197
0,115580083406446
0,120524293731135
0,116773035855637
0,116627455486783
0,11655095864831
0,118477868409607
0,119139961593559
0,117893638499443
0,116458222370534
0,118662462149755
0,118201365973261
0,117486212578486
0,1186089552904
0,118635039773011
0,117949884027532
0,120431703162971
0,11655014352275
0,117689739412191
0,118789323587505
0,121448061337215
0,118493871757404
0,122156992574467
0,117661761243129
0,12113824458684
0,119214926274118
0,120814644458716
0,11987948529626
0,122875092565262
0,119620691006293
0,122008041759797
0,120304836958727
0,122541863778077
0,122583542251713
0,122915676748524
0,118719022006574
0,123861811698464
0,120181987882239
0,124295039648319
0,120012812219114
0,124255159765928
0,122941007608193
0,126145639378119
0,123874509898181
0,123141096411286
0,123295333396497
0,122517823637911
0,124064725738091
0,125143891269765
0,123508158136768
0,125712683585682
0,121293113713923
0,128238667225343
0,126062353353685
0,126791246751711
0,123609012686008
0,124066349048926
0,122069289936402
0,127438117146848
0,125487284481686
0,124266279191938
0,125564594848805
0,127181244436748
0,123318638416639
0,124735342005286
0,12218808357767
0,12392904086074
0,122676758614263
0,122610545920221
0,121020603149135
0,124196580695273
0,122616717490678
0,126137829424939
0,120979887747165
0,123310658801547
0,122425876142559
0,122555657842308
0,120268439935724
0,121731934044969
0,119876483783965
0,120767144910185
0,117473899099107
0,122034399939573
0,120154325527512
0,123753765333959
0,12088303970231
0,12176765796474
0,119793467540882
0,121898432808436
0,118496122573967
0,123499479683213
0,119802231227113
0,12159978390131
0,117709306135389
0,121549037768317
0,120260630290976
0,11779205797081
0,118614231892873
0,119504862450265
0,117025586708663
0,119153820392045
0,115213101141501
0,120880777599615
0,114958701131737
0,118771220005452
0,119733252198657
0,121406991955488
0,116584555748851
0,116883471129222
0,113872556584703
0,11730612639699
0,115558096293024
0,118529706055218
0,116404006318532
0,120323547248569
0,113529111600668
0,116667850159807
0,116329308782174
0,11537433334361
0,11607459714019
0,116606193018663
0,114614820695438
0,116057692486414
0,114350209457739
0,119152210583578
0,11352142358591
0,117334068726836
0,114921340486145
0,114251309018977
0,113410497975549
0,116227841101394
0,113483900142277
0,115658486335611
0,115263322479149
0,116218652881522
0,113245359887463
0,114463243593749
0,11171674840395
0,113828455396374
0,113581100779407
0,113882505760153
0,113547758280646
0,112832208744018
0,111592323958042
0,113471358361335
0,111755985577255
0,112222275565977
0,110452366919802
0,116583191589037
0,113183702281205
0,113657926603929
0,11353525617565
0,113622075682928
0,113908315173074
0,113353978934182
0,111840180614884
0,115007892360455
0,111658284820149
0,111699798214928
0,110194483860469
0,110328800798025
0,109262616018528
0,110844614840035
0,109695201030172
0,112486874157891
0,107706472984946
0,110850176517881
0,10841911641457
0,111885095879062
0,10813950330367
0,110526549207493
0,107107887420921
0,110404359394226
0,111176892673622
0,10940952039413
0,105531406465951
0,109040172114569
0,106877528288499
0,108320333157263
0,102905165970375
0,108556776671987
0,103935988507459
0,107044979412841
0,102511171080092
0,104536594471205
0,1037817225225
0,103446697339221
0,101911011590045
0,103413569132056
0,102283734711896
0,103724079094094
0,102036476625082
0,101890138057386
0,098193854029849
0,103755991893594
0,0970722395960994
0,103489770359997
0,098395568167118
0,101842612709649
0,0938302438832378
0,102762588651349
0,0946124046993612
0,0974496608255315
0,0941522109672635
0,0992114633404043
0,0940157404740585
0,0928887407889557
0,0955216194721433
0,0950845775069076
0,0940297358876747
0,0941785462619322
0,0878135272793642
0,0925556870479061
0,091454133666612
0,0924000607719067
0,0904149681790314
0,0918171682428801
0,088163048092385
0,0906953597245361
0,0893510101865317
0,0921944527015742
0,0876735160619857
0,0907775055021126
0,0897213152472266
0,0896816876908362
0,0899782640192614
0,0896449809002321
0,0966388594989888
0,0864666276546242
0,088005136541174
0,0938418858023916
0,0903782911826186
0,0819749466789529
0,0892481917289337
0,086591682134587
0,0871801923880148
0,088239502232421
0,0877894328793611
0,087196020141573
0,0867938205340739
0,0849945967379293
0,0859515748495636
0,0853448953634412
0,0849697795520247
0,0858656030534602
0,0846058179932642
0,0861447803430315
0,084058615220618
0,0846107872128227
0,084288801412103
0,0840425401254622
0,0848777021978484
0,0843241830755421
0,0889041634804739
0,0846249359246193
0,0837588592489698
0,0830414380655058
0,0824382196082063
0,0848482581285974
0,0811066045046629
0,0838535144769495
0,0832904590567589
0,0843186857093427
0,0825595220992201
0,0810178882343581
0,0810406793489544
0,0860326460490922
0,0829470710062499
0,0851471467558752
0,0836515877309062
0,0805285734284054
0,0802031819391518
0,0807868940344839
0,0804346627202308
0,0811632448529605
0,0808205041636269
0,0844756841406655
0,0819382211095732
0,0846519315837422
0,0817171148930313
0,100203990187106
0,0757628185249652
0,0872832434841862
0,0786736779425804
0,0813130002901115
0,0787815726054119
0,0826060409486939
0,0760700032651739
0,0817006320029448
0,0776147117658858
0,0841041792283413
0,0776699906050136
0,0801199486082019
0,0773956206763779
0,0831711462676814
0,0765080307065029
0,0786948423938904
0,0761314521422872
0,0800698115242631
0,0768942492291207
0,0807821538773875
0,0842590528132111
0,0833989466531175
0,0737502625843052
0,0859007250987823
0,0729299542152262
0,0911512369537052
0,0767741329243113
0,0744838389375662
0,0804006395630049
0,0761361967728846
0,0799710549477362
0,076290616629329
0,0836051376880214
0,0779003308882122
0,0862911939311072
0,0744687832441312
0,0810248356429831
0,0764601623648351
0,0770141455221992
0,0801332772482651
0,0769647320105845
0,076970026559972
0,076846780231212
0,0778656597962357
0,0762034675457294
0,0789455704724117
0,0752717815953779
0,0771611994535399
0,0767921007689886
0,0777146398145793
0,0835631728962802
0,0734899108541062
0,0780431623363469
0,0717152362502034
0,0797828350784314
0,0791108091134861
0,0923823449134364
0,068241979106088
0,0793227727727179
0,073748807724099
0,0770518541633957
0,0769992564244727
0,0767283578540204
0,0747132260830962
0,0751997148011729
0,0745891740144526
0,0753994729017727
0,0803426383762313
0,0747533324250459
0,0781083743880167
0,0726701169455297
0,0762009714798009
0,0746766097024395
0,0778398378112257
0,0726455414250861
0,0797515426998453
0,0768377644843503
0,0853459276412384
0,089244073423459
0,0761078403853814
0,0851888501274626
0,0723238237635756
0,0798712824013745
0,0744551134459791
0,0805693498494796
0,0740788662140698
0,0806962732624004
0,0736968164941857
0,0777145682835268
0,0724072358792201
0,0784633992150642
0,0723345056410028
0,079617565180237
0,0706819158584624
0,0780196509376565
0,0742280254783587
0,0786566466249962
0,0725676621152592
0,079556848482455
0,0746360425758008
0,0810468158358485
0,0782916188589991
0,0781534601166444
0,0851888247653409
0,0813627999451555
0,0952683361384119
0,067375403466841
0,0884527619081081
0,0688914510087809
0,0810464948240651
0,0737841360758935
0,0803468858428137
0,0795764884853988
0,0797113997704998
0,0735037490745392
0,0804162088522159
0,0739346905023211
0,0756419301912708
0,0793417018137045
0,0865809171183767
0,090987739977978
0,0817448901031039
0,0730489858271894
0,0867949243191452
0,0695661022803359
0,0969043860746828
0,0730278573043629
0,0788293241093125
0,079651116330548
0,0768629003277679
0,0790761406626374
0,0776217218856193
0,0822273603310486
0,0816963946160477
0,0809089204095747
0,0759138175296234
0,0810554197504322
0,0764354426546992
0,0787598091506939
0,0833432785472563
0,0808604502724995
0,0876222142863986
0,0790778728469463
0,0809626733045917
0,0842091227431913
0,0809835984011616
0,0812113389611398
0,0777718519497607
0,0854459966300715
0,0795986851220482
0,0907309748270935
0,084137701068421
0,0897075308844741
0,088222647725274
0,0808898471023744
0,0873083050598659
0,090532797710825
0,0787139504651337
0,0949956927557291
0,0726763377842077
0,11933985977486
0,0724028802779167
0,100563973327483
0,0786413489101296
0,0889745223771947
0,0811375695120373
0,0876714059807627
0,0828965812880786
0,0874923649554406
0,0958567095066825
0,0773537849639022
0,0974056200780111
0,0784911690321227
0,100322804492315
0,0808641521118862
0,0945314417367314
0,0851813256416289
0,09568109186517
0,081508948110345
0,10381526892583
0,0848000245801899
0,116770202428267
0,0954596413491196
0,0880354779556547
0,101381355806033
0,0918881448097956
0,10228938618135
0,0963447717681353
0,0877205626490538
0,102592328097835
0,0864429774271991
0,102305921456135
0,0899240799272307
0,112012122824588
0,100844983615928
0,0934279375873944
0,102605622379261
0,105086606812562
0,10677697009578
0,106540646076886
0,0915247255710455
0,10261699458553
0,0990497950791127
0,120355802963291
0,0891497446918677
0,140982136554883
0,0836086860836489
0,142337311803745
0,0980260030065509
0,122545262133797
0,100449689957461
0,122317785917284
0,105185893050679
0,126892634636704
0,101997524220913
0,126795521383741
0,105249509304434
0,137681989417318
0,108595185972688
0,119393714931922
0,119214428113859
0,125971579285056
0,130094804628135
0,15797977386436
0,117150023938276
0,129180474957114
0,126687667922121
0,136186694367853
0,131943219086907
0,124345861521143
0,131636392369288
0,128140482705785
0,132378814399639
0,139201384355067
0,135169949257308
0,14117228005999
0,12885292543076
0,149195286677651
0,135740637632198
0,178880677486163
0,144905151462967
0,162685387568963
0,153525545151231
0,147288963595629
0,161258591942869
0,146815920272785
0,158615169491597
0,154511071348333
0,157598119261941
0,159251439572614
0,158693637351056
0,172104387332821
0,156362419541261
0,187175054600079
0,162858594719786
0,190588262629576
0,167058956625793
0,189093953073823
0,204296708430534
0,168000473198649
0,217791288963226
0,174513690297949
0,225029753724604
0,190418781736786
0,236487504098282
0,207361519378636
0,208678404746879
0,211333568130328
0,224132170856219
0,222804529830965
0,238003358949594
0,237867005482242
0,244212236417278
0,24072423437926
0,256758027606374
0,257598946314903
0,328285007167692
0,288153013523614
0,285652382669302
0,278728176220888
0,297157872901772
0,295564045799827
0,302885193227977
0,288203961484185
0,326526538789698
0,316998016701979
0,358336492692199
0,32163550595012
0,337550489431548
0,347671766250899
0,346809006375147
0,375018995602947
0,340717284443945
0,40909681293937
0,353266128114309
0,391467209702916
0,372083440814388
0,39924694525031
0,397990894712511
0,413965735686416
0,416170881296238
0,410469787149957
0,420556706017739
0,420610358955998
0,428141445746369
0,438657206218831
0,443344162411789
0,454159438940191
0,452422752204736
0,529963953620817
0,388917442124634
0,497635318464719
0,440229738726627
0,470926938957415
0,458492417002616
0,483630591891829
0,490511814070971
0,459601209559105
0,492479282639256
0,464608817373009
0,469894889089776
0,480140178392274
0,472340619792314
0,475064857795644
0,471876832608102
0,492874741386129
0,459109385456795
0,519961306703169
0,43034761599834
0,532943266630791
0,473299072022398
0,477645886605067
0,456656841636004
0,465765953954455
0,453382113414974
0,473454716152561
0,463886215813267
0,474584800162652
0,458972019806601
0,448227872395005
0,461341088338262
0,453704998812467
0,472090746806256
0,442932542909992
0,438773383871805
0,445895621293215
0,422299276260727
0,449337906903071
0,429355317038086
0,4537319641414
0,427332595176182
0,412025452191542
0,417681012135974
0,417617948781369
0,414121939058976
0,413509305558646
0,411819382808309
0,415418621910514
0,409053053839799
0,406152617740652
0,406686981680695
0,397930017866377
0,40351627774361
0,394029412885634
0,405949467895432
0,391091355465795
0,403241866123454
0,391575001362356
0,39363273746824
0,390761563291602
0,395701047697232
0,393527760707553
0,395094585337282
0,387543767747414
0,392913133092588
0,387296065152535
0,389068201318944
0,381327193322464
0,384381583819287
0,382666658475032
0,389269604367642
0,381472474521921
0,383676862884134
0,37955404764754
0,380683712307244
0,380204700828099
0,38048372451451
0,374844397201375
0,377878547748765
0,371072291441861
0,370476332345651
0,396989344602566
0,35140872211247
0,396149160011884
0,357979701494889
0,364798761152296
0,361569248147336
0,358470172350796
0,365582005635418
0,353690672380675
0,372643791614369
0,343981948479257
0,340642353284021
0,342894186323737
0,340624730628235
0,343018638565488
0,338613061285949
0,324288447907245
0,354286938875572
0,296819637713336
0,418711929921616
0,341897702797776
0,353748451241673
0,31294434528541
0,323970008471412
0,317060905169207
0,319447031620183
0,320198609623693
0,292617188470675
0,320446542791398
0,283792183503267
0,317923262810011
0,296097496000563
0,2962480634122
0,2994211542017
0,29953037329577
0,310047430507469
0,310871447530509
0,301015803301701
0,302741887745704
0,309894973347478
0,312238728361521
0,344701472863741
0,283868356174159
0,285376366816436
0,268647005137535
0,28207407347205
0,297711033488447
0,267805859590598
0,294526305211527
0,258251398732356
0,279812876476478
0,263540779820454
0,282508069459075
0,27168814759357
0,270600783710326
0,283490761625044
0,251161471673929
0,287631428572624
0,240833639440005
0,305191367607498
0,26304387505906
0,291534384231454
0,252949737981451
0,275579678211643
0,262620546186901
0,283238489121741
0,27434820591864
0,251178893534537
0,26072691376081
0,262106654981694
0,252593697093121
0,267738272417779
0,245920044264834
0,284295669321457
0,276037075526584
0,28439852932674
0,301805451651792
0,272682813382061
0,257273138089571
0,256099231093231
0,253163322995984
0,269339199675331
0,244937855283719
0,280590046237326
0,232315145314319
0,277100191594567
0,274782805873116
0,267065471163333
0,278236009143136
0,272097199597924
0,272925663055613
0,282819553677342
0,278895016961764
0,310803899899869
0,293029211559534
0,307291722265438
0,291499838012404
0,303567901047448
0,308316932494387
0,302520287197222
0,317394868520029
0,313864661679822
0,332769093906495
0,329285870226724
0,340337181515881
0,34461963453486
0,343818468392271
0,365445159320616
0,371833505723743
0,372650816439032
0,400951280256785
0,371063863114333
0,455867275530087
0,395268541624105
0,436273839560229
0,416245645341529
0,430606190642688
0,440920163222738
0,442509233691604
0,465817217764917
0,479230654132924
0,475117632233573
0,490148898724855
0,473247842020649
0,501839754733834
0,486481198724733
0,522071366849676
0,500055644255304
0,553601097714061
0,524882107331554
0,550805719025036
0,530101454459214
0,52604168313942
0,5380191360055
0,527285149898947
0,540569847997052
0,531788647733526
0,53729451528767
0,557975128815596
0,547994792065308
0,556354374858265
0,541522391895411
0,554738499660589
0,546236875835439
0,549626303143904
0,554375350775292
0,551950334230433
0,562275154613776
0,566556905658006
0,56857683871546
0,600104629750883
0,583957084637629
0,606576683894229
0,576136269004182
0,586985187104261
0,598951007760699
0,599466275981445
0,606880382036093
0,613805483547989
0,628323177648132
0,617973628530585
0,619122871230923
0,622076550276656
0,622572116159223
0,650377001774881
0,629431335908265
0,651536416967813
0,622437622419929
0,660908560456544
0,667677697997979
0,685231255926201
0,670367755851945
0,655878938731667
0,680028642392078
0,668565282788498
0,672235161169504
0,661627655482705
0,673588798589789
0,664903715058728
0,678261035160171
0,665273491654328
0,678730048463364
0,674127775449547
0,665270061173865
0,66874015734353
0,671216824360365
0,681186278099245
0,659083597270354
0,659684757694935
0,652999559514445
0,66040843780746
0,673408125820499
0,669922675237304
0,660831078992494
0,646092336689789
0,656392780429944
0,662210684161219
0,661775048490591
0,644033537008094
0,637018462986203
0,654884677676883
0,64994188966764
0,653216721929578
0,660847302602884
0,656977445037198
0,679165120633219
0,660766339168674
0,676474931226726
0,671408083043852
0,675484816889312
0,679580101776224
0,686696042437154
0,681771849851761
0,698158327469558
0,690052980546593
0,708506734951628
0,704872053051222
0,704071015828562
0,711872216448669
0,722387449269193
0,711336506566318
0,722561779900569
0,709303694585752
0,722535083416739
0,719461332418188
0,721252135321813
0,710308170204206
0,718887932492598
0,693234225592052
0,729930587741658
0,704647022274083
0,718908966845158
0,709406415509517
0,708960718655886
0,688079184207919
0,688995131052535
0,691178504429769
0,690750772208174
0,67611190254904
0,684595442165785
0,680821612258639
0,684604512839083
0,67025300934892
0,671963403368007
0,66982872081614
0,676817992898222
0,661511172835829
0,666845521558961
0,663887044974993
0,661771359497591
0,656198891311786
0,668164745194747
0,666851588758617
0,670717171811692
0,670560707341628
0,678547015712703
0,659430086958162
0,666366544210716
0,672163771552528
0,665123584565231
0,664656622468388
0,654715998124233
0,659195664405362
0,654677096605555
0,650966195388435
0,656760011253364
0,656950686892998
0,646202947370072
0,651299601294177
0,639270725033317
0,637919854463302
0,638391689018395
0,638042171574579
0,627273614773214
0,632142725189831
0,630536577952486
0,623079960207525
0,620448268835815
0,624727924774827
0,627548921425422
0,615192684122318
0,618852682577223
0,612767307107069
0,621068503496843
0,611785136457694
0,611873274396154
0,608947606931961
0,612289649385251
0,608506914106514
0,611374842773659
0,605904689904527
0,598376245233387
0,60170958006699
0,597449795206279
0,59763158534056
0,597465578405272
0,596554876225445
0,59008931406032
0,589407145578479
0,578224856847951
0,574746141453723
0,574495975247759
0,567823721374001
0,566299762855264
0,561429771814136
0,559826620578683
0,550116159201653
0,546482821795839
0,54366947242356
0,541375500106284
0,540141529712586
0,538955669519612
0,531830972482818
0,529491467573015
0,525909251519878
0,522976268855944
0,52523678212423
0,521219907720245
0,519356022694968
0,523848225651818
0,518528479155403
0,518953995106245
0,51801419844415
0,525175461702553
0,516849117323823
0,523444647148121
0,523996143387158
0,531240062266764
0,530899192518173
0,532162188722682
0,532450481401197
0,527849688288553
0,531656664320625
0,53432091333847
0,537913742750289
0,537463424433641
0,538711981877336
0,542435501178756
0,541633280866337
0,541844881937752
0,54695762778374
0,543946829995708
0,545339135829475
0,545478403942523
0,544855303534268
0,545334237798093
0,546083205794128
0,543610337536438
0,540511065911229
0,542862981031191
0,540905408671189
0,539554183256491
0,539047416400665
0,53970836022374
0,536252947221209
0,537981822503767
0,535598247048723
0,535996952060093
0,52909379221415
0,529944600910355
0,527112726563531
0,529554275281289
0,527098142045357
0,5269563929786
0,523528700718303
0,526745110180878
0,518408956769718
0,518216301275171
0,512344405790308
0,514433008068626
0,511903380022107
0,514107856631954
0,506886332044856
0,507354160674876
0,501177555108542
0,497226110658307
0,496414828351794
0,495044359330837
0,492462913221496
0,48851498714036
0,486008845688492
0,484255293445221
0,479871961170632
0,473493628830258
0,471257765833399
0,468365724084264
0,466065776086084
0,462935182438052
0,458628795460633
0,457930517915586
0,453027785482261
0,452901400015272
0,450212551716529
0,445295228527165
0,448278693171532
0,4475907748563
0,446828403546005
0,448014911092364
0,445382312307219
0,44947851191305
0,445404356535392
0,446591503214642
0,444765145856744
0,44243196453452
0,439185964038497
0,438630395241382
0,436109624530861
0,432441520051006
0,426614594621333
0,422693893603594
0,416856720027018
0,410495887680703
0,408308978480153
0,400292048819447
0,393605732252025
0,389255716607412
0,385106859362827
0,376913307512519
0,375744137815074
0,368450228546793
0,369610194157807
0,369672884119092
0,365497133611199
0,368460439956122
0,373354831538362
0,376889647808065
0,380805386032593
0,389687168566485
0,396751493226777
0,407859732333634
0,421107558297813
0,430385194323637
0,448199468228912
0,462702203768529
0,482770735194548
0,496874111956262
0,516578654292477
0,541630809254952
0,561509317972525
0,582673865779564
0,605798360225292
0,631035289593605
0,65702733331099
0,686547577298781
0,716731825179045
0,74440899308934
0,78317205312726
0,804331003885103
0,83617411390452
0,868782375865886
0,891308870201301
0,924125564495862
0,949142769547764
0,980426614114614
1,00062036029932
1,01576908567831
1,03617011198948
1,04911429791018
1,06229263532355
1,07599646095036
1,05851019655192
1,07323509699912
1,07616964989621
1,07945794042352
1,06373264722959
1,07174633044811
1,0484768562235
1,0605825054892
1,03983050747979
1,03008173828531
1,01365427291939
1,0158103708426
0,987427598785474
0,998369082347592
0,987198610989545
0,98695533720501
0,98433630429861
0,980742544793825
0,980678946218447
0,981323842229004
0,987649191518798
0,985932037454085
0,998665604742559
1,00131591088883
1,01878012575258
1,02941901191993
1,04822079501961
1,0410907602776
1,05753485453827
1,0732766897052
1,08079056370583
1,09344384969011
1,10892627251859
1,12213988191017
1,11242327192772
1,12935873562315
1,12139401793631
1,1217636671435
1,12702854863129
1,14866903070238
1,14948509686822
1,13953051423722
1,14746745502807
1,1424889978742
1,15970097274333
1,16585170989833
1,15921208459389
1,15384822019235
1,16350530672277
1,1836579880062
1,18049594561711
1,18553105405121
1,19121825303251
1,21326858204487
1,21453869167237
1,21596295243904
1,21696080671689
1,23579771872476
1,23330477341672
1,24294308475299
1,26523534292557
1,24223392165711
1,28791799403105
1,31835474057833
1,31635668588989
1,3313512606558
1,38428797675805
1,41920692258484
1,43026306789361
1,46718924455409
1,47033864681473
1,5292306873468
1,59185200755073
1,61710457983917
1,61582402747382
1,67482109960609
1,69846865940494
1,72133437473023
1,6693566859305
1,71736653055281
1,76843916836933
1,80940920466588
1,81091838567351
1,72447079447055
1,77236087604783
1,70019734130828
1,70746329908244
1,71950602360488
1,72952391191433
1,73905143104144
1,65943885942944
1,66528714554565
1,80463643682987
1,71342130139396
1,68701237233431
1,69791823321307
1,71863181085954
1,77782876704562
1,66081854945186
1,74389320924296
1,76159246531031
1,71885289193631
1,90641936270765
1,92724718692969
1,93116313025977
1,85940472476698
1,87547414691648
1,87488354552919
1,96160665841262
1,94999416591765
1,99474460289956
2,0726249178998
2,13219665922388
2,0738680219983
2,11034459121716
2,02441361723365
2,33075264491127
2,1903097871951
2,2217461693672
2,50118186042091
2,41032709027332
2,25600822661441
2,53173249553221
2,50202782550944
2,14166363999201
2,33701576747036
2,36241953535494
2,3510971075632
3,07353733926598
3,07698964215142
2,47791426023757
2,48747650127205
2,6157126312939
2,38401657561464
5
2,52531116311357
5
2,91562535349958
2,68678470122092
2,29540034158089
2,32291646226099
2,83849558241102
2,66866158775571
3,13030858467509
2,4445567899619
2,71649431593633
2,35362004606011
2,43670610387133
5
2,55211819611019
2,43263468277643
2,59403083105347
2,44291902923803
2,76946079284567
2,77931903659129
2,35179289043595
2,3172718117907
2,67486056344016
2,1343014103171
2,08972989211658
2,66956610380187
2,52860082206786
2,26512471038207
2,26625463236804
2,51175855732751
2,31212023599533
2,13248680871295
2,18690821133574
2,29636246153104
2,03833409774506
2,19321011016377
2,14432542113196
2,35586441170209
1,89879015545383
2,04462237311184
1,92841809014688
2,00096940508072
1,74168858480939
1,72807263548285
1,65607332320497
1,72252144081723
1,67279770697574
1,62314518465753
1,56179336286943
1,57474677958063
1,41566815311382
1,38249539472833
1,29455524255489
1,25560050428107
1,18084486468163
1,1308852092694
1,06893152991593
1,02838523319835
0,981960267047543
0,971596839115487
0,911959445943486
0,877467040295442
0,846165663741383
0,812386495773493
0,782258852501777
0,770509041536604
0,749322747913077
0,745367314609731
0,730529395870663
0,717196067302465
0,695762170529935
0,690966254632243
0,673597144471097
0,668764608883774
0,667811430028598
0,662245863169466
0,652275735004797
0,665634254816686
0,650255094556788
0,66409182724338
0,676126833585056
0,680939911571462
0,672183684615924
0,685943414302808
0,689274510510743
0,707286296644838
0,701962620743764
0,721683111517053
0,713107006168218
0,729980592280831
0,72147714816523
0,738052034195364
0,735723779054035
0,741405444374649
0,737627890420002
0,757073897816326
0,73933135859233
0,745210869317118
0,738897013302504
0,739922998814384
0,750553004162334
0,750719068515302
0,742491158743792
0,751027584190367
0,745405420567084
0,757915817348555
0,754584601361068
0,760361524197117
0,738061233410162
0,747872160198191
0,753701513681177
0,755477748923211
0,735660505184365
0,734489506589936
0,72592446273651
0,722928469624863
0,705139608640387
0,717712779529447
0,70947359556136
0,694419539711072
0,683518069710347
0,698797912373435
0,68925821850779
0,687741125913385
0,673869931208801
0,684744427008454
0,687247078399102
0,694598284250687
0,703967763134125
0,686085492764243
0,698843894259336
0,703477111698811
0,720868436052494
0,724544760157413
0,735569688643442
0,763857245559925
0,750862653279348
0,779631536779194
0,778927360805664
0,766913824708547
0,765025563950893
0,762445249735497
0,738438787298985
0,741249954417672
0,739116335453312
0,730619788805017
0,702706902716877
0,709366332338062
0,692577966432948
0,688452617704059
0,674981085138865
0,668628047182334
0,687111054493071
0,660876263498061
0,672681703925183
0,675796319241717
0,681555544659019
0,684407266624468
0,700180693764669
0,699594140590979
0,680266502703191
0,708362238454637
0,670416501927
0,689870102222346
0,691404961531819
0,707222265730525
0,685810257673997
0,695592102735399
0,699287885168899
0,700176240953031
0,68883971133123
0,707006236227494
0,708584953912204
0,711906423186853
0,68555990246436
0,689798077726704
0,702132551718324
0,719160199108755
0,713858705909173
0,716878102908785
0,721641263925113
0,715383254641169
0,697651693942683
0,719552917540312
0,713373522599839
0,70865058498261
0,697846643914822
0,720830297122513
0,710789297504153
0,7218111379543
0,692449108781701
0,701386582145537
0,694425753733582
0,706656744851802
0,685232726112886
0,687708965400406
0,677703116937199
0,686302867535054
0,677134289836874
0,645761073980917
0,654220210311161
0,660335478290062
0,647377833161498
0,663521642946872
0,634410841473424
0,637183602865622
0,61555449840647
0,625973237123699
0,624096909046993
0,636953413010363
0,600648200281215
0,634330951553157
0,625360614051618
0,633064717508409
0,630392684397527
0,622369402586292
0,617341140256709
0,619916094795659
0,621390756756118
0,628115290714467
0,617876244088693
0,608667563713378
0,617655786697006
0,634733970196732
0,611801497143765
0,637555578874804
0,620248835076227
0,640690324035984
0,635093042004513
0,64925122796278
0,667908101704738
0,677538857915592
0,632038702777601
0,682103781535218
0,653626177049817
0,661697271026219
0,660106341245251
0,677692930715002
0,682440407658932
0,714947463959678
0,731607418151437
0,730211217641966
0,716057090218346
0,752718995816156
0,762600320458269
0,818523871785795
0,776315184203728
0,795811983373558
0,791896006746142
0,866826237712265
0,829122418010669
0,845112862096806
0,894994967307991
0,941380503597201
0,87817604879354
0,950194414707885
0,889703160748325
0,918406847631709
0,936007870692515
0,915871761130272
0,884407980421294
0,897736528209652
0,83907930604257
0,936702849293254
0,945571266424193
0,934591116970535
0,908261423802652
0,965024729255788
1,00236149415035
1,06057112224136
1,00856881169179
0,961269306686831
0,937670795482899
0,964259443961852
0,983136877920261
1,04171363462419
1,01770763134891
0,998524733912099
0,979949478897992
0,963160073356293
0,944630688977751
1,01478611688449
0,950904114814824
1,04908298703357
0,9676302437148
0,924229297697413
0,924159686168321
0,962807635518287
0,928129122452027
0,966836639583536
0,977780771644642
0,995486253945031
0,961531325435179
0,988337045174294
0,952095677417872
0,937546073247384
1,05043901638534
0,936986976984532
0,924489398501651
0,979363701974971
0,863227786610158
0,935978212035203
0,916194810321857
0,883017426130723
0,841850115048641
0,924852972792854
0,874389558361057
0,944486518837049
0,935582302469847
0,933432393927567
0,888432403378129
0,906241082918023
0,99896950658574
0,975024811275843
0,851844895399587
0,926255201304893
0,931477794963519
0,936336982720149
1,03071422821763
1,10905555100169
0,920753416699956
0,950298036938943
1,10154638131048
1,06724163093377
1,03328727026687
1,12234566916316
0,996061532888415
1,18819581563152
1,1044200314686
1,04094480178659
0,975736272761117
1,23868658874619
1,18950956754318
1,20263848978237
1,21138260021993
1,30817002410973
1,1774973802508
1,15180962938902
1,05744640475991
1,35598632248876
1,11661572660617
1,03355422443592
1,18806761846019
1,25280932542156
1,32874635873421
1,51166002601863
1,14798390115368
1,32570179078208
1,15234211446661
1,10508137553094
0,942786269097501
1,06822842573723
0,944394176066433
1,39010033481546
1,3520013858363
1,33683778715218
1,05855811593264
1,26519548792887
1,11463639356296
1,98574960211807
1,26210512308818
1,16437377798909
1,29747757828927
1,39995078491649
1,05804088308814
1,11815045213308
1,55875164919872
1,28439529642779
1,01097660692092
0,933998737166197
1,15358232128597
5
1,55671971038774
1,33047046248027
1,06752041482376
2,19944370622202
1,1977691429072
1,31179303103562
5
5
0,74304922193621
0,891954169882891
5
1,2100470670571
1,01742839138309
1,16209375836281
1,65111336682892
1,4297243134034
1,63478355185666
1,31496705716439
5
1,83133448354772
1,37864742324245
5
1,40158909412192
5
1,29206056975052
1,02964853415329
0,97858664943626
0,716195914467408
0,534791998666535
