3596
4000,36533379555
650,420452594757
1
2
2
0,0419557042760501
0,0333632734913738
0,0547852855969882
0,0337513632906461
0,0434384313018077
0,0304639052858668
0,0397463686368464
0,0353946365608598
0,0449338149083201
0,0370040623387868
0,0433456578541108
0,0262364023359819
0,0435212101235258
0,0328519477634137
0,0461998282062365
0,0232041854102251
0,0456039367838647
0,0312477066163668
0,0486187918530317
0,0437387977736766
0,0446403947103447
0,0384487280746998
0,0424125614698287
0,0319922747568424
0,0508443674007208
0,0383642550655661
0,04234376633092
0,0307472926304162
0,0423935306833354
0,0360762492861153
0,0550750794078149
0,0326790476783812
0,0434095442368362
0,0296004222560364
0,0461730748042175
0,0417055292202072
0,0407315867027458
0,0232943452058228
0,0519233036443115
0,0401196859708863
0,041188621506541
0,0345668070979269
0,0512970777086165
0,0321277793595272
0,0457575917651553
0,0329963914298697
0,037772016162216
0,0336768782375716
0,0472959735617782
0,0445691808039559
0,0437498964502697
0,0293753091109221
0,046088640664894
0,0261175785328043
0,0529304883086628
0,0428161670936437
0,0454899132116284
0,025126582554381
0,0416540165476662
0,0375262117749174
0,05573637493016
0,0331033725152509
0,0424920160421956
0,0264805988562311
0,0463638545203048
0,0259056163909023
0,0447022289057685
0,0366106540165883
0,0404570149383724
0,0307961387634614
0,0427243231378683
0,0427311837462704
0,0534668845430886
0,0275901542702267
0,039075836942754
0,0290989912779184
0,0454951252926169
0,0300594375755577
0,0338519557248696
0,0345061786430163
0,0530873064653014
0,0381625011466577
0,0420772381417898
0,0338085156326212
0,0447796440424135
0,0319492210392728
0,0342940852618632
0,0393466733688327
0,0552312068531916
0,033450610360321
0,0413956275179718
0,027666329941153
0,0396433125909388
0,0292893902062003
0,0354854475879436
0,0214918784479534
0,0340887672574542
0,0344908482016148
0,0429830157752442
0,0284933789378567
0,0499785702835936
0,0482914481647496
0,0480662395930582
0,0413485791525721
0,0553555238277272
0,0312342086547648
0,0612123193852872
0,0388556352546893
0,0407462310661821
0,0350600571842365
0,0435277073834388
0,0302393593610254
0,0428963360724175
0,0299828069135446
0,0410362438365091
0,0457363739646539
0,0516419841429622
0,0301330323408636
0,036381576988573
0,0322597626365155
0,0405043866386463
0,0500145668656642
0,0519093553728809
0,0294359025209751
0,0420377710493086
0,0280880116566473
0,0370513996070466
0,0400602124436517
0,0406333994611928
0,0307115679952518
0,0381400659817941
0,0232318188013648
0,0329892017473979
0,037618887945948
0,0635420614764268
0,037455311429103
0,0348414672973425
0,0283856293014572
0,0541334496103085
0,0209493073765232
0,0309323780160434
0,025382907718313
0,040806775598424
0,0396141666865957
0,0579717288290686
0,0268648401058405
0,0431313104903384
0,043999248181144
0,0369779684931798
0,0237721457510718
0,0363850879765239
0,0396352646004299
0,0425944612697589
0,0332619484484402
0,0519139695022773
0,0335165772213999
0,0555632776426943
0,035396081397263
0,0497008947318389
0,0275195133129477
0,0348386241790116
0,0286314986709776
0,0349357363011818
0,0262812049359856
0,0389568135057969
0,0369164651922474
0,0392828759581847
0,0288089096456281
0,0416294461200619
0,0391910299206126
0,0562065861354979
0,0349583211151116
0,046634374349768
0,0362155733471442
0,0394718311486956
0,0356348532405984
0,0427495351663371
0,0331682149611909
0,0401219780020023
0,0348643085784351
0,0368289892074368
0,029424626270109
0,0301118177864363
0,0352562070876076
0,0419049503154499
0,0333936612843732
0,0348024263326135
0,0285263734924946
0,0406056271273135
0,0375726719891213
0,0495295151908109
0,0522869816213401
0,0512766435034078
0,0293690230866923
0,0401744517315504
0,0467155118872809
0,0548829517639032
0,0259398008077345
0,0331194602743202
0,0292257181753974
0,0282187588322403
0,0220409578758289
0,0291079255342916
0,0234010135363373
0,0361285247030425
0,04282912764409
0,043754203570073
0,0330638511040246
0,0343820439928028
0,0284299413272797
0,0445373705131341
0,0390132099728643
0,0373865799080674
0,0307530787721717
0,0370639578994293
0,0368771743527174
0,042694348129503
0,0463065899723376
0,0419824221584833
0,0236161639680277
0,0332743885920008
0,0280615074312113
0,029327373810774
0,0295112380494242
0,0299978744280917
0,0305887796290592
0,037088089186718
0,0347346009945359
0,0427442364838954
0,03500923039175
0,0345587838778353
0,0331448786640189
0,037133049338964
0,0283204658208423
0,0351832069781989
0,0464842073844268
0,0381658526224923
0,0274723943398986
0,0352673252497414
0,030026776906168
0,0363403575336441
0,0285758359551651
0,0329737362544795
0,0268575333312937
0,0339088322689329
0,0467456298104835
0,0432246643222682
0,0394020324355277
0,0363642512940783
0,0352127419966875
0,0456578373303217
0,0374487357743977
0,0331481157331646
0,0308713506927879
0,0345170722394875
0,0322287427997853
0,0360463138470698
0,0436680878030763
0,0384673224884648
0,0374034013509283
0,0404861250573574
0,0394022837943087
0,0359761842638949
0,0291324828997233
0,061246373345078
0,0493101309090559
0,0519076436854484
0,0563614317426471
0,0436645396769767
0,0405124647079816
0,0443895972349444
0,0420132347732455
0,0682298270047981
0,0585129560940919
0,0422534043875193
0,0313515279305496
0,0357810388627228
0,0413876641928252
0,0413621796363247
0,0395051602537172
0,0512934446440024
0,0483617496327262
0,0507299811913245
0,0647069794509544
0,0415693778169897
0,0462736452596906
0,0489106310892328
0,0326277272796509
0,0430876094065382
0,0424525049086688
0,0347598933339207
0,0463382949767621
0,0437847706372513
0,0358228344692025
0,0423612239905962
0,0424022294596963
0,050422032154577
0,0379788064216874
0,0369604961954499
0,0369716750976798
0,0497774627702573
0,0440985313372372
0,0409806081373148
0,0360524390439362
0,0423339611143321
0,0452668318473292
0,0462983134214211
0,047955190915745
0,0447055116222787
0,0439545498263407
0,0525696929752927
0,041622843526022
0,0398557586857628
0,0387720924632928
0,0428334603175655
0,0397660316966299
0,0424351132095627
0,0368636290591377
0,0494713858253559
0,0525645309288176
0,0508410865419246
0,0397160187683768
0,0358052307698641
0,0418977532907603
0,0447067509275567
0,0430523572043406
0,0452933077409408
0,0492977820124357
0,0496127805419943
0,053266639702088
0,0549649867223314
0,0475113223090735
0,0571972518561808
0,0627304844947886
0,052043031323338
0,0539126706337381
0,0480009378492369
0,0478984148648759
0,0558248262440347
0,0516865632215463
0,044192356337242
0,0492520853104728
0,0573218975807461
0,0607001975090991
0,0575490581330733
0,0683452566890249
0,0752204085131897
0,067167020328366
0,0689531386614156
0,0615053106717366
0,0532046882816372
0,0693200628898048
0,0671786766758992
0,0572107419742381
0,0785449484605104
0,0720563785088826
0,0676688785562242
0,0616475131365937
0,073115607288145
0,0689511783008047
0,0677212133801052
0,0731185995093877
0,0743529448656072
0,0707648478153071
0,0715088860865713
0,0709966725867231
0,07094087957704
0,0933676770340148
0,0907711176338946
0,078000979165799
0,0833766509017704
0,0817588004719184
0,091295148437653
0,103803260197158
0,110223521097394
0,114097310603049
0,0976403213604515
0,124163661139511
0,101883404679558
0,0904767739600201
0,0847586839486607
0,100054078609523
0,101914832443
0,100945278897815
0,0988508178547997
0,107444289460506
0,110953088605622
0,115492824997583
0,112660122528395
0,114204086156517
0,109786950954351
0,132760320414913
0,12472512773148
0,125835917486339
0,131611855078907
0,138075398713341
0,144800831981334
0,16191019852641
0,137875371047651
0,129758759279791
0,136554457281311
0,141713679369814
0,137060830512881
0,13860637589242
0,150448648470084
0,152381282557664
0,159694228184972
0,169946408755479
0,170207932316283
0,174076071574531
0,160667915239914
0,175847848652271
0,167759127632704
0,175109512802279
0,181313128019718
0,178052392410969
0,163024367521979
0,180429026011822
0,201487186512919
0,19238986523441
0,19021930286083
0,189505450984447
0,181752696985683
0,178458754185505
0,182566131963579
0,203145687793137
0,197098302155303
0,196420425532709
0,203533922111517
0,216635259950229
0,223270933887095
0,218264039894426
0,216324281735302
0,232598319318692
0,220854263015763
0,22921687198118
0,218634765244419
0,232756349374663
0,221297947672962
0,247260211323658
0,266252609812788
0,256112842551709
0,263343388193386
0,253111810203925
0,232219542830078
0,249841210726593
0,2489951323478
0,258915690913228
0,266260280016411
0,276716178359949
0,265104466689354
0,272242146296258
0,27287778971994
0,277559966002986
0,282113150235029
0,288650718940945
0,28569589067098
0,297812803936796
0,294742342171432
0,325082355317405
0,300018375878707
0,322806258374983
0,329203798295217
0,356050130998128
0,373011347048659
0,331347834486215
0,337098057848469
0,352359727173279
0,345644694767039
0,35082877459855
0,335700237387459
0,355999666884009
0,345930723981824
0,369659162607137
0,357770893851241
0,369544096777532
0,380190387846679
0,390662741140386
0,371791016571774
0,410079483777024
0,397478894957141
0,397129879536812
0,394863190789144
0,408711631424995
0,411876231173723
0,424796100173363
0,400191288575336
0,428626437366687
0,410997255482025
0,455537395090561
0,43777490475978
0,451009766976422
0,446996430153156
0,467274295891928
0,44422922319494
0,450001886102569
0,441007292593052
0,4647004274437
0,462954350291629
0,476511734744503
0,449491799358729
0,480458137530553
0,475183413636019
0,494570017092171
0,490276978738599
0,534547545040695
0,504122209307465
0,499620044813139
0,510608808112664
0,521288453772386
0,490351842717157
0,530475339691316
0,520472230434172
0,550517790452871
0,513759368454287
0,553498413481745
0,552444213466606
0,583814553616443
0,542159239024571
0,55220195920524
0,553340069060888
0,589929503211194
0,592702566460358
0,602788825064362
0,570974472413686
0,612983438976915
0,586395470162832
0,603728667178305
0,583293674099817
0,639474033692939
0,595593042599718
0,625077557532499
0,601546703956536
0,650897356989945
0,637017362021708
0,639913520674795
0,622179832096025
0,651154502360554
0,626616735972578
0,673244898164327
0,652941429135306
0,709094963974458
0,677439028714682
0,70631569136963
0,675950180859273
0,701862432198319
0,681039966940783
0,692685632109675
0,656863730218447
0,752325884794298
0,72353487593328
0,746388979028145
0,713628666855878
0,74123524930506
0,694322104472844
0,747510259328978
0,730238636709264
0,772183030696942
0,738176621926117
0,764575096190522
0,737252137281164
0,80053905657154
0,781410380271387
0,79955452444869
0,73745848516182
0,800828492598359
0,770623247551918
0,790023499972567
0,757625927333799
0,835956162686236
0,799516608969814
0,823586003828965
0,835559655978744
0,862764302688863
0,816865573424985
0,906123595023615
0,832631172268868
0,87103838330619
0,817119719129078
0,93161938271664
0,892283142233907
0,858625397004273
0,882510449179302
0,920949077064081
0,874549097192397
0,943165120662358
0,875117074138414
0,963838771466707
0,8957978627403
0,899568437879515
0,864395714422707
0,922302659039856
0,944096099519233
0,983371169127895
0,854469998187241
0,948764862175191
0,894577732793676
0,997250162287744
0,969132637094616
0,978938225990253
0,902246050847238
1,01726078900083
0,899956018648097
0,943848380692852
0,952990542792968
1,04530247999837
0,924310929970575
1,08786161897413
0,962326238374607
0,960949607888047
0,926120348626603
1,05839620360687
0,945228413845763
1,05391953090297
1,04238984254179
1,08022399396079
0,989480220605751
1,09215907626286
0,984732683383585
1,07199921206502
1,00761908308332
1,10107046148857
1,03389044498916
1,0609643446134
1,05199032895094
1,0884065621126
0,990233457493256
1,12599920039085
1,08385124088062
1,10555546489311
1,10920129477469
1,15736192940285
0,983733759977117
1,07412852306339
1,03666534527312
1,09317331267424
1,05566175741355
1,17352222103392
0,991700289176334
1,15605165904636
1,0617150369346
1,13333969366256
1,04884542272304
1,06125862472437
1,11447723776742
1,25123975110193
1,09863009063999
1,19527928973601
1,12638315103461
1,110814202367
1,09417191060471
1,21192583790458
1,1072884680698
1,19534995246694
1,16575131791675
1,21513081811147
1,12928153223937
1,24554853544906
1,22221982041705
1,21937381801872
1,13924686241034
1,1922304241295
1,12574045305306
1,22919001415307
1,20698953076838
1,25584072968899
1,18660967907572
1,19313229922375
1,19059646583449
1,26514939310217
1,09723247965052
1,24665928048601
1,12890930554246
1,29854640218835
1,11205260241957
1,20663962489473
1,14685828744536
1,40731194820779
1,19338778955668
1,46337215468829
1,24492531426928
1,43426779997179
1,25465903901443
1,33573058364658
1,17386596090141
1,30047377322323
1,13458267904534
1,27658532399117
1,15192331002325
1,33612817539755
1,2141740126848
1,32846150316524
1,23112846176242
1,27363159427125
1,18830369036355
1,27234746109059
1,12946228992554
1,35056633332547
1,25135786766892
1,32878329905635
1,17367146348579
1,38091558429528
1,17123367821749
1,31026567398359
1,20935116734525
1,49955675278629
1,23156090150048
1,43763679509422
1,27035099006664
1,26309960237971
1,25464965499638
1,26299505244066
1,26238107217268
1,40563823205329
1,25706786575721
1,22214296574653
1,28520918801229
1,32551978615989
1,18935249393428
1,35316431389738
1,23683759498034
1,36210626264754
1,23386237486443
1,34743022971961
1,21013831575518
1,40170479221416
1,25452665918122
1,39581662341926
1,22102221117877
1,2649427781978
1,26109347273438
1,28543739550779
1,19350765688228
1,36072548233748
1,22893434441385
1,33876049335878
1,27999244085049
1,31327260978862
1,22910043788927
1,2845753372883
1,19486522983291
1,33315166098763
1,19843282841953
1,3433711683547
1,17916911183962
1,23899228886141
1,28110032370682
1,31913156449969
1,19831584504416
1,29320217378411
1,22475741553434
1,36046812975994
1,25794051367898
1,37714023371934
1,29879264064159
1,35051256742029
1,23251863579795
1,34824499145999
1,26147350368902
1,33436569517419
1,26224796132396
1,25256980758945
1,29702174201834
1,38469080373391
1,21061711695317
1,30913615514884
1,20988751581682
1,36513452656576
1,33300243712293
1,30486054556415
1,16779659367724
1,29730310298752
1,22692500822019
1,31863573732086
1,21655134179813
1,23908775808882
1,25218224069978
1,30127182284534
1,28913671327728
1,30179255646379
1,2333772155395
1,25494109161836
1,19399372686387
1,35423722648881
1,1992541495694
1,20686239371361
1,2230956865297
1,2622988311476
1,23232279592233
1,36272340569814
1,24552520609909
1,36443571455052
1,22853447602968
1,24152899138376
1,21166883476761
1,29379507826135
1,13876991144613
1,24890994618658
1,21689252033525
1,26099986735451
1,18236375388769
1,25196624183621
1,15485343227122
1,29321332328931
1,13523116167536
1,21622798155161
1,13243420579478
1,30025865717888
1,1213381279791
1,34249668270408
1,12168811631126
1,30566155214186
1,15124206154867
1,23786934231467
1,22524496642313
1,267915291896
1,15836864584512
1,17348976060493
1,11351514703534
1,16625765747281
1,1771740482837
1,16582187766101
1,14703130956131
1,19996880566225
1,15081685034063
1,19330595995176
1,1136208347735
1,20069329751094
1,14886837213922
1,24122922966157
1,08522001228085
1,18749864912267
1,12199207500843
1,17139867061586
1,09758618027897
1,19438692340539
1,06840426257235
1,12593611490669
1,09409435174983
1,17609370081838
1,0562257909445
1,12955975809754
1,08872850770621
1,12442208086701
1,09000619936322
1,1799821897204
1,07109646169766
1,11255061519114
1,05345472216325
1,12092157925926
1,07632910901902
1,07250815453155
1,04988900301028
1,11969350345272
1,0366388406937
1,08357034235227
1,04769444845741
1,12603856056957
0,963600049946773
1,06437080225004
1,01039796732824
1,10584056905224
1,00932358049827
1,06491649672397
0,995240694343802
1,06757026198242
1,00086689874023
1,04149637069012
0,974151101183296
1,0159702485168
0,965262916374818
1,04052567006172
0,94064715617069
1,01940819424749
0,956820682493107
1,03544775859138
0,95887492250936
0,983262385466394
0,929673452701372
0,968516580912934
0,939351756481253
0,980754017184169
0,909072755615214
0,943322606429261
0,919358339074987
0,964012665052945
0,921525377619606
0,939450972969015
0,896337020897485
0,941132660386691
0,891341193896805
0,948283331352973
0,891866654890898
0,925402309931779
0,892561051352207
0,882794730592341
0,884086084659838
0,91062364953213
0,863395054416703
0,915058575808421
0,865494636888054
0,901319261569908
0,855290749326897
0,891783202889995
0,829719478380201
0,866975722672966
0,838464492424957
0,861652762599288
0,805471004553727
0,842803208731571
0,806637555553248
0,840559885037556
0,827034174503276
0,853804982354759
0,801037798051083
0,842913446610855
0,790591574529194
0,82732261802679
0,763529995463446
0,808790770072455
0,79977867946843
0,794536165823705
0,774673219671838
0,801459645068186
0,783127859971059
0,787169934316051
0,759022952018319
0,795127317466236
0,763566207144359
0,780455449428993
0,729751366148614
0,768280108026225
0,745910766471338
0,764541655883421
0,719007540774117
0,758051510399876
0,731223243472346
0,752216077385872
0,719261892541065
0,72438410284632
0,707569412307097
0,720142709374115
0,689668276496378
0,715370155358845
0,676339869404282
0,710548091199201
0,68594737671227
0,698381555395415
0,670907914493807
0,713782548505012
0,679282039793273
0,690141406168452
0,669878748160828
0,670092383850073
0,667049777785973
0,671682853547621
0,661869078026105
0,688500076635673
0,647400944838364
0,677819818246768
0,636780613123313
0,651865164053759
0,623414418399547
0,661282313062921
0,632312596233148
0,645600852121698
0,610961045392324
0,636452021084863
0,619891834212595
0,630963281453072
0,615000539569479
0,623806474220544
0,596564723673607
0,606927186000715
0,581927372934052
0,61401422248556
0,58699152792489
0,61204213838102
0,570664529690105
0,59369727943247
0,56580754518035
0,588746435843855
0,573351436416681
0,586379716054275
0,560158500946694
0,575761272103149
0,561030817101624
0,587277709062069
0,550970014867312
0,560348645320606
0,557566131632321
0,564290423652491
0,551236800651846
0,54340357607637
0,539007263957142
0,537023965320237
0,52110548069735
0,541626076563506
0,530044335566536
0,532126970175017
0,524220192407201
0,532046024900127
0,507980478590925
0,52573563287868
0,50295274366225
0,537471295668477
0,508366863800993
0,523668918565038
0,502739335180125
0,51291355032761
0,495903778310958
0,507901586696837
0,472725289735522
0,507197451797599
0,481307767153726
0,501838263542767
0,474840157280637
0,489277660941992
0,469237026288117
0,482590048272307
0,464886656224777
0,473863904257141
0,463776345954568
0,470805929598112
0,464963419399794
0,463808988328852
0,451242325060905
0,471954239127941
0,456688016770195
0,460257784105701
0,441335913067175
0,45109837121232
0,438699107615789
0,452674608316873
0,436526471366626
0,438838511424659
0,433147999769717
0,438022850594728
0,430636462092184
0,425776800080659
0,421251485051876
0,431451409149436
0,410731848180636
0,4267957073146
0,419533314419073
0,418514756260165
0,410080807587161
0,412516484900414
0,409453539339669
0,422949040804948
0,395805759751589
0,409334157850006
0,397285450568412
0,412840175588481
0,392563086894313
0,401282093356695
0,396011196569101
0,399600027720351
0,38148629395594
0,394375597122283
0,389101131917793
0,39225795677776
0,385285442155849
0,393638845847475
0,384979872314063
0,387562098667544
0,380148727210881
0,380599744627294
0,372490761569011
0,381530438027011
0,374085179252638
0,384846513094104
0,375672497483749
0,377324895947084
0,373026009077466
0,379015772892303
0,361703937836077
0,389741015629034
0,371306209643746
0,374573932803572
0,376260327172587
0,379904134923953
0,371535978487235
0,382784439260786
0,368692121516133
0,378015269797244
0,371675585962561
0,3853804367148
0,365516271141942
0,391545141670523
0,371526145371594
0,386338229802953
0,36996531274262
0,397263570025487
0,372461689501297
0,393653272734042
0,387322046011601
0,40895912160444
0,392245371802173
0,399830815045556
0,388916870600314
0,394353709201801
0,395190758319192
0,414731749027545
0,392082366251204
0,413046494508306
0,400195903168549
0,408690731922115
0,407219281511375
0,416718224788903
0,405956945169677
0,421093707410836
0,413628975426145
0,428514011454855
0,419311374647934
0,434384422950267
0,426212546273262
0,433599509801551
0,426641651216172
0,439440721340788
0,425320595715851
0,445563228656126
0,437006055146489
0,451922823520544
0,451668315973426
0,464124571155021
0,448401533653274
0,466927314060939
0,454977069293866
0,471546516547043
0,474111104445987
0,486690062070244
0,472554275826182
0,491115394330267
0,48866746716759
0,493258208491014
0,493084394904151
0,505145923902129
0,503115092772862
0,52322108301091
0,500463888601627
0,520893289570488
0,515973160842607
0,5293367600906
0,525456673620057
0,541693677902731
0,522431853167881
0,539457796644755
0,530878127455695
0,533615575786853
0,529584678879336
0,539673072916012
0,521276125927936
0,544656126368193
0,535049560016911
0,548119595198937
0,529898225626324
0,532130181512666
0,531963701774678
0,543748713586618
0,523444071636088
0,530646619105542
0,522795162649024
0,538705746515207
0,527086214601199
0,528784697532313
0,529613545759302
0,532363459421117
0,526944779458982
0,533808299590082
0,528532480338529
0,542769046837179
0,5335826675797
0,532175822003526
0,524076027266182
0,533650732212479
0,531098010565654
0,53550930675499
0,526837794940157
0,542896607728706
0,51311152414026
0,531198108607316
0,527382297858918
0,537571523394321
0,520803772434956
0,543479309875958
0,519085676916568
0,527862525988549
0,531680916726455
0,539086932255467
0,519237516296317
0,526748711672947
0,525509734567449
0,540152222217986
0,526222795141098
0,535119055158732
0,51992142627264
0,521993327030213
0,524234729515551
0,536411775071228
0,516248359463299
0,531075928142798
0,519988853724251
0,523610102942983
0,508463376554595
0,525505238265837
0,503643790498107
0,511982331632165
0,496405493110653
0,506346997546504
0,497571923665115
0,509468316276169
0,491454474312158
0,502936756392876
0,488585667426429
0,497177886401024
0,483682276685089
0,480058297445153
0,472681767678859
0,482633238210903
0,466096042531624
0,467691837176293
0,467436676898576
0,464909431530794
0,447567577321004
0,463160959990046
0,455279475344638
0,449191495306633
0,441570208432964
0,451231939565774
0,433275498430914
0,435925849487486
0,428388998956414
0,428226395218693
0,4278653539972
0,424107856039649
0,411280392866004
0,413934981538217
0,408418255415958
0,411822148368891
0,400284169034035
0,402072847503146
0,397090093006009
0,39884657318695
0,392041289929367
0,396113502071395
0,381736911120148
0,391097896516255
0,375745097805082
0,38375037836513
0,378145672004976
0,380071821165508
0,371486899678745
0,370229397680561
0,363637591524377
0,37053008807869
0,363590873411363
0,367438354537084
0,352791266218469
0,361808957057563
0,356035744011222
0,354982425439496
0,350957477466582
0,356039421010504
0,345915969025589
0,35039387480953
0,348196245065465
0,34466940594154
0,34355704377516
0,341455523612822
0,329604773570134
0,337439202259733
0,332998384632363
0,339856918382258
0,327440666619153
0,329866297066671
0,329452454424305
0,331004602900846
0,325012008138232
0,333329349615223
0,32130510705883
0,329618160174813
0,322457594337844
0,324072429394926
0,309015957568587
0,324097144793448
0,314620154284588
0,318803485443117
0,308396129100173
0,309467675470564
0,312359556910548
0,310577302818818
0,305846175585126
0,310627681148528
0,301798912856934
0,301883244297431
0,300461537623045
0,301779996180863
0,29911213799623
0,302985969634257
0,297682569262375
0,30473096279266
0,298234752703478
0,295441139093857
0,289211206362611
0,296875282058288
0,290793472291531
0,298267138913485
0,291073294774189
0,292856324157563
0,291722882971383
0,29154319949097
0,284612857330767
0,290174721228064
0,283043145054473
0,284682993478588
0,279899854983322
0,281041622315614
0,283499671691875
0,284029052616624
0,272708500874561
0,282315401607661
0,277122571192578
0,276211101724014
0,275457428335387
0,277917664791737
0,2718259890709
0,275980919663914
0,27519116795746
0,278140853306268
0,269200755858893
0,276834496984856
0,270226242523593
0,273075702534691
0,268361718953539
0,268819853229764
0,262953514208803
0,269451412585696
0,266918652508295
0,27024608096854
0,265999540462887
0,268112677852157
0,260354039155587
0,26822410801304
0,265859685079826
0,267575393207244
0,258918603110769
0,265560269490106
0,262066640413857
0,260799349901288
0,261821002929945
0,262581523959089
0,256605282017591
0,261519759994305
0,258548016378681
0,261715801175532
0,254282073189064
0,261189896826831
0,257494596249547
0,259229059631311
0,25850371134837
0,259806169822342
0,25481514021026
0,25536388352558
0,252266736371709
0,255700545212624
0,256098495082133
0,252638011014719
0,253430191294639
0,25835415995033
0,249084104776287
0,249506736367798
0,248827025531591
0,254102667959675
0,252635295869641
0,254325022398328
0,247542534706955
0,249101033070385
0,247565238315201
0,25274836891132
0,246055381310472
0,243569139514624
0,246172534607584
0,252283328772598
0,241944737232007
0,244314566430246
0,24628791830217
0,247560154679678
0,241428672070624
0,241115693200981
0,239537785673286
0,236060523495244
0,237256210041828
0,238625422613595
0,23593544952685
0,238063533857425
0,236599481400165
0,237997751348061
0,233572616138291
0,233853026568154
0,230440506970177
0,236018026533153
0,23240652353593
0,233196500642243
0,228935503593945
0,235119943998746
0,230224263384491
0,231638393760432
0,231627172596966
0,232232054718151
0,22739974490993
0,227323011939738
0,227551916816637
0,228763436434756
0,221000427901722
0,223456619812013
0,219933092779389
0,220265180849556
0,222851369111762
0,222283690019439
0,219369461731012
0,217380223640012
0,216753269410035
0,218154628154537
0,209355328514879
0,217320233113979
0,218875119867363
0,213693474789713
0,216455206530981
0,213873776071976
0,210645551655354
0,215601377112277
0,215368473660504
0,210655518501311
0,210388923943083
0,213196811714032
0,205617111183312
0,21100696055496
0,211197900496682
0,206079401046586
0,203007340557071
0,204244206379172
0,200841097736893
0,202965221981456
0,198092696764418
0,20008618627719
0,201064755351334
0,198938567680674
0,194882846840694
0,19198303656572
0,193324779125875
0,199694625869008
0,193505924657995
0,191908875010853
0,1923886655533
0,192382478883337
0,188797899143378
0,188311361928524
0,188318695730711
0,188175184653785
0,185278128036489
0,185985545176217
0,184685093851384
0,181977630037908
0,183148934353906
0,183389630825501
0,184348758767067
0,182321528837559
0,180897051913129
0,180993477733815
0,179341788235561
0,18361331621237
0,178529734829687
0,178648419438028
0,176235714425994
0,177643568846518
0,174049693615876
0,172305595243936
0,171982737590343
0,172678441963289
0,172836125203423
0,170051431982529
0,16848081024462
0,172620094783263
0,166551193066093
0,166143282011556
0,166044366133257
0,167577354770014
0,164882715958094
0,168595374069835
0,166681428855204
0,164347336449698
0,164205884109464
0,164347318224564
0,162677950564288
0,160737657104858
0,158815003105785
0,160111728927629
0,15996255680033
0,158388088328109
0,158088772695782
0,158206356864467
0,156487931379218
0,158181161778575
0,156177263179077
0,154587792390587
0,156353903893736
0,154490980500389
0,152743184171223
0,148685514782205
0,150804703146931
0,155277559882451
0,154144216168966
0,153536886443702
0,155344300367675
0,15389207197904
0,148281001383811
0,148545516079596
0,15195860333672
0,151001586919406
0,149754640591412
0,151122170053654
0,149403331430227
0,148512972241657
0,145087284890119
0,148677818166638
0,147181542972357
0,145802976665779
0,144463822333865
0,143255682288528
0,143022107513371
0,142676802058022
0,145013005971138
0,142917858093866
0,143950602326017
0,142492972509665
0,140448856355278
0,142841880202624
0,1419544873287
0,142729072874483
0,143618064228915
0,140059363434223
0,137993797355591
0,141881514774619
0,142567526328862
0,141803302091163
0,142216051773814
0,138619525515823
0,137995212843471
0,138232015167026
0,139348934672582
0,137312757116498
0,135394593940978
0,135847256232278
0,135805698216011
0,137078162368914
0,137191025940742
0,137597398352097
0,137837804795229
0,136646112979126
0,13516270987939
0,13717006531776
0,138127456271703
0,134480818675195
0,133822351176084
0,132573009492309
0,13098087916353
0,13190327314122
0,131077752212995
0,1302421782832
0,130603970803707
0,131189076500354
0,130170344473085
0,128479170864421
0,132644839555396
0,131991034503296
0,127926056615544
0,12978934333861
0,129079425308124
0,128330437936649
0,130251771984759
0,126165219249835
0,129432793428506
0,127100861262262
0,126136273712697
0,126338782321797
0,12418884552201
0,124442409140177
0,127825405201176
0,12729501592686
0,124333588665705
0,124403927939627
0,124698833352379
0,123271190652771
0,125718361936862
0,123805053188178
0,125749913796827
0,123939659928955
0,127735855086039
0,122800243484987
0,12433709551717
0,121878266557801
0,122490367617398
0,121559227876017
0,12134385119163
0,121223857853018
0,124520565335126
0,121006449862397
0,123384469379375
0,12025701766592
0,118806678042575
0,119452557865015
0,120409824839913
0,121258097272425
0,118865867447895
0,114259774751268
0,117265855166716
0,118273712109606
0,117266291250888
0,115233807939637
0,116474415816524
0,117754923652487
0,118848865095187
0,112895592037857
0,116507795014173
0,116046844063825
0,114187792150202
0,112731703312419
0,112569944461283
0,114188114066208
0,114020787491003
0,112619816123041
0,113049438760148
0,110747291712586
0,110580798042539
0,109676005992624
0,111846540301593
0,109241369550298
0,111058644111194
0,10724732461362
0,110467289666718
0,108681941439375
0,108637979954808
0,10983139224473
0,107467267086074
0,105521379237929
0,107098525157678
0,107104585859932
0,109186074302279
0,105919627953497
0,105476075871289
0,104380175012668
0,105426165923107
0,101699322433083
0,101589004790277
0,104920950488264
0,10295980266749
0,0997334937007733
0,101142062146331
0,099603338728796
0,102825752483512
0,0995606895576433
0,0995546134317886
0,0972428872432808
0,0984733559901169
0,0963203969134595
0,0969412845007804
0,0933794927590412
0,0968277798032016
0,0965265585416891
0,0974346745139616
0,0929667272165504
0,0962967548763623
0,0945389613684242
0,0961586823203173
0,0927751399508643
0,0978458922191019
0,0937675627565415
0,094529715275173
0,090161492338158
0,0917741702671138
0,0932445447638812
0,0924393937948728
0,0923156079685547
0,0950652695408812
0,0895004408210039
0,0886451391239007
0,0903050817961525
0,089543218423811
0,0883808897649857
0,0892320786012943
0,0866730096844554
0,090148269806804
0,0844111012609121
0,0872616545848983
0,0883772198285406
0,0862435817244292
0,0866042343103016
0,0856925621649053
0,084155619565567
0,0860425823737
0,0829399929617915
0,086872153228503
0,0827040323242027
0,0826850712556504
0,0819484339183671
0,0861039373784621
0,0820087611518559
0,08289299472779
0,0800575481460723
0,0826330493375802
0,0805725377081209
0,0814833321202786
0,0814125793251626
0,080362821827629
0,0803653420938928
0,0796302046856029
0,0784694260601775
0,0815490767807014
0,0809570881878998
0,0810976705515194
0,0775518096955525
0,0815090891270561
0,0766990076320208
0,0801547402619621
0,076672673434405
0,0819624107117473
0,0785961278383305
0,0801417812203914
0,0770003017969159
0,0811973974662656
0,0763572383826796
0,0812389576645395
0,0782394534120974
0,0776993238608895
0,0757304656417925
0,079080973212397
0,0767256073983686
0,080113174036495
0,0754735348255658
0,0840933251358924
0,077903554712717
0,0808699676068552
0,0769716862328208
0,0812214287843502
0,0779399972885658
0,0831971700171409
0,0827462609400596
0,0877285116650646
0,0800109630103141
0,0812558821429074
0,0697895302274264
0,0809720446945331
0,0801003563851301
0,0800277909944313
0,0692104327229527
0,0784576283958047
0,0712816735025362
0,0819201408285809
0,0698447760262451
0,0845968532489643
0,0691062234212191
0,0848429000667893
0,0745265706444954
0,0759468367665558
0,0771934774733804
0,0791272052462527
0,0764397849355564
0,0773301055487075
0,0627293006870532
0,0770005090430931
0,0699431653447951
0,0743635709053606
0,0634411708725912
0,0745222793595507
0,0669269383354233
0,0716634555683519
0,0664249365802999
0,0755084140729966
0,0653275384351187
0,0726181666793581
0,068907813392324
0,0719329424197374
0,067642819216843
0,0698535554706297
0,0745078625155424
0,0748805909434322
0,0778568980149371
0,0651271242730305
0,0715323025915956
0,0619133568684067
0,0810060232455907
0,0709485446248037
0,0909930557493834
0,0524857902069764
0,0799644424582952
0,0539678237225978
0,101383929526917
0,0472956635465567
0,0932853867431619
0,0399059687497445
0,110646813122268
0,0411503181382061
0,100276945006615
0,0352036282879446
0,107180688190658
0,0431384637051605
0,0926197826980347
0,0543301670582165
0,0818130275762876
0,0566270770190444
0,0711690851911142
0,0694281688280733
0,0644471391879493
0,076198529795607
0,0618151582270379
0,0765667502831862
0,0614883862576007
0,0720221053609428
0,0709235051972765
0,0666802750764145
0,069133934508796
0,063557063818727
0,069390170461805
0,061102424864305
0,0688620489667563
0,067183368409574
0,0693248186327397
0,0678215401634121
0,0649621413399344
0,0638045448579523
0,0679174246048126
0,0649766482492632
0,065288705621114
0,0632033291272253
0,0663503338998203
0,0671521021370421
0,0668917084309176
0,0643810605820705
0,065330217478511
0,0634001723238859
0,0645573005907381
0,0621941904088745
0,064180746755871
0,064017380514108
0,0675069018435845
0,0649772313645656
0,0654180385296108
0,0650248309260893
0,0647149463697852
0,0659455885002874
0,0651341008425367
0,0653322334540453
0,0648261403957533
0,0641011089869214
0,0631086486338848
0,066306203972664
0,0647071719097439
0,0640657821447856
0,0655395286410446
0,0655813592299542
0,0659646157671925
0,0661714537884742
0,0658170795673486
0,0653123686942312
0,0650323600643238
0,0630390480560929
0,0671240749257581
0,0674335216706105
0,0663227184813603
0,067448415832726
0,0662655130106723
0,0663037054745769
0,0635481130247359
0,0632456163256827
0,0637185897971629
0,0653897816090428
0,0654632646446838
0,06505345806482
0,0627643233302831
0,0659628165876312
0,0636285480433842
0,0648584325914259
0,0643090817410685
0,06540443442055
0,064028714635918
0,0653815781914285
0,0644210214752718
0,0663970790804083
0,0653235987507994
0,0643221871312375
0,0653295340976188
0,0668006291756743
0,0653441996223944
0,0649629070197517
0,0663887423237027
0,0652314086019633
0,0654575290112901
0,0659292423340272
0,06402347605112
0,0663782493575154
0,0670030906270591
0,0664918404391028
0,0645397650503642
0,0658440796261066
0,0660503979962244
0,0671641792542906
0,0672430977504712
0,0646274834369955
0,0646030734079627
0,0667968271150039
0,0651798161653129
0,067706568547908
0,066435084281525
0,0672784102579065
0,0663296560318655
0,069674147571728
0,0652945752679992
0,0685710104362423
0,065793478502344
0,0674774121505113
0,0690137886018232
0,0679509076112101
0,0688653954847098
0,0685757418599492
0,0677456162271053
0,0685493131317792
0,06735263919321
0,0687276367337642
0,0673520123879287
0,0704009035494178
0,0675427796548824
0,0715840565106023
0,0689723544395375
0,0688303273996302
0,0696485296321856
0,0687860571720025
0,0662490371170978
0,0685419014850384
0,0647870660669787
0,0708762152009909
0,0678217026138551
0,068064052724199
0,0662219400530052
0,0713031683889227
0,0675593028990656
0,0687697651200209
0,0700037540217504
0,0680774099402353
0,0680487744119677
0,0697450097771365
0,0697935777159307
0,0712457792600031
0,069990397122433
0,0715928361327213
0,067965073137495
0,0705564487498318
0,0695806786289836
0,0730225172358223
0,0705418217493736
0,0719432432170902
0,0721557112221636
0,0725760550574202
0,0688068956488062
0,0725936526986745
0,0692990473370217
0,0713900868674374
0,0703789150817259
0,0721709744914601
0,0717459274286557
0,0738701680105132
0,0736607898861021
0,0722355035024493
0,0694561421695036
0,0720844418354095
0,0713520703609469
0,0742905299971948
0,0723082643695919
0,0745044520636891
0,0743376304639804
0,075094874655147
0,0721661671977375
0,073543087640059
0,070809598584468
0,0730173954919166
0,0730696258546614
0,0729051026871532
0,0725043249922736
0,0751084560896771
0,0728790370289056
0,075020726124576
0,0726330728094901
0,0737522409555204
0,0712153630430173
0,0723089945342744
0,0710510779284391
0,0719566397551396
0,0707509044533012
0,0720775676470945
0,0719941347546919
0,0738813777911476
0,0711739301802864
0,072142971388037
0,0712706777215762
0,0723016831403668
0,0682740162144267
0,0714165072141568
0,0693707147257585
0,0689914120198562
0,0701056505587684
0,0705755114573669
0,0683696891106346
0,0723150714436517
0,0684408299514868
0,0719773587429642
0,068934518801066
0,0698569305059727
0,0671435498806304
0,0718541948351035
0,0680496655573112
0,0701835993416421
0,0667701106398626
0,0699012456260264
0,0690428918006815
0,0708976384351892
0,0689408357120456
0,0710127657923551
0,0683818087216994
0,0708474590026328
0,0680211209944079
0,0680130375500349
0,0676965198041059
0,0713094326212777
0,0688551346001202
0,0699285983905647
0,066318683511974
0,0677933951307776
0,0661001636584315
0,0661701966857638
0,0665280868072318
0,0692995006798866
0,0660094750634226
0,0686673852490946
0,0681489525869174
0,0676328413305532
0,0650515150262943
0,0667780251064039
0,0662596447756612
0,0675711865708751
0,0680704567263304
0,0704386681418909
0,0660907333521804
0,0688463262400597
0,06590164724179
0,0687728279681715
0,0683548944286166
0,0668538937099593
0,0670049011175717
0,0700661117232463
0,0652193335500962
0,0689837754310516
0,0657998564504046
0,0686629362595267
0,0628533220292758
0,067237232906079
0,0661789928422001
0,0681804790153897
0,0659842369232041
0,0684982730856846
0,0638092012189287
0,0669063468623645
0,0646716077515161
0,067196700103437
0,0643375254683654
0,0666201807496889
0,066353573413391
0,0707856536056105
0,0662383203284561
0,0662957757659219
0,0664761267950306
0,0675995177365155
0,0659146382722559
0,0690142397848607
0,0658073492121644
0,0687485721608651
0,0640972038771265
0,065569812746832
0,0636533349576456
0,0672775527449818
0,0651323801077714
0,0666771335614735
0,0665494333358398
0,065666586869994
0,0637997222086917
0,0633096589607274
0,065160954464718
0,0656303167497326
0,0652438786227132
0,0635219002243547
0,0629830625807621
0,0666821209389261
0,0669336298252488
0,0676249593146804
0,0600583340822682
0,0672547845135422
0,0641202308258049
0,0662566082653221
0,0632858872673959
0,066630674169044
0,0607300710459343
0,0667577337435506
0,059983003589416
0,0633880802040403
0,0629989505473883
0,0635203370819581
0,0605627752523726
0,0613743573813859
0,0604124978594424
0,0629013640693791
0,0611352720208674
0,0626058095799031
0,0603196596808903
0,0610123215167301
0,0581630874727149
0,064607913416744
0,0579148306863029
0,063394474755618
0,0560613845475676
0,06545666028072
0,0557270341432905
0,0622745975309899
0,0579119582280824
0,0603767132574892
0,0582710433363028
0,0608521820342089
0,0574486401834863
0,0621643013294477
0,0573223283314176
0,0590727141835143
0,052930752178655
0,0596663027271285
0,056116780201955
0,0568598183003349
0,054447215073035
0,0542816741056484
0,0546668187552492
0,0570802797266072
0,0532269835523635
0,0557206402907303
0,0524224285309956
0,0579657245572812
0,0538018859669327
0,0565869265398278
0,0558027328760365
0,0574490947061832
0,062653617662027
0,0541624298512136
0,0580105135633526
0,0571479237764308
0,058567581891135
0,0528742381595581
0,054323184428881
0,0551971180933786
0,0545015347715039
0,0544135914592414
0,0533696466244915
0,0540384161556249
0,053768996607347
0,0540161365671799
0,0521669032920315
0,0536663903596718
0,0522756459479692
0,0543637539875544
0,0549731237005566
0,0553623490878534
0,0526153955351303
0,0528734602575332
0,0528121161406035
0,054197253191129
0,0563148598632616
0,053262354308553
0,0581343174104716
0,0542119559833301
0,0525978667894866
0,0533310518214717
0,0516827533791221
0,0537040473819812
0,051915929366239
0,0518203251053104
0,0521578766897445
0,054770353464384
0,0517667550309483
0,0523402591494064
0,0538188793841647
0,0547959019850318
0,0529649800510736
0,0535268017770649
0,0532346810611277
0,0493514639010649
0,0511832380410564
0,0483312173461202
0,049986403197865
0,0507633324044856
0,0495210284888553
0,0520858626792164
0,0520265956160643
0,0518163466442499
0,0501109108137721
0,071718128419219
0,0455573426148228
0,0557028257329397
0,0479546310073744
0,0532372378585326
0,0492552940816754
0,0512902744050265
0,0471451674208347
0,054549755471451
0,0482243382080132
0,053512610178788
0,0477458541209825
0,0535612467033935
0,0475818567091004
0,0526679196458289
0,0469337609067109
0,0523602714652808
0,0460372605951766
0,050150924656884
0,0490252011675269
0,0531954867857179
0,0536177666436954
0,0555238064665704
0,0449353298469282
0,0570164096421102
0,0420528146479763
0,0657132063151293
0,048577835296464
0,0479896534877304
0,0498064588064008
0,0491710837153302
0,0522372524367393
0,0505524711911391
0,0542292212687707
0,0493590678883766
0,0581055680940247
0,0469220172819526
0,0538282796811158
0,0465694127242803
0,0481250024065484
0,051416094308805
0,0504659243041705
0,0492863153048071
0,0507809388836758
0,0502448601159941
0,0476464897657306
0,0517294388327597
0,0497327549869196
0,0508167330325914
0,0476871243279425
0,0516204077472406
0,0581658535362885
0,0474318393882862
0,0525210321884722
0,0462943462728855
0,0521954808331383
0,0520341920842614
0,0662610000329215
0,0424406057263228
0,0529191402885528
0,0450063939857261
0,0500857114728448
0,0521084198355704
0,0505890917464943
0,047469349532277
0,0498407466704769
0,0487381914886402
0,0500127710967776
0,0527052121004714
0,0490153733174512
0,0493635718853772
0,0450238409777656
0,0503996175459821
0,048178812410079
0,0519986719938215
0,0471089072266666
0,0529716622339147
0,0513898774098716
0,0606083162300931
0,0639116927975571
0,0493129136476104
0,0602122107992851
0,0473308381857838
0,0544195193257137
0,0462719893593066
0,0534147334498889
0,0479233038193263
0,0545409659349393
0,0476927930522587
0,0528884486526705
0,0456241308846361
0,0507467584646076
0,0471557449711762
0,050704913147949
0,0451377696747892
0,0526154291477892
0,0446892532616771
0,0540864620707556
0,0438868040315262
0,0548412844723493
0,046372224429739
0,0545958502134068
0,0510138617722009
0,0535618285991606
0,0560590630458731
0,0536104014983821
0,0711659586312462
0,0430929438491132
0,0660552739346311
0,0434619156020788
0,0546469711842827
0,0489704933278246
0,0530175233174802
0,0545685028684437
0,0524263912969757
0,0462130803035248
0,0546296190690029
0,0500162160031156
0,053023122062639
0,0531937991095432
0,0586170570445539
0,0681605219761079
0,0574059840281478
0,046330776975971
0,0583903698843198
0,043137761773116
0,0766555975885466
0,0447250304766115
0,0546732545478711
0,0535562151311968
0,0490341786796867
0,0501532740017466
0,0506917071485944
0,0547011374943863
0,0561656212247338
0,0572208221663046
0,0486594441924183
0,0560308326029424
0,0509462442686468
0,0538486120404227
0,0547093573131412
0,0546887793527294
0,0620355887071562
0,0501173546864747
0,0528884914786391
0,0573138416709369
0,0539972769506102
0,0554105333780613
0,0516929926703847
0,0580202023001897
0,0540536287405288
0,0635092855771783
0,0557617960310225
0,0633846086754825
0,0616167557715194
0,0539561105680528
0,0594104311466027
0,0646991861662718
0,0539209451443183
0,0654617965723874
0,043987670701155
0,0958057075161264
0,0446058523430078
0,0764263218953282
0,0461187374987501
0,063345688103091
0,0535747722769882
0,0626454063040622
0,052527588780961
0,0634199525512641
0,066775055496644
0,0511945355931776
0,0701678523917252
0,0493941456200649
0,0728309382352055
0,0537021364782004
0,0659812172305549
0,0558511141321315
0,0641754366721761
0,0545161383546622
0,0761995083962753
0,0532396820362622
0,0936998284383943
0,0681241727327943
0,0600550744151781
0,0762080397709677
0,0615617954374695
0,078728530525702
0,0678708304843011
0,0586607627386503
0,0694800486916826
0,0546735579696931
0,0746563429693504
0,0598169401357813
0,0846497387734484
0,0693608110132524
0,0622234694453894
0,0727244556954492
0,0681420846906691
0,0773246788324121
0,0781913726637668
0,0624775837276962
0,0693458672679162
0,0692051969361014
0,0839188816555391
0,0616706123839419
0,110147641369777
0,0527788928488638
0,114363927783786
0,0649099845579075
0,0964000033549816
0,0700787823260534
0,091559273431915
0,0747435343180723
0,0989617441515999
0,0702064393986829
0,0926228979401513
0,0683714824754102
0,109094615449775
0,0727121220035835
0,0886959097211742
0,0883246768314109
0,0910734619565413
0,0943572083079484
0,139856927966428
0,0889671866735176
0,0986385776882518
0,0923724923006195
0,107789237125847
0,096602010872917
0,0892530435836026
0,0965213099963194
0,0936137131671404
0,0977971899457102
0,10434663959781
0,100263523371371
0,10677539131855
0,0917102660986258
0,112077410969004
0,09340774839463
0,140791912109764
0,112740290881435
0,133888608099463
0,116390161051612
0,118383833199838
0,126819136157574
0,108022849782194
0,119706875696334
0,11602378313306
0,118031941129173
0,119950970564798
0,118807154081905
0,12812560582895
0,115653083773914
0,144127985755362
0,117546337101648
0,151411470216144
0,118250431506751
0,148663916656711
0,155083888252636
0,157090231788131
0,168274869351444
0,128335352903566
0,178043083743235
0,137076430690777
0,197300470051395
0,160051600347611
0,163503305837785
0,163842629627193
0,171219170948841
0,172140101970655
0,189851240958711
0,185069857578718
0,197746841912912
0,194192626828663
0,205710303201083
0,204002935095005
0,273842199082285
0,226402368606277
0,228760965713647
0,223019726389289
0,245838461826289
0,242009573649406
0,247829899284764
0,232334609081899
0,268600622034754
0,248253119265425
0,307178487922327
0,262595422137541
0,278384399451739
0,283267245795249
0,289545740588702
0,31439060212227
0,282599132673103
0,350274772784715
0,289042220075892
0,330758265522817
0,307509557170871
0,341330773610477
0,333564893032512
0,348631146186949
0,35559206930191
0,344286056985945
0,353558918641628
0,357407079509101
0,363199825449944
0,368050555148656
0,373047735483281
0,382232425261258
0,389995146756109
0,473264431729448
0,302187848234997
0,416530173341193
0,363720418527294
0,400691582240064
0,377250493436735
0,409821068968213
0,422581320010618
0,394581384878309
0,414769119599187
0,391263411912075
0,392416281444685
0,391954230146557
0,393748332186931
0,403531241082576
0,390311583976654
0,408167913442629
0,380148839350164
0,438002965962934
0,365750803334018
0,464965043013347
0,383613169571096
0,400436743634182
0,388258828075977
0,403470044297968
0,380280476554111
0,403053830804387
0,385548065325736
0,407636969620163
0,389431854352707
0,384853922037166
0,390092449293301
0,384417506748502
0,409459176901312
0,387948320149307
0,377985603859607
0,380775401410969
0,367765835790585
0,397770407381699
0,365401657902779
0,400551488028625
0,37647647447942
0,369625950081109
0,367493217161662
0,365970615522355
0,369260319516914
0,370071479889007
0,364040951530054
0,373357110045123
0,37038370510991
0,364854645638056
0,362142568541486
0,358425740847918
0,366677297586453
0,364111097597002
0,373872170194822
0,361764058873203
0,371781044949775
0,360958774071672
0,364280972636904
0,364336607361961
0,369268464017391
0,368129424705597
0,365401338980758
0,36146047911568
0,367142554004657
0,364269406445298
0,366468423251766
0,360120290472997
0,365881023438894
0,363842340963443
0,370059022949555
0,358258987993822
0,361242515041556
0,36043726925526
0,354726282592715
0,352202933401562
0,360607131532407
0,349762510895097
0,348505299988336
0,347035288398938
0,340718702967246
0,370535424994057
0,344493173156605
0,378028937196837
0,331851106881627
0,343067940486175
0,330385066490575
0,330475655366925
0,337233301219212
0,330592374655455
0,34405759472422
0,311198388557993
0,314685208200955
0,323046276327656
0,313493669033067
0,312243339711079
0,304826085751324
0,291493626349177
0,320972749434116
0,269204460900759
0,394088351904745
0,307320392132226
0,335523549185801
0,279429964811666
0,292868277612536
0,28766225308204
0,299581157162427
0,289746241715513
0,261450372393478
0,290163495769539
0,249802764920236
0,291427627535882
0,264064103932761
0,267431189763657
0,270194620507607
0,269218263872463
0,280029354252369
0,277207723800562
0,273903304524606
0,27627649345975
0,26934014450668
0,269836312334766
0,302857800256669
0,254942644284114
0,252244664025246
0,236063990449877
0,253334412951614
0,259601165319757
0,235048939519272
0,264190797818165
0,224020118125252
0,245541539493643
0,226210406411077
0,246748799148916
0,232329836383118
0,238453214156285
0,244967492236597
0,215054178623202
0,251305799134407
0,200786111858002
0,261062264938717
0,216078535544453
0,257612506516877
0,214844648800954
0,234195481446953
0,219592063515992
0,241086523322905
0,230364160809744
0,21057063498481
0,216886445496716
0,216670233195215
0,209575584844142
0,226592220639025
0,204530350550219
0,241439428751914
0,2326061392666
0,238761221638817
0,250065062051266
0,232059328408136
0,209548800405576
0,2036721278463
0,201486126336929
0,222261765904421
0,200149469267172
0,232069076757183
0,180941800214518
0,231688218409707
0,217441284797207
0,219048444196667
0,228066124944323
0,215928405966417
0,214959412252332
0,229634200780403
0,226066209444432
0,261647205459445
0,238630587586837
0,253806981171279
0,236735953039063
0,253286837841225
0,253207398457689
0,244534955420824
0,256245352771154
0,255699091755795
0,269237428282137
0,264282148267305
0,276037573992774
0,278760466097801
0,281638592387458
0,301407790158708
0,306382465387583
0,305299265727639
0,331283000280274
0,300746907474917
0,378767452808891
0,310320442018699
0,355754122054215
0,337531444191541
0,352231815677517
0,356414860910752
0,352168812982027
0,37269078467429
0,385251474377366
0,377128619063618
0,396161186107725
0,376945234040097
0,402934816812001
0,384686570605606
0,420946670192684
0,402510904578958
0,462296919330314
0,413120664552415
0,455757437120711
0,429268137681678
0,423572523153791
0,426796219346704
0,42055359124075
0,435142208570946
0,424620930164334
0,428830913919139
0,450806947442982
0,437981175094078
0,451890482353595
0,43417158925485
0,445559909928636
0,443861540277425
0,445647421824764
0,449635431688005
0,455073747373135
0,459658031131947
0,458246354331447
0,460760978103557
0,497907794491817
0,477731979469811
0,496481522098373
0,469671997925282
0,492528389012722
0,483956157131978
0,49339629011334
0,505109153323186
0,503639447275904
0,50820388943899
0,511765160674078
0,510024405372973
0,515135472101909
0,510741286770093
0,536778600046096
0,517445326011071
0,541971358490418
0,505673090434513
0,556230230926709
0,545947036439266
0,566757347683124
0,554937412877498
0,539874781404054
0,554340337091062
0,538799919369064
0,554176932317661
0,542395909356988
0,552826516182397
0,547998085889198
0,561288378354628
0,549693702726462
0,551043579307839
0,548901212519158
0,546815151205743
0,55859145795691
0,561685067908563
0,554619971536829
0,541669602295833
0,551645252339309
0,541589522081909
0,555196983159408
0,552010575327743
0,558729722360393
0,552190365168852
0,543245808202443
0,556539998473505
0,556185055304266
0,551406149886078
0,547328577231857
0,537063145368631
0,555191288930279
0,54508189305438
0,549744463389132
0,561181948737732
0,556016451578067
0,564968988465329
0,548411924564869
0,557328421335689
0,555662655579478
0,57019159146743
0,558017706604436
0,57110883869236
0,562795558989392
0,582734030753012
0,570668459434215
0,579024046131997
0,568329420656688
0,58212939946088
0,594329200538767
0,585903349026137
0,580378609959791
0,579231203171728
0,576034497720292
0,588378126630624
0,578144046168481
0,571150597746601
0,567780176059994
0,561057243622499
0,546422057387005
0,586430369314135
0,547607037267873
0,56474991696785
0,541347644541206
0,548995495470518
0,535128406294552
0,532506619636526
0,527959239214864
0,526915864646753
0,528397977002067
0,52020240805953
0,518848132444611
0,514590148410163
0,509982591535846
0,513596699349011
0,507901921725342
0,510270495074856
0,505834258024834
0,511975735946195
0,50792857339069
0,509892395938519
0,500569042735914
0,509030287019597
0,497375685952676
0,50828401017365
0,507843894710754
0,51772384920115
0,507628993472405
0,50487216140497
0,508628738399904
0,503358560340507
0,501681502668062
0,498823049924011
0,503892787899543
0,499466663498587
0,500382336985663
0,493767630214967
0,498842346350345
0,493893697911258
0,494629929549445
0,493980919937829
0,494765692437758
0,490133667079747
0,494131643499391
0,485979187930208
0,489965049897597
0,484454906309636
0,493073479233753
0,495751228366605
0,491618180733556
0,496307903713953
0,487039383309619
0,490964865447534
0,483221773052102
0,490120336561799
0,492701643445901
0,486035521246193
0,488191344033369
0,480976692667487
0,484080578566226
0,489065276579619
0,48579078796033
0,483294181447656
0,484836700520796
0,476574037817927
0,47440054999245
0,479257928415969
0,470791509629303
0,470864677274387
0,467448588244716
0,462077004607472
0,459734658490573
0,454882753354412
0,448424601197831
0,445097672635419
0,445558057473249
0,436670231049005
0,434111646447158
0,430870839533708
0,425451689757677
0,423329550931743
0,42504150081951
0,421050368196147
0,418662809416444
0,42042358373238
0,420102329084578
0,416709644144909
0,412307025633149
0,416437955085606
0,418519696008148
0,415526512225697
0,412677763096788
0,414097038048494
0,413884516559178
0,418394322604567
0,412738394075707
0,416149079367158
0,42120513752421
0,419935534439005
0,420581246729877
0,427071346736162
0,420696768320175
0,428631741085096
0,4301415427792
0,431868152118903
0,43154718051146
0,431493711818932
0,432740507130401
0,438675900132867
0,432670867018091
0,437477058959989
0,442627067035809
0,439748456089899
0,43917988650867
0,442508437874911
0,440168292540901
0,43962452079801
0,436202082245714
0,438271210761775
0,43780795964442
0,435050799161207
0,434983573117307
0,434584178009163
0,432269199123101
0,434637024547536
0,432634055806534
0,429532953831639
0,430586480695707
0,427125675292052
0,42783933626811
0,423916362611959
0,422420895553295
0,419634349098513
0,421361201898104
0,417397232143826
0,418487511524941
0,418091551973997
0,415905023684791
0,413942036094154
0,410053417742003
0,409948164996231
0,412973863409716
0,410848611636387
0,406508104456368
0,408098145969288
0,405087336470613
0,404552897196269
0,401546947464955
0,403985196067418
0,398910674681795
0,39533178636086
0,398936295224815
0,394549146345434
0,392717704320491
0,391284058861215
0,387784280502716
0,386153477395507
0,385587866822465
0,385794436852975
0,380225763561426
0,378585630837253
0,374563818164055
0,370126466071252
0,366511944238902
0,366856335299895
0,367264384042382
0,363399678504695
0,359996530410533
0,359918825094606
0,358400703963629
0,358238467178332
0,357595037569675
0,359135076236283
0,354945049541193
0,353539668098101
0,354696777820507
0,351144120589301
0,351373241038511
0,350466533545001
0,345856842473706
0,343260583187
0,339567889414062
0,336786662900057
0,334178025458233
0,329296657273524
0,324910223201883
0,321621941476498
0,31682961475204
0,314509806941391
0,3108513093285
0,30846821429555
0,308784295784768
0,309392013664198
0,311302003238162
0,314644138740681
0,318450025157167
0,329998539471395
0,335424005116789
0,343766002608795
0,355196796075149
0,366421271703659
0,377667916623185
0,390708269123466
0,407845448968691
0,425544286889863
0,442091660033392
0,457199499600386
0,474157567096914
0,493844593591167
0,506872690392122
0,530419568798361
0,538957880425162
0,559479854229651
0,575283175096259
0,589042054885397
0,609129072013804
0,626238873066719
0,645827537653928
0,655000359121541
0,67412944352896
0,687058018148726
0,701223853234972
0,714275717674667
0,728578065676237
0,741246870708263
0,752369735312563
0,759405039714297
0,763781797302375
0,774809661380654
0,778874948081876
0,783861091347214
0,776777607234676
0,783052140474323
0,78236077116376
0,77910645971768
0,785310832037558
0,783140008555567
0,77991874168844
0,78098668918919
0,786088697729843
0,782680501418582
0,781267645187479
0,78269704779787
0,782787521297128
0,787867497930061
0,792973062849294
0,796354228767894
0,799974787095076
0,805398776378867
0,815348643785191
0,814173167382445
0,822054346691764
0,826973660302
0,837396208572436
0,847684380776559
0,85148504422775
0,87287831551335
0,88285922951286
0,892322836628124
0,903754721153242
0,910721666107161
0,933087629166135
0,933645673802725
0,942052579059358
0,952542631747194
0,9417353522813
0,965868687189161
0,960258656239396
0,962833374549031
0,960293890124153
0,960616238585599
0,964399940990589
0,965186973218226
0,963438885112662
0,958111571324708
0,955807456977032
0,969598399341946
0,959482038433283
0,970897110975461
0,976282578782042
0,984045027017331
0,97961827163111
1,00484982838704
1,01988457469845
1,02927626036225
1,0466945629162
1,05544137759281
1,07471822389117
1,08191607498529
1,08490841592268
1,10964910495453
1,13811969749211
1,14706464047424
1,1719879693427
1,18773507808619
1,19995605705744
1,20206840531171
1,24321773146916
1,23965917213954
1,26677632422
1,31326317386116
1,34207337992647
1,36044544605054
1,4023891587869
1,40560436649066
1,42830808279123
1,49234476571357
1,5013140178909
1,47061145541315
1,50662440020025
1,5384951469726
1,59023970036511
1,55110734838586
1,56615704848746
1,59281334457095
1,62040017814361
1,57494653646986
1,60090709330489
1,55735823608246
1,64306489195363
1,6058750450273
1,58609849241431
1,63973448422944
1,58064526426252
1,61939975850046
1,62676830166857
1,58192370499389
1,59343589549592
1,58105205436445
1,58321613193083
1,62034889731934
1,62383337232777
1,64034290974737
1,62418510743786
1,66747261926131
1,74797090832895
1,62975478880956
1,69439747187295
1,71835693982123
1,7270636304255
1,7485138797244
1,74120901117144
1,79728494534154
1,8158481172142
1,88257589335689
1,87001303849014
1,84530939310763
1,90586255405136
1,97600285377086
1,99962381959482
1,91116235264836
1,90077762304526
1,86827968728885
1,99985488023984
1,99710283993312
1,99044815105794
1,91096211137639
2,01822001814839
2,09044097839202
2,04611233145414
1,96922421502385
2,13126546811445
1,94773323033028
2,02431850873138
2,07901746582258
2,03428297547108
2,02963253303488
2,30825377693368
2,01548607434656
2,06803494776895
2,11982587234765
1,892536648417
2,11131550470615
2,11768913234199
1,9177580315602
1,88404970836115
2,05438668474106
1,96548296182572
1,84315539776281
1,85257658397858
1,73351887045302
1,71852468231751
1,69644909846322
1,59251764103581
1,58573216692246
1,495809103282
1,46650147453776
1,45162653677359
1,40675592750053
1,39570495415883
1,37751422353467
1,34282719637791
1,36628071113834
1,33931068014833
1,31057419195314
1,30456001025228
1,29307891185897
1,24287950858776
1,24971570563708
1,20446908538567
1,16962613913463
1,17090164764784
1,15064716235584
1,14014581867886
1,12889629006788
1,09816398922994
1,06732471171458
1,02468034617317
0,96732987734395
0,940571836754877
0,901716677792763
0,87606135850991
0,835641818315787
0,81101506554323
0,774073209465278
0,733905234038741
0,696731556553756
0,661133916051162
0,626695420671321
0,601309972693799
0,570854773989096
0,552676568705026
0,524665107954718
0,501835346517933
0,481545393679632
0,463807901582888
0,448742272657523
0,432872610062656
0,420430718200396
0,402192957689117
0,394061324881517
0,384842192852837
0,380752052373418
0,377254416547102
0,362802755148774
0,365373299033756
0,361194506258248
0,358749504491934
0,358871297584014
0,355782298638317
0,351983144184353
0,356682641056671
0,354137343848531
0,355840548414531
0,361502021839338
0,363663432067072
0,365337451203081
0,367766613206009
0,365075536719208
0,368806540577858
0,371485299812529
0,371343260132031
0,372988957023022
0,372230129663467
0,369789129132764
0,370242273191875
0,370922946235799
0,357221904443012
0,365126577865172
0,356578885593667
0,359852013284892
0,360723229699446
0,362679487134248
0,360685141624276
0,358913690052933
0,365288654430505
0,360173417779846
0,366382322565352
0,370985488753602
0,368959145034651
0,378911655967631
0,376866608086984
0,373177578367048
0,375173727391076
0,378283494144715
0,386494107030403
0,39244442771386
0,387808631996472
0,387142388612124
0,38817022200711
0,38911187851568
0,388755990149709
0,392318909237526
0,392930512638763
0,386460027836897
0,387958507863848
0,386243252211571
0,391475664212397
0,385449735471326
0,398997014064159
0,399057800462086
0,399431475912948
0,402035271899815
0,404038991099374
0,412146320799441
0,430397267627908
0,426051781975685
0,438077808778469
0,447798977970372
0,461566336599499
0,471858646958657
0,482155090003507
0,495334338119045
0,499031287539223
0,504970690845077
0,51651211843895
0,499140163836326
0,512058971887137
0,500404696987527
0,501403123354782
0,48729651598282
0,480290159214615
0,479617798993157
0,476382019788716
0,447658462015262
0,45120820239046
0,446711835339979
0,447613099935667
0,443148940229837
0,452781713024559
0,437980919843407
0,447329523045554
0,45505733921575
0,443213508824251
0,440110835342269
0,446895735185682
0,43673044642301
0,445807107788701
0,435060596790175
0,434874165904899
0,433172528999204
0,431812281149477
0,423017986773793
0,430148445280429
0,418953942118865
0,424652551829446
0,418337716340936
0,419473090979786
0,406099367834703
0,409471881293879
0,406965638168055
0,400976797023894
0,399054590727006
0,400083502118653
0,402789530413336
0,403303006214317
0,39125618114165
0,385301857140894
0,388287065603163
0,385505180479445
0,384559181182058
0,382939082183547
0,373003944306098
0,376582233317208
0,383785337717482
0,374390968235208
0,380201454540822
0,368356073821922
0,366839971422336
0,36195184643782
0,353892017544401
0,362948358933253
0,357132124110789
0,360755624556244
0,355431818458655
0,343931895921935
0,341724443928704
0,349962364616485
0,343631879515999
0,35184999253742
0,335979813494127
0,338065121918986
0,336078099856338
0,336321219407169
0,333139814181148
0,342601249304307
0,338449308720249
0,326922822754114
0,328920208186478
0,334145733238588
0,333516516591942
0,337483696671929
0,339198865441672
0,342578496551223
0,343066997992749
0,341032572729926
0,340435603943082
0,347119742568139
0,354540891993224
0,353398110795246
0,346230825346805
0,367475158896608
0,349450424118481
0,347620107514834
0,36124403436711
0,373122416186959
0,373216491669727
0,370668208786076
0,368814791429886
0,386433720152455
0,394987444355779
0,386263369023357
0,392643339901417
0,4074710665802
0,406994238680894
0,419078012726271
0,421128499939891
0,437820322847168
0,462061652003043
0,475973648369865
0,467862327266631
0,487322546786323
0,492468376677741
0,537778777922419
0,53598684008174
0,561772848020913
0,576342442152267
0,59106389944358
0,588105719565905
0,602051231431288
0,584329532958785
0,607381368352541
0,641114013972735
0,641794944757919
0,617164877634681
0,623963339143519
0,613947887639104
0,617830632350226
0,610749046636757
0,603053564410068
0,61722602262041
0,617061685348524
0,616425678536062
0,621938338779462
0,579752058618184
0,585778709438116
0,599777033668118
0,58877970775269
0,60957555579509
0,583822280293158
0,576665660397935
0,567927878333343
0,564476169232684
0,596970314003651
0,585915133454986
0,584747289951372
0,604194933979993
0,58430991142635
0,547255957199288
0,600929232944128
0,530887289147945
0,541179456160845
0,547943381853926
0,555164360608254
0,55775682353875
0,530405666001614
0,518913111328116
0,5471666971227
0,518387592564765
0,545985237085432
0,516512949511563
0,56603691172869
0,515714735220839
0,544935590193977
0,530215778506074
0,511222888563338
0,51322790771638
0,516688456048831
0,518001048161894
0,519720165976576
0,54779806848132
0,570871674906755
0,559619656967301
0,561729853844738
0,549648955230249
0,58250837451965
0,554574910343431
0,554869912296558
0,542917868689208
0,565192660322119
0,556976588189931
0,570464689545945
0,547498278991967
0,552901572634432
0,563618105015592
0,585674782763683
0,547178979454999
0,629428842707959
0,576698845643636
0,596636153413191
0,549769095882904
0,608720249201001
0,637310019380568
0,577934606916784
0,587543932735704
0,658446692959969
0,65365707164609
0,671193018867048
0,681945112353252
0,690231711034876
0,743149844316119
0,801454868788604
0,688836205113735
0,76577052331488
0,730957772351201
0,819855118081702
0,676410388007228
0,719844055647137
0,772198503183323
0,980050981805277
0,810238419351289
0,804017274699786
0,82404561258231
0,82077951750048
0,740343509574436
0,773906368701762
0,6863838316355
0,63856273862215
0,664848333809049
0,662973312012398
0,636930299066522
0,758154155799493
0,698048369077268
0,706500684407448
0,663746641846365
0,669373474826661
0,642235452730196
0,587380636608114
0,612643812805539
0,747659958734188
0,616516974520512
0,691065383738623
0,769457478334607
0,955161504242849
0,823913152203235
0,660001338076731
0,582006380202187
0,779261216902508
0,601091300101311
0,601363916624217
0,506080726023386
0,63851606515265
0,892516644205515
0,761817580496139
0,859519672351592
0,664213393209086
0,788591189486965
0,832747731380191
0,538806382181529
0,782836588808904
0,605281236881754
1,00972962541314
0,863072062195211
1,25653275174721
0,888417361484858
0,604414777636527
0,58110374969405
1,10246864794422
1,11769319389993
0,631280892537712
0,453172722632143
0,5535823727871
0,573259754184975
1,62814951323339
0,522073379084481
0,813073031440218
1,24329551901175
