3596
4000,36533379555
650,420452594757
1
2
2
0,0511690356030687
0,0326488722134826
0,0428235005284989
0,0295139278299334
0,0420763322376329
0,024455363732372
0,0433829016564078
0,0284540431914932
0,0413109096607122
0,0346112535949956
0,0440259915046278
0,0298235797932641
0,0412199417797685
0,028730789258334
0,0439367585120707
0,0249325118373691
0,0363228164867133
0,0285096598243593
0,0450905904182241
0,0293690553095942
0,0385376243143191
0,029561353664711
0,0434708999677449
0,0327316062963406
0,0433360636721455
0,0320606612533127
0,0414551018648981
0,0262623791200094
0,0387460517328387
0,0316410418368033
0,0467219992091757
0,0284190521931779
0,0473652669779516
0,0311596438144801
0,0400047595651068
0,0304528088845109
0,0347358745548438
0,0293322839805518
0,0440204374479322
0,0358347878020368
0,0499036784834354
0,0321873725699365
0,0448472091651747
0,0288886422654519
0,0409221424302115
0,0281224965680532
0,0370728915992758
0,0202253694064812
0,0477140610832357
0,0331967874022526
0,0481209129257904
0,0234396831097307
0,0400890429127602
0,0321630150921426
0,0398798182049714
0,0425009679129884
0,0461329493543202
0,0274192483389519
0,0369567626006746
0,0276382834045566
0,0543822102778115
0,0342073496289117
0,0347027724012083
0,0316275810726061
0,0427461802166708
0,0251780166275344
0,0350606685010917
0,0294356408681383
0,0444650031550438
0,0315177881521026
0,0303369810985029
0,0432464454359203
0,0494559959808676
0,0250862736351206
0,0319740431852716
0,0301755123746694
0,0433899339690043
0,0273630085501394
0,0364030974292316
0,0314400226188056
0,0542139238115566
0,0356384769033517
0,0429094194130085
0,028612895351725
0,0400300083847244
0,0268142712361183
0,0298315947461205
0,0333689025895352
0,0485423900383461
0,0294167470395657
0,0360353874931826
0,0285208201187186
0,0429193056266785
0,0253804378639897
0,0314328294476791
0,0240423269714738
0,0376216777567424
0,0382072608287071
0,0398396156695702
0,0265438080181821
0,0466785808257963
0,0454421383949898
0,0526726889443999
0,0341795961168683
0,0608902153786382
0,0207854990961335
0,0576243675735756
0,0488668675892879
0,0426889271094112
0,0274825603872618
0,0359533443707399
0,0281021299709695
0,041727911107638
0,0287721778724972
0,0421058482993524
0,0469085541825298
0,0549901725014028
0,0296859778930483
0,0373633419790902
0,0372614627659408
0,0331365520238307
0,0426831724652161
0,0487842830039095
0,0271306113485116
0,041136288903437
0,0197850916961024
0,0359230262504356
0,0456584168390447
0,0399960638736248
0,026268447709858
0,0294672403909594
0,0168905034082147
0,033601789729607
0,0359575656256029
0,0717625728729869
0,0298770759642635
0,0332071942382742
0,026451978818559
0,0509926414031589
0,0399768416970541
0,0374099698723644
0,0319109906569666
0,0370611233721985
0,0320457479813549
0,0554866889871893
0,0275992430258747
0,0399872600949285
0,0350838522769798
0,0351510681240255
0,0229748443569043
0,0338368133585761
0,0286482879233341
0,0425218577090152
0,0243564839924
0,0469263197513826
0,0491541101631573
0,0517414691216915
0,030302502339235
0,0515209494494006
0,0239502813052694
0,0370787977771839
0,0214629484196818
0,035862013649777
0,0210996169959095
0,0351556891859825
0,0327140251735045
0,0414788067781128
0,0265324775855172
0,0388283418782142
0,0352923942066713
0,0631117550585864
0,0333298156951237
0,0376202927624915
0,0252381900116036
0,0343023876936339
0,0311276721427784
0,0427150446668669
0,0283568534434354
0,0321651070250548
0,0380433269052075
0,0483848973491338
0,0257944227373198
0,0279578585638731
0,0260100169691984
0,0406003698286298
0,0322125506573996
0,0325194395592527
0,0298471923332486
0,0366575941497232
0,0301937925460402
0,0421198242551492
0,0457786819910636
0,0598955243146853
0,0226717354851614
0,0333849436534355
0,0321522065020145
0,0510838070865565
0,020383955209352
0,031187183987778
0,0334067644758504
0,0321253123704403
0,024187488426668
0,0319418637365634
0,0234667390939407
0,0273579204995242
0,0354823732948584
0,0545576131900315
0,0331654131921452
0,0352515900668378
0,0260455498924207
0,0437293499772078
0,0293217563740998
0,060368736903347
0,039361126476338
0,0342616422701141
0,0320999106038775
0,0297595837218722
0,0386450247102367
0,0404548447732861
0,0238196085285523
0,0321653619287138
0,0252619897401937
0,028535268409211
0,021879125343738
0,0323209150548413
0,0282926478391414
0,0309127618165029
0,0338124896027221
0,0385288777606013
0,027979552355877
0,0336773148446559
0,0250774058561659
0,0306254656440501
0,0257138312325917
0,0282590505031649
0,0396428181031248
0,0368847944905371
0,0238823365940915
0,0359008500404977
0,0251323491667204
0,0347298841727124
0,0234277302432631
0,0363689208369997
0,029501879279693
0,0327001645687672
0,0370506319569308
0,0556692938829258
0,0284325382001663
0,0322775538128805
0,0346741641208544
0,0448751399127232
0,0326913689724727
0,0294205990971006
0,0234818848905453
0,0308762889372123
0,0277726124216485
0,0335085499461876
0,0465854021296002
0,0401400492354547
0,0363087024758098
0,0352874793876582
0,0297120666377245
0,042053044411079
0,0376923863751874
0,0606522646793025
0,0608747684151532
0,0529341054462379
0,0492958031615397
0,0522164776747506
0,040367294829754
0,0426183808265853
0,0335316564536518
0,054286835688233
0,0610596397765142
0,0455061486186748
0,0319715242507618
0,0336381727917874
0,0356937066239035
0,0374510484916208
0,0358090934742232
0,043037866404252
0,0402428620276825
0,0502202517473589
0,0737869330197486
0,0584642146045741
0,0325041459403213
0,0561442245832897
0,0295519236347298
0,0359642867886781
0,0332071754446186
0,0329695735398424
0,035026942964796
0,0450919859364226
0,0349807908328233
0,0374399473123196
0,0379965184549338
0,0438108340602153
0,0453454586793234
0,0392700284491273
0,0363365958350307
0,0468354930517377
0,0434283003236472
0,0386450644148376
0,0333981232351322
0,0422938493600925
0,0402740868436971
0,0416826937838351
0,0469602737666152
0,0488217734465361
0,0428947351239881
0,049971744289225
0,0458728299432317
0,0386478814596362
0,0314593044818278
0,0391845933380789
0,0346558580484593
0,0377033825825313
0,0383173096170574
0,0412085168675786
0,049171055596355
0,0455646397047992
0,0345645107645646
0,0332199617712659
0,0300555471766266
0,0383463224406572
0,0397558351248615
0,0360483314899527
0,0360332367545178
0,0457388236960934
0,0488511612171742
0,0487705044977319
0,0490548431011107
0,04537184210786
0,0576352171993354
0,0541761857148575
0,0402312226674057
0,0467418804348437
0,0431150637588087
0,0451043725084902
0,0415235862801527
0,0426408509920609
0,0468135021605142
0,0539353606748345
0,057145484845496
0,0544415648877143
0,0522215832277368
0,0614402286968143
0,074073243384451
0,079216253304094
0,058087763193049
0,0495526652437163
0,0543935091508598
0,0657786441390976
0,0547725304586067
0,0648984707455201
0,0639224018375518
0,0508720868102652
0,050858416454066
0,0565195577405046
0,0538607291390096
0,0527009271762088
0,0564185088807345
0,0627263012122542
0,0574773846085165
0,0582234381400452
0,0584561393310864
0,0628181592712753
0,0806751651133749
0,0839218351604333
0,0691782298516889
0,0741434977188739
0,0703659169796679
0,0791545276793345
0,102057482865526
0,096118285062076
0,0831272792915724
0,0888017589362685
0,1053871435585
0,0962249629629829
0,0767396854519899
0,075889197027646
0,0785354537743067
0,082037452614209
0,0818728202699738
0,0834644026727538
0,0893771882228724
0,0902280875936836
0,0989178012331815
0,0960891760566674
0,095580877300619
0,100729178993431
0,110951772829066
0,115005486930568
0,103810808113564
0,106394375237437
0,109584797696798
0,126244662846744
0,146643485634185
0,117877684353032
0,111409647948745
0,120000629271978
0,112197480577444
0,106893470391467
0,114512004253011
0,124108098532587
0,125625123265639
0,135108508626253
0,147596378997025
0,139614280709379
0,149407611241485
0,143280202568643
0,139612154825915
0,145521484396972
0,144939059492901
0,153461597270361
0,157317133016692
0,140031084650443
0,150206578373127
0,168365198786978
0,158042383484222
0,160242842460923
0,168745136678577
0,156940299569053
0,15040414981581
0,158574981257198
0,174478442267501
0,171872976043043
0,177507355774272
0,188583875065366
0,182117691260161
0,185438238607849
0,185831835468216
0,186784362329986
0,212722300857837
0,196207101766391
0,197004362329192
0,202071405322741
0,201952882369946
0,199581282957608
0,208581085750037
0,229544055646895
0,227128149258655
0,231500593546425
0,233139579513814
0,219230150711476
0,217430320044348
0,207697981771667
0,230116273353198
0,232218175732102
0,24076831613313
0,232994130100815
0,241953904724298
0,239943597475319
0,241411628178361
0,253861282641995
0,246896839016908
0,254160838075816
0,266808464543685
0,25640402961705
0,27080713800018
0,261785464841179
0,278367731612338
0,295147310330655
0,304323203550772
0,329236871659459
0,296060024059448
0,282373601072825
0,290050682824599
0,288002923302465
0,296384845304442
0,299700546287817
0,329672765378226
0,31504961066808
0,325856345380371
0,313011501079941
0,330333153418535
0,338612495896536
0,342908270650169
0,333541284210995
0,365258785495309
0,366418372578771
0,356998235677944
0,351661454208288
0,362059470093742
0,361321173180871
0,388701028031901
0,370695135540185
0,379629308344578
0,388644149480186
0,39581206021525
0,382138402368469
0,385783378472046
0,390125013332485
0,417692368745466
0,391482627383941
0,411835992896194
0,421562467108083
0,4297930877489
0,40600563787876
0,427548086549135
0,428943879231121
0,440745453493044
0,440173844623429
0,434444325687288
0,448780604027399
0,496433562954019
0,455786390536705
0,45863100208683
0,463494630334545
0,482151134059535
0,481149494890068
0,512941849909642
0,489291061111333
0,495064896323908
0,488401836770894
0,492398733980821
0,497391138599804
0,527823130345086
0,523884508498086
0,511641955060482
0,493310633126539
0,555345222672077
0,556030971229712
0,562924811112299
0,53984335767484
0,570667630900812
0,548260385133857
0,573813760687645
0,552634944484042
0,577073801033113
0,591405048950852
0,59391906606944
0,5606723376898
0,603848009252173
0,592694793218933
0,615790520809047
0,568864758044874
0,58609638043073
0,612812752046581
0,622779104906705
0,616985099166093
0,647560109151976
0,616612333655461
0,640608643875921
0,611642673604187
0,655129709979891
0,620507616589351
0,696625479905462
0,661734311908777
0,683359969336776
0,666844399703958
0,710323256995794
0,679191697612044
0,695663892364425
0,64304798256133
0,666758907964581
0,694775789995464
0,718961193218681
0,712308843805759
0,750331609239537
0,728409379019842
0,743657370428093
0,743098169821352
0,771780924445619
0,731186908814681
0,774615600942517
0,742497822265514
0,798262070409308
0,719553306345416
0,736457806481235
0,741551906810443
0,79243109796899
0,778913365355412
0,825991230489602
0,747836789292066
0,836479285199407
0,791969161006594
0,833720128333785
0,806581087548133
0,859148335442085
0,778848692312215
0,837806919215294
0,81586245817855
0,832291330797132
0,840742281195311
0,878542820044111
0,789246724658199
0,921452811107502
0,853572750352202
0,858666943166714
0,858634334147757
0,912790175595916
0,91018540876059
0,940785015258384
0,852886080339644
0,934461154791916
0,871405432038135
0,912510545463221
0,877577928307387
0,954221365182543
0,876166492260914
0,878629941022557
0,877081143846437
0,92436448441647
0,882650757686944
0,921589047738748
0,890467783731496
0,959415290682696
0,958618673834458
0,953991663197416
0,920797057491723
0,934999560292012
0,936711012521842
1,01111698257854
0,901897839045326
1,01590913346574
0,933791185624575
0,977345341144505
0,871231815267342
0,998838403698189
0,978620885103321
1,04678165811671
0,946578861764816
1,05177415677256
1,00325217677182
1,07598326293281
0,97597880505961
1,01039589304864
1,00701493524179
1,05111251212829
0,999537019776905
1,10550562463194
0,956466965886313
1,0706189369277
1,08673003771314
1,05196616095221
0,989832809140324
1,13724013343443
1,00431792178064
1,11091177080502
1,07553054904921
1,06442089513455
1,02583052603222
1,12373220943838
1,03965725741738
1,10921308263652
1,12241418669003
1,14986930296747
1,03178835196101
1,05332955143886
1,03960645105715
1,10214565616163
1,07752123416314
1,1236281447007
1,12573273491742
1,20894588775675
1,08652892369041
1,15614629599594
1,09297372434135
1,18902342506256
1,08157317930667
1,16386446907284
1,10069979674266
1,17794094085657
1,10348546281283
1,13778555720079
1,07053147790754
1,14685202646781
1,13452910822121
1,24435023448041
1,13686283375511
1,15907634522265
1,07393330330372
1,23251519529231
1,10723633246261
1,1634459415108
1,05473414865507
1,18128044532348
1,09613318053144
1,23573319558525
1,16477347611514
1,29470177271496
1,1361384156477
1,18531410381742
1,15992952218911
1,28120228037585
1,1330813440433
1,30593106413617
1,22216148005869
1,27067272393706
1,0987207767526
1,28026254554144
1,16890694495578
1,22840822602088
1,0904300794093
1,22833858442653
1,17528999354596
1,24876528171965
1,12881557579973
1,26284296121993
1,16513935319283
1,21335944503499
1,10877182714674
1,24069426682875
1,13120005209896
1,28960427347812
1,22721827352629
1,2890981346368
1,12029237254478
1,23039046926846
1,19221051133895
1,28712582619876
1,19380635686626
1,33534314005435
1,14252636033739
1,29872469576593
1,1340817825103
1,24888130253706
1,17285400119328
1,27614670838906
1,19535439899007
1,30193619780534
1,2370460223703
1,22957396752105
1,2362804752408
1,27081535048049
1,15131660797808
1,22729528344489
1,16794729972875
1,33595882580504
1,19563812276024
1,29550256449518
1,16117917318754
1,26044342797952
1,20663128788511
1,26222203546904
1,13048951781461
1,29044831333994
1,14441372064138
1,20459434186459
1,10808664019554
1,20950239287196
1,17566660822202
1,27059793582295
1,13566025631853
1,16841130736992
1,17506864073742
1,21408947005944
1,1268484267525
1,31293338118529
1,17723186362158
1,21250203270815
1,08114981955348
1,16235876380365
1,15991180269211
1,23054196584095
1,10690408268298
1,22425826408702
1,15380480706915
1,24365244370279
1,10048912838601
1,22280531917215
1,18628690896574
1,1973026364044
1,16483608971762
1,22894574751486
1,1486437613666
1,19577068645406
1,13845541293223
1,19070395529288
1,16166493325987
1,23922777128001
1,12692668364161
1,27081966888398
1,15014273956425
1,22730078857286
1,10805122036443
1,17534998909758
1,11407397147332
1,24755245598556
1,16372267761363
1,17865726151845
1,14424806664116
1,12025083017389
1,16056474095166
1,16458153018204
1,1097593288782
1,15090089822919
1,13739556305189
1,14208134807728
1,09793023405425
1,18008184236671
1,10270297545914
1,17384531574611
1,14285337755836
1,1590978527828
1,05984173066468
1,15513987650727
1,11931274946485
1,16297524186458
1,1070109002529
1,21020175066522
1,03695502121233
1,18313882378998
1,0546081563094
1,11431521800272
1,04386066771243
1,12222291298965
1,04153997022466
1,10153992568333
1,08068464818982
1,14113050423466
0,990872932260154
1,11462987780534
1,07207479246142
1,10266627076911
1,07993896633318
1,11096688473973
1,02283057562495
1,09399561376476
0,998235189637647
1,10780609571696
1,10960441403843
1,09615630269535
1,02961857075396
1,08774257110967
0,994465867484034
1,10465359437925
0,981078591807029
1,04990033631862
1,01784460687097
1,08267545976287
1,00709462769844
1,04321014127212
0,987072440222717
1,05523066836938
0,993602924866607
1,03719144964924
0,998210104795462
1,02942438426127
1,00451838464466
1,00314822550321
0,960999050040526
1,05592065026927
0,958349708737894
0,981521695526718
0,960424721869166
0,998841266929052
0,954895634764601
1,00484550818243
0,960898202747287
1,00106427535755
0,949969445685419
0,987031654215117
0,925609999707881
0,988593447519128
0,917812165175725
0,951978518360821
0,908062402429716
0,973086262507758
0,909838223802567
0,946902269087908
0,894455942536241
0,953157071468787
0,894088494900855
0,921384382529729
0,887132827855663
0,893621768603721
0,881178727258114
0,895103296439791
0,876117586456611
0,903718729148694
0,854553448594276
0,911528851778881
0,849649542944153
0,893055786652707
0,870291028950093
0,888935193764995
0,811748201727926
0,867605412763852
0,856072835881543
0,877127833801541
0,815542428024134
0,845129193130372
0,860367575116245
0,859466515902415
0,82149063110595
0,825856930083539
0,812488193636664
0,845223214000315
0,814928687453575
0,818143713578856
0,802631025546211
0,798990717775484
0,801839471945988
0,797798540499172
0,761248351579049
0,804222366850168
0,775744288742958
0,798096834329345
0,781434280944008
0,785139480584554
0,730672258650506
0,782088567398444
0,763822025433206
0,776066508652177
0,74056344952497
0,794749492405657
0,72434906621023
0,751254188846089
0,723344331168461
0,749979994043928
0,677023217861816
0,739088280663005
0,71002989647487
0,758610851361202
0,706920182380333
0,735381119731431
0,689958000416158
0,726767670102105
0,689823929721946
0,715553698212207
0,679175993968943
0,691043084638788
0,679214272394897
0,706596017699226
0,676926443529639
0,699508990430788
0,676045695035836
0,668317561239392
0,652476696530411
0,663489421576729
0,645757171087356
0,671988140793942
0,649929637140526
0,643283034583345
0,622095744306809
0,644707322797156
0,622234542146986
0,642327499318686
0,609021957360492
0,648126566578626
0,613512490918526
0,626328075348879
0,61583442295987
0,633851055793821
0,615296971467294
0,613869455427453
0,593189276787325
0,62255535253195
0,592949542062969
0,603615032349633
0,579678289378716
0,581736965866983
0,571054767014216
0,57844928617581
0,576269972542012
0,579401302908758
0,558370088988604
0,591927718458338
0,557444729282398
0,58420646037659
0,54743857013472
0,563853323643264
0,542225979766443
0,561709462857006
0,549017920068325
0,563575597981079
0,535220375498553
0,544076461575639
0,530289405986593
0,544887852094141
0,51964001526147
0,540503575561967
0,515290910473235
0,523039219088771
0,524107856248703
0,52880783272166
0,507756834367074
0,511253946497828
0,490934031285864
0,504561213207276
0,485019310731189
0,504589200051619
0,486475224633072
0,505689119845271
0,483763053496793
0,511213187148482
0,475924670773664
0,490136746077854
0,478552859183626
0,477266418425987
0,465474221888455
0,480957252568662
0,472195998827742
0,482088686569743
0,459315789793444
0,478289898395274
0,445792367168063
0,462694973227904
0,452947886598869
0,46802852835807
0,44258627622064
0,470793836817081
0,43287867895043
0,456425790983594
0,432152242803788
0,448627364339152
0,422724080406377
0,435451885236641
0,421201657609224
0,432733951202425
0,417570887178854
0,431658571674132
0,42042793135894
0,427793276535377
0,415866297805962
0,421559981432366
0,40938069461967
0,41595488239336
0,397076249454191
0,410523505785597
0,394726368912143
0,409112002725926
0,394202460831706
0,403575622255666
0,381800808626371
0,402231255299244
0,38305472889775
0,389240047281092
0,384911255778348
0,391957956488096
0,37428822990048
0,379622772883071
0,37092480714652
0,380261874478185
0,366336760026531
0,388880559685685
0,367928285600548
0,379142252586773
0,360002612146251
0,375078060956164
0,35015303581764
0,366401957308571
0,356771209919784
0,362868937538781
0,352106057391363
0,355880131897192
0,35128312207118
0,359920590644323
0,347900077119465
0,349725835878426
0,337869337840329
0,348892699667092
0,34163142199021
0,340475439353625
0,335041516875361
0,348206336278593
0,330610093495481
0,336472824239439
0,325467124283621
0,343024228495691
0,3269632210567
0,33600786170048
0,330906794725587
0,33371717926051
0,324485361471356
0,327815458255423
0,326524311366591
0,323222487975023
0,317011179684295
0,327111303450254
0,315354261492754
0,334425934897982
0,320313687003427
0,326673491819473
0,317461077862674
0,329439668684521
0,311949167068322
0,317754365585416
0,323082309574465
0,326189902828591
0,316590153846318
0,331900125898512
0,324245854748179
0,330132015295988
0,31589816139556
0,334958348396122
0,321953946990164
0,333471248274894
0,323014178566959
0,334778744223071
0,324298655255755
0,340723426794082
0,331764756086766
0,344887629104905
0,328277843085534
0,34492467988014
0,337266883609633
0,345840719606321
0,338630791916671
0,349484902485818
0,343335845556688
0,358050520975588
0,34321907314605
0,357511930566626
0,349604690846988
0,362333341220977
0,348969859658041
0,358211343043483
0,345018946661124
0,367468460169363
0,35590151539687
0,367384481535994
0,366936956411741
0,378704847645111
0,368941877759305
0,380097781202429
0,376919124196292
0,383524888299489
0,379533820119008
0,38399762094248
0,384218214604244
0,399566277498139
0,395721851111859
0,403374610083782
0,401013859255373
0,414313164782475
0,387895620309143
0,419124656531903
0,416396480448734
0,420882543479172
0,419943911405466
0,434367158328739
0,43059685599671
0,441512094358061
0,438011062750968
0,445123584882153
0,439866887462414
0,450507218292783
0,443887130883484
0,463581340759784
0,457653282530623
0,466572949671985
0,457587588671171
0,468774894499518
0,456595825008202
0,469506402919903
0,460558258873515
0,475004373690174
0,461986874024146
0,474038642263725
0,464548148233404
0,47723918622647
0,45599906251065
0,481358286593504
0,465851849955453
0,476113953219627
0,465718852379631
0,483516377061929
0,46532624829665
0,481639937378216
0,462828907472329
0,476746577273738
0,457020310676514
0,478015872065702
0,457370293929674
0,477727403866153
0,461864626855279
0,470016973196138
0,453301267381612
0,462889530493318
0,46549813206292
0,469828065424692
0,450764683087071
0,472169124237457
0,467488694758945
0,472354665849204
0,462312782134528
0,477126917890201
0,46031177189313
0,465293919682667
0,45863838557488
0,472964326501322
0,457262023488239
0,478913144818356
0,461623443733802
0,471993092798777
0,468249726465545
0,46692758570575
0,465840561374856
0,485048763554493
0,462041319704863
0,482098259928974
0,462175205462367
0,471117232584719
0,458269273996003
0,466996673653942
0,466970707830297
0,469842813890618
0,450297156675882
0,466309140598416
0,451279134643329
0,454886512828128
0,460208338099188
0,458366856614187
0,44214067214844
0,457886367313215
0,439004776010464
0,4550613133923
0,440462078824301
0,437429899801141
0,436901959601222
0,449273034951197
0,427821541817533
0,437858339318545
0,433100493306342
0,425586716871519
0,416020241461865
0,419266357819487
0,405405202811311
0,414992583234326
0,399799056357042
0,408647938461958
0,397546805973064
0,405018017903593
0,397708962669468
0,389387383553824
0,385274711360293
0,391440816942213
0,3757287070718
0,385139370325665
0,375441613406278
0,373411343697641
0,360601548047421
0,373228899165442
0,36207856851815
0,362592580901349
0,351629122835894
0,358631668446476
0,350673466360879
0,3466927748383
0,338713022942151
0,348577740316679
0,34221484474328
0,344197803737262
0,330234137355037
0,335049826207925
0,325149160621119
0,331248498064112
0,325045115802474
0,322965959951737
0,317234629328285
0,323908896865158
0,314544086893465
0,316849895656303
0,309083604008621
0,317825281486605
0,309433460245981
0,313694443824717
0,302487420516332
0,305250113395987
0,305923706614092
0,308497936950956
0,304532998670376
0,302944897394458
0,294751623823992
0,303066975385672
0,291433421813983
0,296069528536812
0,293004773266456
0,295794870559376
0,290125109699125
0,290489056860243
0,283060440297367
0,28579525339912
0,27676193131753
0,282418733568766
0,279530271632722
0,282559428020425
0,270851675467339
0,280709636213279
0,270554908948471
0,275246953045865
0,271046348606174
0,272400620065081
0,264991828006984
0,2793886429081
0,265828012674965
0,273301746855153
0,265292539261484
0,264683045003455
0,26098596648969
0,27012914995507
0,265940753782032
0,259453566458288
0,261488382931248
0,266505690349687
0,258591557684971
0,260041156910849
0,253204960894561
0,253380815977692
0,255566806772338
0,255716314049875
0,252030648201493
0,255360409856653
0,249083672346506
0,254720950912119
0,243738510522554
0,247618404188698
0,242502018990931
0,24504745109106
0,24402257787678
0,247358934783975
0,238871006966558
0,245782572051105
0,242389633935787
0,244088163826132
0,235299272134543
0,241858638494147
0,237231155529843
0,242564603786587
0,236896110981659
0,238339271184255
0,234961457480847
0,240231559756946
0,233361304924235
0,237428951606237
0,234446173610373
0,239570102494598
0,229826314761452
0,236870877544291
0,227219627115303
0,233108875456566
0,226274582188414
0,23067939801098
0,226259691175219
0,229851254082314
0,227929050293054
0,23383753215389
0,224333344352804
0,230701653142281
0,222625230019764
0,226328313667423
0,222762291739504
0,229926604220655
0,222068470128521
0,223756808250397
0,221983994135905
0,227089521190154
0,2246624111068
0,225615022692112
0,216036102524708
0,221685012147835
0,220007554386886
0,221107504838875
0,217426708776911
0,22401349022165
0,218018343841638
0,222605091631406
0,218176389138363
0,222295647707814
0,217605975635184
0,222546468120545
0,218179290493779
0,222248014919746
0,215734704865305
0,220576002018216
0,213453826653005
0,215418353750165
0,210099034213358
0,214030890650307
0,213729986809167
0,215685174101408
0,213921784861005
0,217408078895717
0,212905379021914
0,215822583287053
0,209926148246773
0,21484381626732
0,208068311431475
0,211596819720301
0,212227728541803
0,216271135208669
0,208172591973619
0,207142266583649
0,207741138683945
0,206299652970375
0,203681866859251
0,206368359204595
0,20494346314918
0,205388219170132
0,202557276477871
0,207668131831023
0,204108962678676
0,202045228708948
0,20045587439522
0,198266416722288
0,19708708109541
0,20394029551342
0,1985389341417
0,205917642705667
0,196787988089149
0,19654483091253
0,195966589179314
0,202481081245255
0,199640599282301
0,198919578573963
0,196488901096354
0,196415063723379
0,19608503804847
0,195906092228006
0,190896295679816
0,193938349624125
0,190340504891517
0,19453187997635
0,187366234891124
0,191142603219978
0,193094161081068
0,19088288092429
0,184832602159763
0,188391683344763
0,187487762804028
0,185962316074985
0,183324557816956
0,183052657132529
0,183391277699343
0,18720902026223
0,184608963489479
0,180946590571525
0,17839743756792
0,183789672937689
0,181352538832976
0,183179240559064
0,183087511818866
0,180307348651846
0,178067021639038
0,180128862235528
0,17616471326344
0,175038714069081
0,170660429103411
0,178817836696871
0,171883866901093
0,170634601176799
0,166631374546518
0,168850397467457
0,170801273330938
0,170581160092993
0,165147900694202
0,164948864442129
0,165275791752153
0,171430247077321
0,167260431123759
0,164538284857158
0,163142993469789
0,166779959076258
0,160068827382031
0,15964567107235
0,164403802181843
0,160708108619182
0,158824767885774
0,162929622079462
0,159424595294237
0,157867870175383
0,157655504450081
0,156711029799172
0,156859189743703
0,152337131109366
0,153413262308404
0,156529018407158
0,152807703097625
0,155978868205817
0,149298637009662
0,152881252200184
0,149721328925145
0,152211566509987
0,148370747001925
0,150258915236291
0,149902571635314
0,148420278379394
0,146501390534088
0,146836592395341
0,145000201383329
0,146727061197508
0,141983718665325
0,141536142830967
0,141545246735294
0,144518158936546
0,139646482411505
0,141539301964098
0,140002523941232
0,142783868053299
0,140636458305386
0,139143743550659
0,141816611939843
0,138156036649128
0,134843783592074
0,136171135978318
0,136567442654936
0,135827599336042
0,133963870115412
0,138617894805657
0,133683961857697
0,134171023474843
0,134998505959746
0,133908084145504
0,132974350748753
0,131608569736705
0,129704658167499
0,131103710553357
0,130208594741875
0,129542578679869
0,129755733857198
0,13047695750039
0,128982276371603
0,128741405388383
0,127366957161872
0,126575519025727
0,128171436450832
0,129115037431706
0,127101135109051
0,127993000632703
0,127689540549268
0,127854934882916
0,126556110554381
0,128031040476638
0,123304254675805
0,127391633611101
0,125773073721997
0,121166395134334
0,122846093006162
0,12309525617181
0,122580463986487
0,123639050755499
0,120792561863502
0,121593908409911
0,121613893727839
0,121230729923746
0,118368404660758
0,120559239891838
0,122555464779083
0,120792832401673
0,119358477035702
0,119677879409674
0,118306041333483
0,115642907698788
0,117761743260556
0,119317100455945
0,117710126833377
0,119081225574551
0,119741169732784
0,117389091171493
0,119007730654418
0,119073836934007
0,116581348556119
0,117833540058028
0,113916699259126
0,115572920014799
0,117351545407267
0,115527070001824
0,115086349931118
0,115769219236141
0,114994255478564
0,117195046678373
0,115123763859663
0,114720916170677
0,11442306155349
0,114743184703199
0,11087646572516
0,109368212085483
0,110532896945843
0,110890949164191
0,109462451873037
0,112070562023806
0,112036501340436
0,110639164398273
0,109547950184103
0,10952038358862
0,112022890673733
0,110983578574695
0,109196796605052
0,108487693786095
0,109200359548212
0,106198741235603
0,108619558621459
0,106966217096195
0,105602615920159
0,108022403548238
0,108520543331251
0,108876884023004
0,107829702755577
0,108077059512714
0,107894941523347
0,103811112542968
0,10558192220888
0,106415316238201
0,108209781204931
0,105139217427711
0,104385785163335
0,103967194395026
0,10777377505683
0,103843813209029
0,105030988976959
0,102912709509202
0,102671525947609
0,104765446507005
0,10343907255742
0,103415569480455
0,104616114560818
0,103177325270735
0,10160700719795
0,101879694515841
0,102747761890086
0,101750470455047
0,102829138392047
0,0968757124879546
0,100171539206751
0,103099605231376
0,101026336608153
0,100908289577526
0,0999233852391268
0,101513959355155
0,102369574309667
0,0972669204635423
0,100072864126389
0,0996870626686886
0,0976859242853244
0,098422165370031
0,0959471859037251
0,0937194528695235
0,0946949598293344
0,0953594096876089
0,0950639151669243
0,0943212719801227
0,0942042967690112
0,0904358830574154
0,0932379756282579
0,0947231659154214
0,0960720231827386
0,0923823730450676
0,0912693381458659
0,0898125036055717
0,0915639783134062
0,0935347772178819
0,0911792090618106
0,0889023722286198
0,090953560285998
0,091911537381118
0,0912078792027048
0,0886509065283641
0,0909414346660322
0,0900326029895886
0,0909845301002956
0,0893158127900865
0,0907881140615377
0,0871567211755873
0,0873710833785273
0,0856349717702675
0,0851252191377485
0,084922526037001
0,0868592753901704
0,0816505576492947
0,0835281884484088
0,0831427121877481
0,0811468801841402
0,0807239627750502
0,0827363459007643
0,0797285039369365
0,0824018543590425
0,0802318317050764
0,0817224229432892
0,0811497719895405
0,0821436937316233
0,0787193726756468
0,0804687890231368
0,0808381960402155
0,0819758746391215
0,0789277446893448
0,0814646898668352
0,0774039905911167
0,0797880067590492
0,0776553567021935
0,0793393403108408
0,076246593235491
0,0779196360617499
0,0771720313659291
0,0747627756408159
0,0756603092105258
0,0776825166965766
0,0741092062409517
0,0768931502060447
0,0740431346738049
0,0747929317098101
0,0739117672795676
0,0741598876794883
0,0746342757447547
0,0774084656673706
0,0747920024644338
0,0734775493410634
0,0688849559321931
0,0711566865096639
0,0714191815352167
0,0731714984532601
0,0685556057607654
0,0705292239265065
0,0686303327059781
0,0716731637667622
0,0703185897449561
0,0709664707473499
0,0663524100517012
0,0709063820317612
0,0684898292500253
0,068584719377816
0,0697172029823113
0,0699066500301577
0,0662781699067681
0,0689602854823711
0,0670036451499051
0,0694868255154769
0,0668757250447839
0,0697090336783165
0,0661105024062998
0,0680581290001744
0,0650948219608226
0,0688095422933898
0,0648419296282026
0,0686152036612543
0,0669174528432047
0,0696585734148797
0,0650662575887359
0,067236322322803
0,064796503928429
0,0693096905800817
0,0656293281579186
0,0660031712294379
0,0628593030683873
0,0692261866090492
0,0643411125682088
0,0672553652799919
0,0648016337121041
0,0731608548886177
0,068561513918291
0,0716713504091641
0,0688747694614033
0,0714415249124588
0,06811790399812
0,0713617575307465
0,067440109549071
0,0738971328628965
0,0690306305038966
0,0696947317453238
0,0586831418747885
0,0668080648576652
0,0644446766678669
0,0742928450779134
0,0591314205547567
0,0656599597885808
0,0617190868780258
0,0678554320246357
0,0550193237251502
0,0721436071431864
0,0568331326793366
0,070435758249275
0,0597129997263927
0,064913187789825
0,0669491881816542
0,068259661707848
0,0644987227641314
0,0661633661175222
0,0500402655378328
0,0663041820128194
0,059253401381682
0,0612592125728822
0,0537895397342442
0,0672732907415743
0,0509960381433063
0,0630776667285491
0,0560861221767269
0,0623103405280507
0,0524932025109753
0,0625134414039988
0,0575170602142897
0,0621824157449868
0,055929115114533
0,0665199159948335
0,0651885420525902
0,0646956723700885
0,0615248449723695
0,0573266297580204
0,0608716517145659
0,0537704544066702
0,068407860520951
0,0642256086168552
0,0766284123317147
0,0440113268325346
0,0698081295992378
0,0448663207217665
0,086425332896093
0,0423686603731662
0,0812917642526799
0,0319082582513941
0,0963038545426162
0,0323101047350647
0,0874952544282281
0,026727574164117
0,0955956171529827
0,0331016176468408
0,0823356662787347
0,0413468740696164
0,0734623203687865
0,0467211912475127
0,0647522842649826
0,0596044567362573
0,0560475364272497
0,0643323776586869
0,0514483556394808
0,0650316904480995
0,0514802266035789
0,0594909557625723
0,0593792897250089
0,0550583471610457
0,0618805691978617
0,0491096928712237
0,0599778485866788
0,0508475957918631
0,0591751612181441
0,0567978315415365
0,055625616521947
0,0567179521518824
0,055861607265189
0,0552102700940228
0,0556909819648971
0,0548208833538948
0,0558120557888711
0,0521442361017519
0,0577140488447723
0,0550138338140347
0,0568300150530256
0,0530017773054927
0,0538288309224284
0,0535221679960597
0,0552158571388593
0,0517426393083864
0,0526685065347974
0,0537915318716221
0,0544655020499275
0,0532073302819279
0,056253698352354
0,0513480623367197
0,0549284526030348
0,055540529664698
0,0571879786849668
0,0544485348801008
0,0540854983243052
0,0533667168780127
0,053471038229741
0,0529254070808727
0,0544935145102341
0,0519743785512835
0,0528688421536911
0,0545527453336127
0,0540202487574693
0,0531818374526601
0,0545382953639514
0,0543588395297043
0,0549347275667027
0,0519686577108807
0,0557581983574564
0,055686287773791
0,0539582605978198
0,0551788816276197
0,056240206868994
0,0563557929227431
0,0522801406557104
0,053371224798406
0,0537638583377357
0,0543908357795378
0,055285049183356
0,0526421152270777
0,0554069790061248
0,0543088410722584
0,0540466406713356
0,0539870929406562
0,0546166495602009
0,0556863579273252
0,0547398911675725
0,052314450427645
0,0522701472337636
0,0548404849739765
0,052677307932902
0,0519426367851145
0,0511760471754541
0,0547710072489206
0,051231143336379
0,0541031038743286
0,0521533876800697
0,0541894667740624
0,0529978557913343
0,05433752153426
0,0537243005529576
0,0551078903375966
0,054639382629777
0,0554669397099602
0,0547204773782845
0,0564636015419024
0,0551246464988405
0,053504092797134
0,0533201044266559
0,0535068994514984
0,0527445522329865
0,0541237700057937
0,0547794483816967
0,0546470786806479
0,0548900332131167
0,0541560464340962
0,0536828460876123
0,0545541778557058
0,0524714518059281
0,0555670349140264
0,0534883005947947
0,0563948656250201
0,0568500546370558
0,0573862442497466
0,0561734084829376
0,0573564346783906
0,0543179430487574
0,055896215320509
0,053441811371877
0,0534669674175391
0,0538037581740146
0,0568224118478229
0,0545711322685449
0,0576868155956528
0,0569850276337041
0,0547767215383984
0,0570107006855521
0,0578583740242126
0,0543178194574548
0,0579451310517045
0,05342313185445
0,0577394840701845
0,0536015378323478
0,0556269925605256
0,0549112145704141
0,0566152548269289
0,0561701776516193
0,0565167972286655
0,0548096025209572
0,05842127932145
0,0569932783490499
0,0586676923052676
0,0559414999817455
0,0572039269818378
0,0563140119366147
0,0575507990295218
0,053703598155058
0,0563203253940531
0,0544652691040802
0,0580182209059522
0,0566672038722052
0,0581139361363835
0,0584747882815407
0,0588348762236776
0,0543568835185903
0,0584807567125974
0,0572211427518733
0,0594908014130054
0,056985145535522
0,0600190962680201
0,0564533948126145
0,060515688898778
0,0574372563776395
0,0588191906107334
0,0590405204019788
0,0571987564530946
0,0556806940207304
0,0595463324944923
0,0586330531556986
0,0591352513504894
0,0585569513196418
0,0598085452064922
0,0576298559751625
0,0599398368814806
0,0575432670880791
0,0572486918379474
0,0571735647019952
0,0584394387638033
0,0583978463662923
0,0594007170401578
0,0579436385145124
0,0618669999778124
0,0597402552195188
0,0586493599758642
0,0583742107191518
0,0586280000975935
0,0546276124301729
0,0585937350936977
0,0577397030432523
0,0577303013250105
0,0578602425559227
0,0606705043290405
0,0570457618496123
0,0582966827694132
0,0535388528436575
0,0572001992368614
0,0554753304243922
0,0579185136492045
0,0559360779749015
0,0561189821189785
0,0539538456030018
0,0561080694797361
0,0546751841912092
0,0585530473307988
0,0569710249498325
0,0564247683848457
0,0572978499784262
0,0571793210864597
0,0533319726076316
0,0567648088740263
0,0541690030743784
0,054435151724199
0,0542423554668037
0,0566097246036794
0,0551540562194371
0,0557485125403453
0,0553876997811266
0,0579694508906786
0,05380229559254
0,0567235617626007
0,0529680299210528
0,0546531415971094
0,0559570819642344
0,0556421261924944
0,0556038820876191
0,0557043900760666
0,0530816281662952
0,054785437339692
0,0525864633735067
0,054830628261867
0,0533839414181083
0,0579125257975125
0,0538709676578527
0,0542895542650533
0,0532906439003405
0,0544942307112715
0,0533340888605113
0,0545297055797875
0,0523259991889711
0,0534892799729421
0,0526593607678325
0,0554694097792355
0,0520162915702507
0,0539274418527796
0,0512928548646713
0,0531991075272232
0,0536396121122828
0,0528120538065808
0,0515259640730173
0,0544793649031406
0,052706785707882
0,054963586551189
0,0520637699553229
0,054848088338887
0,0511668847090128
0,0530803867345508
0,0519943022005303
0,0537090912129339
0,0507021353599728
0,0524489129093074
0,0523487467947807
0,053314627268573
0,0525971218540312
0,0529895907474175
0,0508557546627445
0,0529784542330761
0,0536506310224822
0,0568114762353152
0,0503044793649474
0,0528065900804288
0,0527651105969525
0,0551710304645523
0,0518597990695538
0,0542151437991326
0,0534919515882525
0,053600341912218
0,0505786973367513
0,0537788436022025
0,0509225760168261
0,0519811482880497
0,0509609780461684
0,0522687201179784
0,0497027775047989
0,0527714834907152
0,0512580319629896
0,0516874238816207
0,0521037679290976
0,052334560456915
0,05050895877186
0,0514681153102227
0,0510977050527626
0,0515074249615511
0,0532849848699835
0,0535013088359758
0,0481217381144806
0,0544633371636298
0,0516624085964383
0,0526516906205901
0,0483225126486208
0,0515707893673062
0,0478223099323135
0,0502469949292739
0,0482951477083342
0,0484989916305706
0,0482603923319532
0,0518274273245266
0,0478125596993276
0,0504773849707069
0,0487007184743161
0,0512523661613655
0,0494953917165161
0,0501419924053346
0,0458869714727582
0,0486221213283637
0,0470120761077759
0,0504694658309549
0,0464629919374522
0,0523653893074984
0,0446863412653571
0,0532579375384231
0,0439027021031566
0,0505192323792284
0,0441180965038836
0,0485873807126723
0,0464325743389972
0,0484444473473714
0,0439507780528069
0,0472440537224526
0,0460844012252039
0,0477740427841291
0,0439285234679451
0,047777887131871
0,044684910480836
0,0457750948557493
0,042804629167496
0,0452636598802033
0,0417964120117884
0,0449249058178365
0,0450083613477924
0,0455180655744976
0,0410748165397795
0,0461961366003655
0,0417281658244561
0,0468633285360935
0,0427679852207064
0,0469143592363742
0,0506874301400311
0,043674777405881
0,0454241077664655
0,0496362451262217
0,0474187570828639
0,0426302298868026
0,0430181892074491
0,0421229570344829
0,043530667213108
0,0426663742772525
0,0436611644180249
0,0431752277967429
0,0431667111071755
0,0418840288584022
0,0420419572397588
0,0432439150132549
0,0417112643408662
0,0422759880344432
0,0430838813691263
0,0444206325773867
0,0412576900258145
0,0405712552005622
0,0408833698100596
0,0419036184823166
0,043620794331975
0,0414005989762049
0,0460532810862775
0,0446754217780151
0,0437768728664062
0,0414274133457991
0,0433476112495201
0,0427190560256945
0,0428022425571261
0,0400890654154326
0,0410266661814357
0,0436010432990055
0,0427511855421614
0,0411463097527323
0,0400697788934268
0,0440543685580699
0,042525005191012
0,0427141094910366
0,0408080869336358
0,0394029388803376
0,0407422996004431
0,0394320564690052
0,0398877594667528
0,0391035604412
0,0397839474917739
0,0409114415679671
0,0428073437357256
0,0407459597317445
0,0421172342437376
0,0612560784175043
0,0348493635645402
0,0465771682287636
0,0369366015892235
0,0429602946798315
0,0383769455513739
0,0422087139244199
0,0372067095079962
0,0432352019433711
0,0370221528278557
0,0441588605139982
0,0376474612999368
0,042777474965658
0,0353165268790589
0,0435196655235793
0,0393932822424628
0,0419911200144862
0,0364324933199618
0,0423877146963635
0,0367279853041671
0,0434840242096008
0,0476365607934584
0,0447982485585317
0,033933773546996
0,0480466802480583
0,0319112445187442
0,0571075170770496
0,0396329600316674
0,0380732540845654
0,0417017021669322
0,0397015134487814
0,0405197998008987
0,0385301091517579
0,0418968451369009
0,0390202498359813
0,0477934858437626
0,0357243136690175
0,0445299943611854
0,0386542757623196
0,0402227053303603
0,0419560819355197
0,0421919016753214
0,0384729393839977
0,0386795602479554
0,040240925112591
0,0383846545710039
0,0425777544888589
0,0384846865108128
0,0409982381855583
0,0388234335801265
0,0411058874232344
0,0481736702113144
0,0358661987722376
0,0399404593400535
0,0364672038894374
0,0431820730345644
0,0433958856345709
0,0576167538794872
0,0312026842670519
0,0447605069877145
0,0365488804896747
0,0396838462020105
0,0384736264902206
0,0400588227738758
0,0391397969958556
0,0378868226516243
0,0391335425282232
0,040609817612623
0,0417516165619499
0,0398665958668193
0,0407827912561265
0,0386209412750426
0,0409381056090017
0,0384274231318008
0,0428469478641037
0,0368753639622132
0,04415257890916
0,0370849834677284
0,0511343893591106
0,0570589504627492
0,0407683236568433
0,0493829775481782
0,03745984789464
0,0445037180254048
0,0368514271058381
0,045665800717424
0,0364310594906368
0,0451599984907012
0,0366842331159351
0,0426538142901313
0,0372430435594082
0,0420378514471134
0,035759434461061
0,0435516283666149
0,0341328439515029
0,0431102048820575
0,0357109908434874
0,0437837217193945
0,0329932573859036
0,0443750181620272
0,0380707450658324
0,0489354985122831
0,0412658331314268
0,045375824583092
0,0424012219049559
0,0462288851033033
0,063525582571818
0,032637935640655
0,0557412783570509
0,033418207042418
0,044031696476721
0,0374542473598734
0,0438028369893795
0,0452030338747106
0,0435867694060434
0,0355698401572419
0,0445109943258991
0,0408725928339738
0,0435121838010455
0,0419063171042049
0,0472747065334392
0,0586072189917689
0,0474691972653254
0,0394163860422468
0,0468001504360254
0,0332150536918976
0,0676382415835225
0,0340539073422426
0,0452294893732902
0,0439230807686755
0,0417525896049983
0,0420826125116033
0,0415206514854325
0,0462286840217199
0,0474579555050716
0,0440538549055061
0,0388041147139994
0,0465413864976777
0,0390042393193639
0,044622362606505
0,0461316773375013
0,0459477053519277
0,0519224234853783
0,0394486202393192
0,0446161722017204
0,0462275244471984
0,0408600007213982
0,0455159766031235
0,0422404825180051
0,0477802896559332
0,0442108239851128
0,0553010164641394
0,0449186963299917
0,052496196963135
0,0510410756725807
0,0426045063088214
0,0507029588988529
0,0540240724292066
0,0445773265826113
0,0522130013345431
0,0303927188634718
0,0858492865294769
0,0315228897816566
0,0695737570111593
0,0389026795316058
0,0522914751131249
0,0398988867198419
0,0540210257044469
0,0378609855237281
0,0529895044067927
0,0536886587480912
0,0416612041830888
0,0572999929507471
0,0410751503836661
0,0611232144833278
0,0435157514050389
0,0549850969763854
0,043665706101175
0,0514970529812003
0,0427988179986936
0,0645470623999518
0,0409503038712657
0,0838336095679716
0,0539201450693995
0,0483680862737156
0,0640559781779279
0,0474757911985506
0,0723279774475697
0,0551686057504141
0,0486730596937666
0,0576626777348374
0,0439051775109576
0,0603078498155054
0,0452799365509751
0,0747024492814527
0,0587400143258714
0,0483711313720595
0,0613064674944884
0,0554422854056274
0,0655230703511081
0,0627432417492305
0,0481943952686066
0,0565652908223413
0,0566573820153708
0,0667391177584625
0,0536139574911454
0,0967406502367739
0,0401855400866998
0,104484176050203
0,0508897537818916
0,0826919333029432
0,0534314821891322
0,0771197857936972
0,0589742733275625
0,0847031209820862
0,0529985437115583
0,0785342934567879
0,0530119773000827
0,0980131953550464
0,0588442773293989
0,0767859889030984
0,0688506209108585
0,0764848785297528
0,0863610960588891
0,118327750515037
0,0682551833508484
0,0834737968936392
0,0738518722332317
0,0930189548850278
0,0798934575395276
0,0745696730150293
0,0789376992194967
0,0749410025194569
0,0784246562656327
0,0845110234837322
0,0845597788623258
0,0862263077355551
0,0740619455067998
0,0928772887178039
0,0763218035479099
0,126020921390786
0,0955538812443876
0,114614219019546
0,0915450777664935
0,100726686921179
0,104968829246509
0,0892347459538238
0,0971693959282967
0,090612786004264
0,0975689876752043
0,0953025282030888
0,0964910808965288
0,105980658980717
0,0960703441532309
0,123114008832879
0,0924169520276009
0,131096822772195
0,0935891866022445
0,12300200813355
0,125528953793063
0,185179278903875
0,142997054251363
0,0998100565503403
0,147319596507409
0,11122294029041
0,183015466547441
0,128611363678364
0,131571891265576
0,132875831039917
0,140802968681578
0,139337281183435
0,157760369427666
0,151183361593041
0,161019061375796
0,15794795945152
0,167470579742538
0,168638101258822
0,251746724391897
0,192114439120576
0,193711888902137
0,181354882091071
0,204283674630023
0,200260994825128
0,19818160635349
0,189403394916718
0,220578408968935
0,197796907003826
0,265177670436621
0,207580421585741
0,225757433850804
0,232287298510283
0,245013145741966
0,263520720565018
0,241589155905807
0,299669981308126
0,234396667076391
0,273450945799497
0,251661750472043
0,281393334998643
0,270849529767442
0,296252840380255
0,287481805224603
0,283144080214255
0,290134970291658
0,289632888329911
0,29903299572053
0,303188424521716
0,306055716019323
0,315703145243302
0,324618771491854
0,403288596071347
0,272283500136904
0,357577888902731
0,291524165998646
0,3296938850274
0,305060558680283
0,349043444624968
0,344705069677102
0,31128916824241
0,340785609277433
0,311981917900942
0,316210873396623
0,322984909248642
0,323757465212544
0,325728015843133
0,318518875943861
0,333926193207185
0,311933756860813
0,367298287579205
0,279460743066403
0,41549869208596
0,312775884952157
0,330187998199568
0,317868395378777
0,330137180123103
0,309913212830226
0,337257338832377
0,318415225793453
0,342309737220888
0,321894885329929
0,318360918009732
0,325825739217173
0,333870289439318
0,350962778720362
0,313056270535849
0,30888848094403
0,322135507455324
0,306209290163816
0,334326611107879
0,313818178337357
0,355392844179573
0,307689066101578
0,305536367805854
0,314433304896177
0,311758036402996
0,306091813290441
0,312533932904549
0,315453398757529
0,319072440341633
0,306563696922608
0,314650957441046
0,30915397760708
0,303183348807183
0,312539301384939
0,310132491193397
0,318473112082402
0,30511851314544
0,314532517853357
0,30611461400493
0,309854884383793
0,307132615347381
0,310668265825958
0,312590274631887
0,312341313440958
0,307429823493932
0,310515297155297
0,312019667174887
0,313938936584075
0,304534353368897
0,311279308950555
0,307370631497899
0,314126514519493
0,307501396303623
0,308313124923384
0,309760047109454
0,306534573053634
0,302443784554067
0,302739751709094
0,294733443626168
0,294490016177436
0,292780587765873
0,294506492287573
0,320548592441795
0,292702624751526
0,325508984903132
0,273820918646193
0,290475852393282
0,280105290548683
0,278937436877664
0,283039235106351
0,287316188386236
0,298358635210233
0,261394691163701
0,262153576722833
0,267272367471399
0,26023180145436
0,267246107459975
0,254729363086942
0,243260979562675
0,272675219353768
0,23010493021076
0,360438306687675
0,255077179455043
0,30198500969293
0,236445928640897
0,243484552148984
0,239555888308331
0,257405509153715
0,237594447779893
0,216613990314026
0,245727006769861
0,203540344148358
0,244332762661275
0,214134742848393
0,21826330894358
0,22579387563783
0,232804617490084
0,235777651539445
0,229542577760722
0,220204587906819
0,23695957018237
0,232939992712849
0,242876544577439
0,269212860978541
0,212169469402688
0,208768082702703
0,194637286497434
0,209350463478523
0,219099836436242
0,194550729711717
0,218051082757238
0,181715532797902
0,203744664290494
0,184039051144237
0,209674182230626
0,193048637132463
0,197757439849672
0,202730327174722
0,181920863854812
0,207535626088501
0,163149086316166
0,235706659969646
0,186901056242047
0,216679467932923
0,174466072834347
0,195560962398893
0,187189526168284
0,213964529342968
0,192715252496905
0,168518346164032
0,178487096255264
0,180412779690878
0,174258960976295
0,186602423088116
0,164533013170414
0,20475375542517
0,197145029749668
0,225768594199595
0,229076093500004
0,195449143614016
0,172863772155765
0,168692930569583
0,167235655050169
0,183540462294814
0,16269573322579
0,197987213656598
0,147775980433885
0,199412513697602
0,183099074685251
0,194576400794597
0,192162610392457
0,181121347481452
0,18328919823366
0,193065975872008
0,189257803580251
0,226434464850605
0,206199828179602
0,218659802804714
0,196991950839725
0,214775657182759
0,211980097220307
0,205022741992017
0,216914804325536
0,212866515609345
0,227324654309469
0,227632054516357
0,235267130836768
0,237012749524779
0,234328246247294
0,253994728473254
0,265589049462497
0,262464614229118
0,281945202065691
0,257095878317938
0,338283811409272
0,26692601684268
0,311162276787
0,285250836377558
0,296348977626994
0,302923169253693
0,303857192680422
0,318894684510831
0,325073639611848
0,319284778553107
0,33556674674825
0,314129284331621
0,343738286099541
0,324332458019755
0,360758649411346
0,34388272320316
0,408564662333724
0,347080978500564
0,398413978611509
0,357936511459737
0,351505459643675
0,369278015288934
0,357870120894843
0,372283390888899
0,361939380455142
0,360879291509011
0,384970671348208
0,377385658933872
0,385037328730414
0,367833235512858
0,382355763759077
0,372814030064343
0,379303902946612
0,380241915180333
0,383309874927903
0,390370836722166
0,388647243353232
0,392121669459116
0,435298581085787
0,426313736944091
0,429656489672441
0,392106246254563
0,422515137263282
0,416768784421373
0,419411457070328
0,430216634692387
0,438405704082767
0,441397148938799
0,433681661426715
0,433200544917649
0,437646495618471
0,435802157236717
0,474461417111832
0,441854322890674
0,467715972975806
0,429717549365663
0,479767757339724
0,476436975500734
0,498905416409221
0,480735430820108
0,471658077664973
0,480679550577743
0,458247590713316
0,469565911625267
0,463694787984784
0,480015829995415
0,467424124448986
0,480316711725326
0,467699047390749
0,47471787539678
0,475414089238601
0,470252922668736
0,477450416392636
0,480318727012979
0,477457238256796
0,459037568563561
0,47290923785566
0,457276396363238
0,481857447224247
0,476962277609445
0,481901102052423
0,472809289484126
0,460533353544312
0,480285724281191
0,487484426119259
0,466168463526336
0,464258347094072
0,456398737414948
0,474045851240108
0,463718119390498
0,466584661565458
0,47746838894368
0,47449950181791
0,484561126700345
0,468777027636651
0,478793178276497
0,469605119248607
0,484872843413418
0,472724500966627
0,490377086509678
0,483611776256177
0,498385575964526
0,488804622805959
0,498416874242424
0,491945422112683
0,502208140733947
0,505193691708195
0,500744278233119
0,493164221226961
0,486505524783031
0,483821529444043
0,491036555094792
0,491620447343093
0,48419747750914
0,469464618528227
0,478560102359611
0,462319600726041
0,495362581643228
0,462965125260681
0,475225588204072
0,461594690698874
0,463890184329629
0,446681371950459
0,449960708798295
0,446160350045968
0,443329125656579
0,442194430607797
0,435745931997916
0,436511331828263
0,434148387646567
0,432573243827311
0,434471184295193
0,432012671665472
0,428130156573567
0,422304472823334
0,42713923742614
0,423285484679449
0,429596452568267
0,423549672508624
0,428736723973583
0,416465844977585
0,427437161976973
0,429791458449905
0,438527945035126
0,425304859651564
0,430139431713245
0,43349565836068
0,422082115031734
0,425032399988107
0,413958975735527
0,420927982719572
0,411947865455881
0,417613232856809
0,412990359225163
0,416156988980212
0,413087021917399
0,420648664299919
0,415604021256048
0,417069856471859
0,411601597751757
0,413781487965186
0,407228571107714
0,416266623786289
0,414959813207624
0,419257319444566
0,413098689117019
0,410720936875714
0,418787660395704
0,408753676261248
0,416852065066987
0,408701367460478
0,415096868645644
0,411702105934954
0,411741668436175
0,408299705295941
0,409451607938568
0,411870539480592
0,409418892928506
0,408942409172356
0,405952683775281
0,406307182344999
0,406201438210809
0,403591478372863
0,39990832844731
0,395638428256666
0,39363249119234
0,393592413054117
0,388117010237806
0,388444764333439
0,385335773022968
0,379306236378747
0,374678193787565
0,37124715624788
0,369443433335046
0,365824505539065
0,362945423075397
0,361874086965634
0,356802185628992
0,358713404537974
0,355857843667488
0,355031344984871
0,351314590857343
0,351005737898439
0,350130591430418
0,349747414983123
0,34837605492829
0,350480831834277
0,350021800656429
0,346198190193736
0,34868777813389
0,349584455432546
0,354569264016479
0,349835923366633
0,351116987822444
0,35067816810777
0,356942699074118
0,357996891799204
0,360925460451336
0,356466501403975
0,361191657805097
0,362485471521926
0,361101348019152
0,363490776359167
0,363716533943127
0,369532009295789
0,372041044549889
0,368280267278898
0,372444683422713
0,371314417719898
0,372185551113433
0,374290878395658
0,374007535651516
0,373840886636583
0,373446057425182
0,369280445052452
0,369650965845
0,371659920085533
0,369081626408897
0,367155893002362
0,366131722330956
0,363847827400847
0,364050685801705
0,360520545561028
0,361456916952974
0,363691745753014
0,363300010288512
0,361271520967698
0,35967470508242
0,35806719679507
0,356078421149246
0,355872099456011
0,353492058770954
0,352664646231894
0,350341692402037
0,350706936300022
0,350008079528619
0,34815502807163
0,346350972966431
0,346761456085992
0,345998327373308
0,344365475358312
0,343278991190463
0,344968747359873
0,339870378604583
0,337471889282018
0,340059393988119
0,337073536809538
0,334956725684202
0,337712909899867
0,333939319102939
0,333145332587495
0,332724759233699
0,329676302936313
0,325604593412797
0,325614751595595
0,324625545309943
0,320578533561534
0,321754781284542
0,31693936307009
0,316214146937279
0,313309034761405
0,309338737473717
0,311507692847595
0,310702671898538
0,304410130688704
0,306118410031966
0,304534697600904
0,304521239181737
0,304332162072041
0,302912120740019
0,300692711911209
0,299616009099487
0,299108998422696
0,297546158669032
0,297709203755554
0,295913632809899
0,293358899289218
0,292583611204269
0,289526678770885
0,288699605213022
0,282760199795185
0,280743011133383
0,276872945372458
0,275920699873716
0,271695587423398
0,268124241447289
0,265643703959826
0,263084577465859
0,264414598764796
0,265761798311545
0,267171983675559
0,272586993947902
0,27651829768738
0,284403416420802
0,290879766362937
0,297839186315713
0,30614182365904
0,318198173636305
0,330507872535311
0,340884592624503
0,356550420092421
0,369218531424576
0,384949719997375
0,398574956533329
0,413062956466497
0,426316083936506
0,441560663867903
0,460954317905505
0,470644863907922
0,487307593655608
0,499643960981365
0,518504336032107
0,527813909408808
0,545108301249377
0,55828193447557
0,566153239119256
0,57871445828504
0,593815830916058
0,606716209127216
0,619474027180239
0,622410485689469
0,634840062146424
0,636626664375447
0,644901774850358
0,650045172876823
0,657513822721149
0,660652604517787
0,666573772426983
0,665428662454548
0,667202685183686
0,663279720022494
0,665534239307483
0,665787411842135
0,672706172331951
0,669439847081662
0,672885927412624
0,665465136564032
0,668820502439275
0,671864470455009
0,669337669296127
0,674407659046786
0,678290767859503
0,678909740879789
0,68074940748678
0,69026857918803
0,69737716452629
0,700879513729041
0,706419152326304
0,706575268019456
0,71435926536732
0,721936754456169
0,730995635035047
0,736337378039219
0,755226716371507
0,757660698360467
0,771240395916381
0,780641244828104
0,792888680707029
0,797389257276512
0,807488211094935
0,815835384428235
0,827579059699784
0,833839428485998
0,840004130899019
0,842238320839498
0,833661038448211
0,838735965736307
0,832133188390369
0,825434849708297
0,827809224362434
0,834030531904617
0,83426536473585
0,825702790752152
0,830236607351157
0,841294744912525
0,828526637094263
0,843393794562641
0,837792516646536
0,865327660746567
0,869522029072041
0,882210738030544
0,894174893697122
0,905755880956708
0,920513041402152
0,92896155546178
0,955174402182726
0,953043052692486
0,967424615536817
0,989705510056189
1,0034004072155
1,01176046891311
1,03881310963684
1,04117521117262
1,05714158412417
1,08247427984744
1,09094119917012
1,11032797533632
1,15250852765152
1,15129907780816
1,16341701229797
1,20394515360042
1,2419173643247
1,23345232885691
1,27325450057523
1,27637199345265
1,30116715426251
1,32737890853266
1,3073618559437
1,3246836901753
1,3295396412623
1,35785277567326
1,39202851794287
1,3482554265108
1,39993506121462
1,34913644258598
1,37532209568998
1,36194796067582
1,36419632072974
1,36679742084957
1,34809557814039
1,3472425274638
1,36349660621219
1,37070933198465
1,36729993039617
1,35873926022975
1,3355456645877
1,34841893595144
1,37003345210371
1,35405969354563
1,36139833696791
1,37480522736096
1,40643583749691
1,36796971964948
1,41026402155023
1,43583218067896
1,46920449775889
1,44155196042825
1,48741883138323
1,491113266809
1,47817089069043
1,49885540035939
1,53789230931763
1,46691527389625
1,50923403221539
1,55223144549165
1,55608144213193
1,54911158405392
1,5791479806344
1,55130370472011
1,53532945699384
1,58640824669371
1,63185147839698
1,6332653271886
1,61619758079536
1,61483983626473
1,6158762702917
1,63043798060428
1,55983231876292
1,59259002884026
1,58833403559095
1,64934913297652
1,5686129868692
1,61243926419042
1,61794827488036
1,60521226923731
1,60463207537666
1,55176118466381
1,59652346274127
1,56825038567285
1,56633285984031
1,49834160490904
1,45935835831697
1,42980577166324
1,41242121451534
1,36042389041144
1,3470355867394
1,33629889718543
1,24155787559605
1,23730516731894
1,21585609830816
1,16286027475237
1,11733430216468
1,08344715759562
1,07274229338001
1,02593099061692
1,02867299509795
0,999570318659193
0,987156121128548
0,971560860922747
0,971795944860899
0,962039513216476
0,936479790823693
0,948935361313581
0,929869148716949
0,925389194972211
0,904832953069425
0,908586903651116
0,885594074261413
0,866356007134895
0,849988726219611
0,835135053795657
0,815505865520563
0,790497672101913
0,774789602593453
0,754839378448356
0,734857531153605
0,705996356784375
0,684508834060449
0,664874011448972
0,626851704806135
0,622231727153824
0,587541987780623
0,559307919446097
0,540267113056249
0,511599359085367
0,491233725021881
0,471163411863514
0,445121111484958
0,431191733987013
0,408678684273927
0,395104463661622
0,381365776588368
0,367375267870639
0,352979461989777
0,342450690413324
0,329162483707946
0,319486182893377
0,311722105360814
0,305084745577173
0,301116867805242
0,2965375416842
0,291743864122476
0,28804545542484
0,286049651059295
0,285742092472183
0,28485838441654
0,283224823797053
0,282704438996458
0,279371123535423
0,285326256931225
0,288091792127811
0,285848093769141
0,287967139416103
0,285867466638102
0,28994383829039
0,289376026030505
0,292844851539361
0,292244730809124
0,295057825765256
0,290590188141519
0,289901661004342
0,290523146699854
0,291755102563137
0,286917572844392
0,285475769233572
0,283124580747968
0,283105169201962
0,280118401193672
0,279251266000761
0,279768233469928
0,28393464438103
0,282895414413398
0,28280111633518
0,281756485814409
0,286771226008098
0,287990795273827
0,293033196919821
0,291164118492086
0,295439315862584
0,296132007947891
0,301071687362958
0,300071362176771
0,296601440602212
0,303393735490792
0,305646143372232
0,301855323707411
0,306477800124467
0,306568860333175
0,302458979270866
0,305433248020818
0,309389296089218
0,310012828422917
0,310436695317135
0,304993185091538
0,308545794230916
0,315738051644086
0,314578839160377
0,311903464989939
0,319000092135553
0,321602426232351
0,323936239224694
0,327388765621397
0,341414283031133
0,344738031152603
0,347461407599705
0,359971978511793
0,366159225324362
0,373571875279815
0,394867780790992
0,395170299288406
0,402255762865379
0,409751537708578
0,410573511600356
0,417026204238118
0,41063501466231
0,399934093157849
0,405430333607916
0,39301276455539
0,389813593111162
0,376567139339407
0,368526090564139
0,370895878696655
0,361475602413432
0,353907556993864
0,349225209271227
0,353125500015233
0,355143843520468
0,351585185358661
0,352726612023948
0,364976293179205
0,363168036228847
0,357471822829891
0,360537637784837
0,351970554480333
0,353419961308446
0,35289898720736
0,349582602977729
0,338974550568701
0,333052247635994
0,337364864363426
0,337114177543617
0,330075129164598
0,329436322869507
0,324110571866117
0,334529094013775
0,323757057821019
0,309863349686545
0,313173280089575
0,316723842813377
0,304767043048344
0,317310056126662
0,311100594886402
0,312812234538926
0,305265639880437
0,304924326030911
0,299985692910992
0,304670845027745
0,301243968848867
0,302168932635009
0,289572918368639
0,300529971587547
0,28879661935377
0,291729730648519
0,290088649059669
0,284357210405258
0,273786930577044
0,280643729338294
0,269987752445186
0,279145643485666
0,273755586407055
0,271560489770778
0,273406536470387
0,266112695637984
0,262572358493796
0,274054930854775
0,265840842700534
0,273066606193568
0,25543843405748
0,273412946823121
0,263802493116507
0,253682590881922
0,254459644906276
0,267250892195659
0,264593267126036
0,258040003971648
0,253422884036778
0,260351892055282
0,265913849781819
0,264936789236653
0,258972521528421
0,263322502205676
0,251853741595451
0,267578875640019
0,273209364023343
0,268135394919958
0,262980347839127
0,273947164907443
0,268190203390979
0,272309625055975
0,270434666501424
0,278992791914866
0,270949163814683
0,282974054444425
0,291106080369658
0,291745894032373
0,29640947034324
0,298351265762424
0,290098604076868
0,297942464984766
0,304120109497769
0,309880261762262
0,316099476534731
0,328165670329737
0,335404536002237
0,344135219271665
0,34241586272963
0,340937311018133
0,367535570452567
0,389119289199179
0,389115647249116
0,410060880080827
0,417115899524048
0,425859840063344
0,444497082867935
0,452832014629124
0,45798450199407
0,48737848253937
0,472743837001193
0,483612813268913
0,472417955074149
0,478059494711479
0,487555511736455
0,496691376536031
0,467483834716892
0,49230774172042
0,464669343061563
0,49161463487489
0,46141602145227
0,467794649315682
0,452470558088551
0,47499258771038
0,471649861024403
0,483809245319954
0,475052582560437
0,468137980814915
0,455667331266947
0,473733102587117
0,462169553264289
0,457582890941097
0,446159719607743
0,449359592763373
0,433686387057066
0,442906594607833
0,432416938893502
0,434645920676557
0,408256336808787
0,440366387690896
0,426309862384408
0,435295722259418
0,41885048612624
0,419126907088246
0,446025273275341
0,396301284094555
0,371578613902189
0,43314808181595
0,400912575672184
0,393566423503111
0,402438114003291
0,400460624664916
0,400019631917197
0,421706227811519
0,418391842437722
0,39850832687116
0,395775954667954
0,427437256541116
0,410991875757805
0,411530084558739
0,419331630295856
0,419375358073223
0,413654350576047
0,423550416451088
0,426294553039725
0,421707358414015
0,421797489459933
0,46570235589367
0,418087341384619
0,437860704944339
0,426805705052892
0,452642277488694
0,423852257153929
0,399933029728289
0,421720302460959
0,4568295951989
0,469947122671793
0,460971068977847
0,446772110237054
0,470166324025179
0,424002951732434
0,479228002640627
0,499994925593378
0,44965077913161
0,451640161017423
0,494489693316898
0,506705335492417
0,497997847308621
0,476794782746676
0,559704763527506
0,517367435600218
0,578848130053342
0,570899446690538
0,572445722017655
0,60364716094683
0,595683271613182
0,545255140715254
0,621266808326911
0,57029041185039
0,583646556069004
0,619468470582734
0,589047962259314
0,558366752032639
0,582343840265452
0,522410570327608
0,649193098720198
0,620482553128227
0,661323023786566
0,54573960800424
0,53943991099689
0,522576412011607
0,518880403825635
0,501907500881854
0,565288239044002
0,509776848299294
0,564234664711937
0,549074244841864
0,592332716820092
0,467145707547074
0,44177568686021
0,616700234295695
0,595258467044321
0,510629094125946
0,509204711292017
0,507295846951159
0,510742436514737
0,61251059756529
0,594630680857862
0,553133359624843
0,615725372429983
0,509115359635221
0,499288769451801
0,411550463430037
0,641783032520546
0,609708319486122
0,751662823804325
0,602492463578022
0,739954297179599
0,701390404828997
0,639754544832076
0,397277727521498
0,508703914003696
0,543091855974163
0,654000460506728
0,541162413196961
0,497458220381424
0,732564290425454
1,01391801544278
0,543379939332444
0,653427536177191
0,501513514900532
0,401834091230882
0,828698483480009
0,716303069367747
0,322568879398047
1,61383592590326
0,70595130442216
