3596
4000,36533379555
650,420452594757
1
2
2
0,0588364313854185
0,0404756728681158
0,0649463095952483
0,044516902631509
0,0617311822786037
0,0423259048475527
0,0539086246937872
0,0414041247034623
0,0648898757482301
0,041562751213415
0,057091123973951
0,0425444690426871
0,0638727884630322
0,041079641182306
0,0557682263755466
0,0348681150808731
0,0503600656621127
0,0514172860704522
0,0522022292503504
0,04270414130943
0,0575155364385808
0,0476754163736622
0,0562438457292296
0,0368585211570091
0,0677564919625944
0,0469353545403466
0,0600612603454346
0,046309121268704
0,0512819820293413
0,041708198516994
0,0607622162772997
0,0479181085549664
0,0598462497600299
0,0448968159795516
0,0496547498925467
0,0497191526834583
0,0529438259309663
0,0424109141747371
0,0611339112081734
0,0604395870634992
0,0628944699722903
0,0448494903690649
0,0596230194581348
0,0380281283058052
0,0578452431068685
0,039354557606853
0,0454799046250392
0,0399470515778479
0,0612077018978463
0,0445024931295393
0,0597204854613968
0,036515063805943
0,0644386642942912
0,0370105410895178
0,0658859470392742
0,0568628825153029
0,0616454959693143
0,0406172638521579
0,0529948661187956
0,0488244584710132
0,079517769925177
0,0411653925340696
0,05865340811708
0,0253547381832662
0,0654244021162391
0,0359595503136621
0,0587518067877404
0,0339473898314681
0,056663425309858
0,034315246303985
0,0542155132462354
0,0496808174498209
0,0608994214412342
0,0440168132292124
0,0543185697930883
0,0389273891414383
0,0644203819991345
0,0372392249089161
0,052173636985701
0,0532033624430352
0,0629235111334986
0,0502074367813252
0,0550164967243324
0,0400807959284958
0,0606906861087131
0,0330015081487824
0,041564579105195
0,0534422654235119
0,0606449644315183
0,0475716744144885
0,0482006391724627
0,0376062458790562
0,0526252591467373
0,0392658639085253
0,0451150451022706
0,0323555384319163
0,0437325515965569
0,0499599807301425
0,0414088789243757
0,0487463218203396
0,0492173976940906
0,0827282364475655
0,0388590863951135
0,049900840618459
0,0979711799018736
0,0265833051372923
0,101762465779619
0,0412962422062564
0,0643120225680701
0,0290607267101678
0,0556532371347556
0,0360755389376481
0,057937247602909
0,0361166611246461
0,0641724132248008
0,0682642699276127
0,0522141270022716
0,0381690222309144
0,0489816538330699
0,049380028230036
0,0485151722820953
0,0810941554421494
0,0401869539232536
0,0433867722631931
0,0523219463885235
0,0345864479506241
0,05563936448622
0,0724764677052489
0,0384114816230377
0,0382359355536454
0,0356926512291187
0,037035077764153
0,0395425325108336
0,0611855441573527
0,0675881983265456
0,0368137442396593
0,0608953270296702
0,0404815165998397
0,0918573854861782
0,0471543825201639
0,0533727989987908
0,0342151321998071
0,0478280400164006
0,0603886511230835
0,0738286616226393
0,0376403815332773
0,0634758736213001
0,0585489369358148
0,0373334989823294
0,0415579578217596
0,0430189893217674
0,0496552467960112
0,0640229171097595
0,0339513517499524
0,060621170686613
0,101457558489465
0,0212550425291442
0,0846122257634101
0,0436614570972627
0,0264416093032109
0,0570515819258098
0,0378039763351174
0,0489877173491443
0,027840116085286
0,0539097762640263
0,0332856843806767
0,069130683839658
0,0308471423089563
0,0501798082755716
0,0555714962794313
0,0687385042404433
0,0409305746947685
0,0660167255855843
0,0572116670132351
0,0364520850830585
0,0595151907793264
0,0497022628579955
0,0413262420541097
0,0517865883891803
0,0647469149043418
0,0390987261710657
0,0330626785667774
0,0561563600285994
0,0328239057038927
0,0590233983828311
0,0395655648561894
0,0421881778706939
0,0423368630877369
0,0498223041952109
0,0475477302261322
0,0619208743911444
0,0563737025887891
0,0585525531551231
0,0408853322856633
0,0441196351621603
0,0519630679000206
0,0943952317604509
0,022050838055672
0,0517845002072303
0,0378248022630099
0,0424495385485652
0,0325916131154079
0,0412217277010246
0,0344358962991137
0,038440658725915
0,0505723630287898
0,0748883620548552
0,0320128593456632
0,0559636453957819
0,0300469388300624
0,0673496305776167
0,0484501410232623
0,0983120153568695
0,0285245576125081
0,0489234676820309
0,0349630522987217
0,054500254064705
0,0504102828863379
0,0463728529821444
0,0359504782395037
0,053299202465778
0,0302872534980056
0,0447468417504547
0,0317581546947327
0,0437646109590103
0,031937855199416
0,0489710517914883
0,0405905394687719
0,057407654395255
0,0380988553741312
0,0511838881209941
0,0306205479658184
0,0484589875727705
0,0357837818779448
0,0407638116228028
0,069636504488847
0,0528530428519928
0,0366855356544232
0,0494305999626151
0,0382922178506118
0,0454303941771866
0,0348190025855569
0,0469607683599174
0,0384516388362098
0,0482842694795346
0,0533338902174583
0,0725962002610231
0,0272949962318294
0,0560470931429381
0,0281461629535206
0,0834975949088749
0,0242418782324105
0,0552735311839224
0,0260880268800996
0,057731375915722
0,0320222860312236
0,0679626853839361
0,0496609668132939
0,0571756907509934
0,0439597051905762
0,0657834462391109
0,0288987702745091
0,0584062165865259
0,0451561034139311
0,0847717640933741
0,0746243974895623
0,0542005385034533
0,0692368400567049
0,0730022602409609
0,0344782814444438
0,0689842500094898
0,0445071520450556
0,11110557355249
0,0886407835674525
0,0487901272384113
0,0401609876681449
0,0655284580898983
0,049893635882696
0,0455861478445079
0,0585214719164246
0,0555884874684707
0,0549109457643542
0,0679121747363709
0,0714923069691722
0,0772214953393146
0,0273914080515809
0,102410727551864
0,0277643923630189
0,0604733275593814
0,0374082397632858
0,0546349956431284
0,0498661585989652
0,0772738556054343
0,0359474596504855
0,0711204727903103
0,0444357584817379
0,0783254429928489
0,0555540334598236
0,0511643303771697
0,0458496619417481
0,0665463353893641
0,0518123449799867
0,0529933991548118
0,0465370014256828
0,0561983597690987
0,0588952166155555
0,0537788129642124
0,0678506528143332
0,0837682349026455
0,05466067428314
0,0758823119396859
0,0551229978150775
0,0508042178270089
0,0519062449120098
0,0553805418291896
0,0466618713993947
0,0550929412052534
0,0476919680691417
0,0659922849737927
0,0679306414155941
0,0493386221125416
0,0548829929393741
0,0513764586481833
0,0470690386889174
0,0600061239125652
0,056301961512426
0,0584731229392856
0,0567585147441607
0,0713813876594729
0,0565761650491019
0,0874145092432581
0,0706655557946575
0,0617422008099964
0,108888261703933
0,0594727130243178
0,0531359361439204
0,0637787125354391
0,0573896248496512
0,0669699810274009
0,0595730189687696
0,0666945457892726
0,0622382566783816
0,0824682111985599
0,0790618926850513
0,0796702802499517
0,0770477062091528
0,107372549231128
0,0883327149903329
0,0995393453846668
0,066455571484167
0,086109502262948
0,0633618862111909
0,109639080430966
0,0682728064708137
0,108766205929323
0,0841048503677163
0,0816211562770509
0,0801641348009378
0,0839004813359655
0,0840084727162032
0,0796520091030873
0,0893391860679597
0,0856032941411735
0,0873275344758198
0,0841776021138589
0,0902511961605689
0,0915758244769137
0,111856566324153
0,123121450947784
0,0891623975710956
0,100315671927678
0,107382841336323
0,110020755452404
0,144989886925716
0,129070961939891
0,143757046845009
0,11909593181053
0,13394352993342
0,141500619290797
0,098565064334291
0,125493357435263
0,107839337153945
0,128509367094466
0,111364097006339
0,129011611185899
0,121866391529702
0,137924345941049
0,134642384006872
0,139978589682292
0,129854455259356
0,146831572496932
0,136389247304619
0,171306963652271
0,135352135524082
0,161275513799445
0,147875742316117
0,203579817220009
0,175829044431725
0,191006839905923
0,135372095750978
0,171396714215991
0,147858459477911
0,162590610294883
0,164455022575875
0,171174202647182
0,169826466166205
0,183994059501457
0,202518552610086
0,197059358104891
0,190079220021576
0,193702980527479
0,182723328545967
0,218016603618024
0,186028816712282
0,223173764560293
0,199530805173191
0,197755145440116
0,193838438508264
0,23298591856017
0,193717400028503
0,219067196109566
0,224834680879141
0,215225002321142
0,205599236288237
0,214748820471557
0,227743089618171
0,237578059424192
0,238703642687561
0,236653142505976
0,233077790395988
0,237610362753063
0,233761529294461
0,267046538445871
0,251897462290982
0,259954969959886
0,25132374102192
0,266620412404091
0,252647108269712
0,272299323285418
0,272935935179607
0,304669896432578
0,271096467327402
0,309137828647926
0,276016519224855
0,27388483203498
0,280005980273292
0,289055574645077
0,293269843059674
0,298490224311182
0,296048669147552
0,306036122756658
0,301798944394567
0,323749578069878
0,317671862580595
0,327641319821682
0,32554278591178
0,323746540760538
0,316316188212164
0,320813584798856
0,32933263782929
0,361844912193003
0,350796489706624
0,400469042062884
0,404507355934548
0,420359964403725
0,350306980750287
0,377060384744135
0,37048912524705
0,365884917219397
0,35543104958862
0,370286586525351
0,369665603827848
0,391742390182452
0,402681408758452
0,408276471735545
0,395957877574986
0,40474926260083
0,421599811159625
0,424888068213152
0,426164229528164
0,44922109449234
0,430152210492832
0,427850765258084
0,426977005531392
0,454047130814086
0,441036053524384
0,447070260347619
0,446270731896161
0,466327641940627
0,460864507891294
0,470279782263082
0,456447531897202
0,471994535518075
0,456265819090261
0,491750207186414
0,497487501480805
0,494909174724871
0,494379099160249
0,497011722779797
0,463179397923236
0,514806399280053
0,488957451062773
0,525167513315874
0,506020139677328
0,532679015876418
0,525685336440169
0,562023370752009
0,545210935822937
0,570422357748204
0,542795407853016
0,537277129824115
0,556217004791387
0,559617262161274
0,552790474497558
0,581426235073129
0,55377093653236
0,574884396028691
0,593088162188095
0,615932919793748
0,57855055470056
0,590886798530347
0,607672720954362
0,614602794739958
0,58819156921041
0,608050193180304
0,620851615744904
0,665518493008353
0,591415242157659
0,604883057615805
0,621814850676001
0,639632031713455
0,642222243512732
0,663987693613711
0,63989226732423
0,653801981493849
0,661263464134621
0,680338704354777
0,674120307280025
0,681571771077478
0,668374301820539
0,744315591228433
0,685098438549985
0,703510206500752
0,67375382672257
0,704895248805255
0,71878829966307
0,731581116424785
0,715303239187152
0,740191543896183
0,74889680281575
0,757755477277234
0,749051001707012
0,759913989035981
0,742803775999531
0,799725087484673
0,743312695905018
0,786221837703502
0,750826423770732
0,757399235078452
0,779049785611267
0,817149330904268
0,786083886051499
0,776518990201043
0,826644236887864
0,802440120087822
0,808937249366174
0,831740343922102
0,781476011500759
0,804000113609098
0,802039534423493
0,874319341860865
0,8785838452219
0,870609358245922
0,838122071185352
0,863954520278983
0,864382308058941
0,895428863827723
0,858490417265149
0,876601413390945
0,880348580334489
0,85125080237762
0,867892943817617
0,964689401488888
0,895110794190076
0,89233726084642
0,890561586478309
0,914435080478194
0,894356609906838
0,948735413852202
0,896761329867743
0,904529629553441
0,928631824557073
0,946083574246248
0,95719712498977
0,927376776546386
0,914425922606163
0,996043122073389
0,935643927517013
0,884724548527066
0,919949054359771
0,971008205696705
0,915404299908395
0,935371494139864
0,921604176760367
0,971465256047525
1,03943215664331
1,03458422633422
1,00244564374267
1,03127078209498
1,04118895628083
1,01523213449307
1,02293126564947
0,998559004660229
1,0203940726926
1,10258832391339
1,0772941860174
1,03758955905634
0,991653267847703
1,06239276530816
1,03965135420875
1,05120657689424
1,05566880009418
1,07175295333501
1,13799669924061
1,0791480525363
1,07287511046595
1,06717924133686
1,01092914149388
1,0593508772644
1,14012387254291
1,09594501870479
1,00570778089178
1,08029692505838
1,13010236262852
1,04656199183471
1,09281613974958
1,21841722905816
1,0986298054799
1,11128942860895
1,09541915603609
1,10049923728881
1,08266738615835
1,04093501984534
1,05555491510309
1,14712162362228
1,12953880403534
1,12501355751619
1,11772070380089
1,12509551553613
1,16565992959018
1,18156597596515
1,13991178657145
1,13173682124967
1,18915338252389
1,29235068103895
1,20385689915642
1,18052010495743
1,20555427518956
1,14389515824765
1,20003545427929
1,22138726524654
1,16747191961919
1,2180601653144
1,2109014736309
1,11769363381543
1,17189975961979
1,22694066973458
1,19048806330014
1,23205040264316
1,19545040034521
1,23867256977869
1,23504480920001
1,19756568888853
1,26328979027805
1,20556816393781
1,12903352781689
1,13864343632943
1,26085719566159
1,21050340606262
1,25525586735939
1,3546383361769
1,32632290038398
1,28852951532752
1,24354569788504
1,18518713355045
1,19866215374862
1,22030303823474
1,17939381309014
1,24800480233345
1,32364444311059
1,30263788428553
1,28195528099583
1,20944414821925
1,24163142754215
1,21805536748695
1,25038919502628
1,2492919896308
1,22177726572106
1,24310137552811
1,2981102145392
1,32387487191188
1,4051624097285
1,30197108358177
1,2270697754447
1,24724220851334
1,27075388510982
1,26799240558733
1,25661913426793
1,24212958085501
1,30927303852503
1,37676704926493
1,35626464281886
1,29726297670436
1,32942891058788
1,28234339525391
1,37123744250163
1,3791017696936
1,33787342475973
1,32104435799409
1,32806042332041
1,32252076774482
1,34631906473713
1,28776950851683
1,38016707943572
1,4068442195666
1,38348571154562
1,30904029889973
1,34924817493076
1,26508326453934
1,27233938258115
1,1876310039116
1,2465296277703
1,3011047519316
1,30959739265286
1,31270127580214
1,27586937195536
1,27945466296918
1,32693489595316
1,24513368443042
1,29829315799039
1,33367009054268
1,33861492807641
1,29385910038265
1,32316318455361
1,28792865691481
1,32002005914295
1,285642095092
1,27567943411909
1,29358617912583
1,30728956494977
1,30765029265197
1,28638774919746
1,32068741873476
1,33088836693767
1,23032654458479
1,41426159533703
1,39473319053232
1,33411996987066
1,25188046524093
1,27170135385533
1,28899685942521
1,42900385070755
1,29703989836474
1,31883019917895
1,29847093359789
1,29228312430604
1,34150941947464
1,39564064527393
1,27115079893628
1,26871756881236
1,2621755408756
1,29062580043649
1,32384877113369
1,29801179050992
1,27377341336262
1,30277421388812
1,21826140394923
1,2639581683536
1,22961929753388
1,26281761022399
1,29651583368209
1,33233021300898
1,37970212951447
1,34961399984149
1,2187474348143
1,33004378734216
1,29751515464792
1,25486732628507
1,32110935902013
1,36929665809785
1,23958674609488
1,23656914185539
1,21344496247036
1,27122172232575
1,19888224704766
1,2546627379948
1,21481847985428
1,20414546218457
1,27738495169976
1,28738855926776
1,23500363093855
1,27862102250126
1,22623941621531
1,21757040078731
1,19376485419386
1,35262409289422
1,30068635597823
1,28205841589243
1,30359580745266
1,31472535734422
1,24786684925647
1,28893661930189
1,23228979979128
1,22042025402819
1,19992609186573
1,32569182684717
1,26786359320473
1,18500610132944
1,18277657216082
1,24923893455893
1,18464569407847
1,18659320225312
1,15145844312791
1,25919362499363
1,23817873362341
1,20314391997106
1,15155257284873
1,21212480949869
1,2074077197631
1,28362664436278
1,22683662557571
1,18355427834732
1,17782613654739
1,22635288623586
1,18567265874219
1,17804124735868
1,17501057823144
1,18206115612258
1,11722962430604
1,09219098281257
1,13608343919689
1,19127467425683
1,12466761191278
1,1894911257843
1,15967848488534
1,13951841083848
1,11539786078608
1,20962732615607
1,1553261541238
1,12714530219727
1,10602257545295
1,11711971389203
1,10706230575284
1,17738062298469
1,08843867784219
1,11924725180498
1,13482233943673
1,11713122185136
1,11349413446473
1,09749337147491
1,08760767191119
1,12239832938427
1,07353449851657
1,06350962379334
1,08381540560783
1,09827221349716
1,03805652143931
1,09258388710952
1,0732965084214
1,10311103819068
1,02396640119714
1,05480976792937
1,07173289152987
1,07263974153182
1,04640142885544
1,0941403342626
1,06429463147555
1,0580108281836
1,02558158824294
1,05225873813515
0,993336920152069
1,0253883934507
0,976477453989442
1,02920342972878
0,98844059312101
0,961666341659914
1,01736893917641
0,999656817788069
0,963992365327274
1,02454768731621
0,998611574851458
0,974338685282276
0,933825358118773
0,970089300875791
0,955009834008692
0,979551102939043
0,948051158483155
0,962869597841175
0,925669016366703
0,970107942184112
0,931798339751873
0,947226791806242
0,924201974854376
0,944547223428447
0,924416818342093
0,934327804289935
0,905666282558114
0,939066478510858
0,866705062285776
0,880766174021996
0,895751010111377
0,904253198581592
0,878972747138048
0,886712383940788
0,865232645672209
0,884740589849331
0,84733180539236
0,863232033391924
0,854606868955119
0,865066657336014
0,850117409512086
0,85767019369616
0,83233125122345
0,841719151461535
0,831410200462581
0,85817612872948
0,803585981139992
0,828722497394322
0,789143044317062
0,823184050484194
0,774480688662106
0,810397375574549
0,788317934990845
0,793968076520459
0,768707234994474
0,79522525003994
0,771920627433797
0,797922131524843
0,75780273950309
0,786997507014933
0,75568675627477
0,765738947132625
0,74233031421318
0,785894447659469
0,748520282613389
0,763953966871516
0,733148957258168
0,73542193549052
0,722886290223526
0,748380915748389
0,719048561660449
0,733258485725535
0,710903462551072
0,728960660779428
0,709144667873252
0,71969624530971
0,703260946146759
0,719683991013026
0,68966005042829
0,70424098846593
0,691487535489157
0,70954646495857
0,676482518194068
0,680801521583439
0,671533762440137
0,682839628788563
0,662929207045498
0,675621120959162
0,660930693911261
0,677452191049982
0,639883361077701
0,663738181250907
0,648217218497331
0,662370707462732
0,632830894839512
0,660366952187551
0,632103946850587
0,637414160578734
0,622172608326904
0,638081707719384
0,614000439783857
0,630695623503194
0,606885897458586
0,635491915512362
0,608536095996337
0,609661667887418
0,603831802115875
0,602543410077413
0,591164606839098
0,603246418450042
0,58839033052931
0,602851804727405
0,595115145574431
0,593677495583525
0,573458869105773
0,588153063016877
0,575468501723335
0,584019090916851
0,548496526565056
0,573472076501605
0,557427151846994
0,570522662065932
0,539991654624467
0,567704887951035
0,542422085585069
0,548947686552808
0,547352949803463
0,562625788814505
0,536906061954945
0,549383865212496
0,548708925022844
0,531446261739937
0,531109520026737
0,544797597419396
0,521829149713241
0,516838671725142
0,50992948759949
0,529037472994664
0,518815367735172
0,519479974626948
0,49338989071833
0,522113464263683
0,497703760153582
0,500448455171781
0,492405011697112
0,50625602021561
0,490681696092831
0,500050806521929
0,488408260075632
0,500955733766579
0,476908187274994
0,486419551460393
0,475126310701796
0,488167989366587
0,474934630501227
0,480416769885229
0,469260006289424
0,481316592321437
0,460936636725914
0,482374861835855
0,462548850307148
0,464921909460322
0,445878702487279
0,454794702833088
0,449509516066958
0,463012495765166
0,433171137435034
0,459765359927237
0,447076918838817
0,452166775520279
0,433441200460497
0,445233054291716
0,427588221344168
0,445220729576131
0,425410373358086
0,438488114261606
0,426722047330617
0,437240416386689
0,430076868922224
0,443289441244362
0,420069606560906
0,435278206124655
0,419271945024664
0,426660086131063
0,412315781593104
0,420754948212362
0,410018862725152
0,432706609212577
0,406575731089338
0,423309685270643
0,408083967617813
0,421524873332858
0,404759738135164
0,418776457214853
0,394291231745541
0,419381464349911
0,404550130543467
0,412875391915769
0,411766659648325
0,414537216933407
0,399772087802946
0,421463745939642
0,405475468356533
0,419811137480931
0,407794305036378
0,415470207262469
0,399808797849061
0,427486210045717
0,402299944358251
0,407503703876894
0,401537834058293
0,42066322985113
0,407126320341774
0,425450342444244
0,414294037253819
0,431580094847163
0,416574575282935
0,436361161216402
0,419714031398421
0,433707733610478
0,423245873797132
0,438629516923753
0,42190682759792
0,449604250043328
0,423773700683608
0,451898963256487
0,431721595379134
0,445176530304565
0,434915419639246
0,463148385746495
0,437396018235438
0,44712655138714
0,440335928559888
0,461001853277683
0,448664829474402
0,466887147765037
0,463737722014289
0,466528408185685
0,46005906870231
0,474521487492312
0,464912962187433
0,489131179977763
0,473305227363186
0,491862450339681
0,48817406013145
0,493176905049758
0,484118576276163
0,510148365093249
0,485110956359068
0,511512792902518
0,511759280976806
0,532200025838576
0,518268688648446
0,529757647676005
0,517128404091997
0,550168108484015
0,537049572474973
0,555292262325308
0,543621693437086
0,549733101904539
0,557509814194535
0,562856713434376
0,557786619452248
0,573004251269805
0,559571203732846
0,57805036003897
0,561701621713274
0,581135285864392
0,563784577852292
0,572148726885188
0,576697467134993
0,587809116414486
0,566652085540359
0,593885242350026
0,581213589376987
0,586571615337708
0,579513932551766
0,580668967764719
0,58718647062012
0,57807012981496
0,561241131009379
0,572649553402764
0,566310284498884
0,592317410256395
0,560514741130199
0,58179492903314
0,566806912189532
0,571649254764063
0,568288268901987
0,578688800928158
0,555514628756664
0,575371611379087
0,564128473607531
0,570079366363231
0,560978780117249
0,583153974197599
0,555495030228386
0,571655030678998
0,555197019018267
0,566317999129297
0,563359527920058
0,579188154868638
0,550057054076625
0,57434137252233
0,5631122432633
0,571160603981716
0,555944024648651
0,563953232049058
0,554181299291856
0,581041145232427
0,554046077430017
0,569491370173366
0,553412877019426
0,578076748998001
0,553857648679343
0,570599722825733
0,558187718665757
0,565958404783832
0,545493798544512
0,565231656203467
0,543221755165778
0,566502342064081
0,546411276664634
0,551561627048063
0,549401387338785
0,554373327522955
0,529389119880569
0,535753587523694
0,525642675427732
0,540632910455549
0,534255019772004
0,530311710628239
0,516025697357372
0,534159367486297
0,513265790753243
0,535444178082042
0,509490263873717
0,515368816255413
0,509492328096103
0,510531828056345
0,501318069179903
0,512636997614348
0,484044139228397
0,497841560383752
0,476582520722416
0,501881060644009
0,471943573846692
0,483281042849412
0,4690537504034
0,488990760485036
0,462505353867564
0,469379404777729
0,453966030901689
0,474065239605316
0,439349520570717
0,459086012650465
0,438476388760535
0,452334115968893
0,441744617666364
0,446047565226361
0,433607179985064
0,444212862263675
0,433184617550123
0,430477234165614
0,428470106267488
0,436367908006632
0,410421660441545
0,418405757766083
0,410988858927426
0,426703259981549
0,407436566971729
0,414844223625736
0,405109063098023
0,416300712042827
0,398722529297791
0,406227824031217
0,3964257617301
0,397652822749942
0,396068328136574
0,393388337757161
0,386447694275623
0,399097217387175
0,383828187329146
0,39296218113454
0,37494389331087
0,394962649172126
0,378853638152294
0,39029123367827
0,371515141278244
0,381250596231324
0,375562173259067
0,380746700295356
0,369432832259912
0,382465401394964
0,363743986875134
0,372432043097439
0,360990023701912
0,366232326836694
0,366394689924512
0,37255240147913
0,356226743978806
0,362021224012519
0,349748038082862
0,369409355281526
0,350471000744724
0,35797152635631
0,346130437347067
0,353540321170167
0,345075318785322
0,353818075138845
0,344838451304796
0,351308003791901
0,342243913247682
0,349069614776218
0,347173955815891
0,347154505158197
0,334289423747464
0,351092877363453
0,336262963548937
0,341826659902897
0,331372103952673
0,335986327536979
0,328460798848871
0,338283402025747
0,325531089709221
0,336639740060017
0,326713873412207
0,338065363932983
0,325684118820397
0,329228260157969
0,32740393055863
0,327789878712435
0,325222103872644
0,329673324849386
0,315475043583112
0,330290555474796
0,319696096202358
0,3269529541378
0,316517095661608
0,328087673744285
0,312858909031885
0,320581249736507
0,315436879403915
0,318125343627227
0,308763321898006
0,319578347330048
0,312296258730481
0,319775785029738
0,312468467940291
0,319624440177661
0,303432091074866
0,318302549607553
0,310164616177644
0,315405963446566
0,301897399788324
0,31184916650284
0,299961989331002
0,312232395866251
0,303014100884807
0,312393205377522
0,299697005917464
0,308227977924891
0,299405634346
0,311029588474029
0,300477450246658
0,312720238184015
0,295450591802017
0,307377392758618
0,298552017559613
0,301700797061099
0,300145469405718
0,300592494734294
0,296327432021395
0,307789611474294
0,289468074321858
0,296125748391119
0,295258795007848
0,29996890326215
0,292280074256005
0,303811323375341
0,289238679060457
0,302571627164659
0,292587857889474
0,296498949896148
0,283609082988051
0,293858322950492
0,290711617392718
0,296076416674454
0,288136933937128
0,291690861518106
0,278517468019875
0,293018117214621
0,286497423730844
0,290036382873313
0,28088919300874
0,290521132316145
0,284597337354677
0,291227552296838
0,280113818331491
0,292444017800289
0,281370943239771
0,289675539685608
0,283344158958169
0,286677530217589
0,280782619981872
0,28714704631586
0,28186175744178
0,285605711190752
0,27735753255703
0,276779688671057
0,276627517235873
0,282519168206914
0,27461910234887
0,279638004215033
0,272698107769014
0,281298465781576
0,270365794065588
0,272803948083191
0,269255424622315
0,278140280891203
0,271761125626727
0,276606710158688
0,267685264082117
0,272176068305389
0,264084843895459
0,274384607673636
0,267899640053148
0,272299982987706
0,263629204758115
0,268476769337491
0,263520029970064
0,266814027205637
0,2618439242389
0,269688272307378
0,259977007109484
0,266001045704738
0,257929384963403
0,261627242212502
0,255045469948455
0,261603996059829
0,2570645406533
0,261918872632783
0,254819730985523
0,255771837368151
0,248700931635957
0,256994276190905
0,249932623551161
0,253571186718227
0,254053253171211
0,25808756358813
0,248109429989595
0,25134188501622
0,251078506850026
0,25430280276281
0,247036625955999
0,250376528166518
0,242515416703537
0,253185799451394
0,244386937220218
0,247740262794136
0,238082705264463
0,24333592048832
0,239489945580239
0,244617324787525
0,23175212092621
0,236680468568905
0,233631664664417
0,241454827052416
0,232110106991234
0,233101902584781
0,226932439706115
0,235926053622235
0,230145977003924
0,232472708395398
0,229152750319278
0,233376566531251
0,222715246827186
0,227082347115958
0,226182383237397
0,225938573375074
0,21934294762103
0,224887738436119
0,217403949998213
0,220176926431274
0,219780461148625
0,219871509133394
0,215608192670704
0,220790070139366
0,214386769312001
0,222446635765948
0,212463746961532
0,217559267821542
0,209592111728936
0,211739736341484
0,210418415334592
0,212969536103996
0,208219840620039
0,207753018998276
0,204175888520531
0,209647493465627
0,20454488505085
0,207521202569479
0,203143219755844
0,208307984630369
0,199306343433236
0,207040187837219
0,197011746226638
0,203465842166665
0,196806198375708
0,202250142240378
0,194826352819936
0,198723294518696
0,19524143580777
0,201616575279035
0,200074687560619
0,199847541039048
0,192785167523456
0,19621581778394
0,195354369300994
0,199358809377823
0,18930904458636
0,191262478625249
0,192101892358605
0,193330256842737
0,189096795148924
0,188200393876928
0,186618798899735
0,18746429376924
0,181954593630541
0,187050580359644
0,182143005394955
0,185798198857059
0,184707805588213
0,184487349032733
0,181240005291723
0,186626289956275
0,179595745236039
0,181017686537285
0,181363907602767
0,182293886231896
0,180601347806917
0,185955906665651
0,179172094206375
0,183322878948524
0,178064251433238
0,18230960527487
0,177011992737969
0,178621623051196
0,174048362562994
0,17592926465454
0,176338339059571
0,177020544878546
0,172389448322313
0,176562343728315
0,175603997502719
0,176985775255434
0,168566454951704
0,174371788835815
0,168984156371149
0,177640688852957
0,170931179665979
0,171858797963374
0,17136737501557
0,175240583287767
0,171247520619348
0,172727255061272
0,172011032596138
0,174703025054173
0,168608929179986
0,17267113985843
0,167541090208114
0,167127157886205
0,164392343432613
0,168625262838667
0,165134211930999
0,170108142393282
0,163805993807404
0,167594129831956
0,167112587942135
0,167701263375718
0,165537921574907
0,16952139485607
0,166941116585738
0,164209204061586
0,1597164433195
0,16468999243711
0,160817500115251
0,164263607340581
0,160194054831329
0,159314102196834
0,159619272893384
0,160887548480483
0,157199436292761
0,161429930763774
0,159663939641766
0,156961795420587
0,15505326293987
0,157934255913221
0,154920883063966
0,159231772478153
0,155041552015534
0,157713902717215
0,15646794718246
0,156971350939089
0,155726667786214
0,156189813044564
0,153894269703864
0,155706908787013
0,152810320255658
0,154564271631634
0,154263720494583
0,153741436702315
0,148131937339006
0,150922378365584
0,153492373840965
0,155367213399415
0,150014857913935
0,149680309060141
0,14947546005609
0,149384830232965
0,149193420869232
0,151132858240534
0,148090998449807
0,148534245774463
0,14555454868101
0,148604564567179
0,148037591538578
0,146352851980683
0,146128429221523
0,148097699656029
0,142420926308946
0,144771927228865
0,143988162678613
0,145508407418395
0,146242471295467
0,145869492631316
0,141723293277197
0,148328738993606
0,14565201346726
0,141491372062589
0,140192967382714
0,147617741395543
0,143012085497773
0,139697781488141
0,139816271225706
0,143379487919165
0,140333274065989
0,138995209142532
0,139271922248482
0,137654236818013
0,135748834131717
0,13919290883209
0,135018909211125
0,136685310178221
0,136328374234227
0,134936534361727
0,134895481255738
0,135231837305654
0,136213881862269
0,134831826026973
0,131952333491206
0,134061345537277
0,131455291070352
0,132962863707257
0,129424443677328
0,129762121458311
0,130360431114496
0,131324397415174
0,128240773991608
0,129382902598202
0,128090231043174
0,126724716154624
0,12678287081828
0,128745545305578
0,12390269585575
0,125757568528263
0,125637232662428
0,122485258239114
0,122828050763661
0,124915349686916
0,125300469422911
0,124857679899545
0,120474327488659
0,121559247298938
0,120437350905115
0,120947791306655
0,119879726667358
0,116609361884374
0,118844779507815
0,119694641796537
0,11844567380065
0,117614164039144
0,117451202154579
0,116225087330544
0,114775715263695
0,114982109190883
0,11559781464578
0,114338909410177
0,115134072224877
0,112779895026212
0,111490242125949
0,111403905081576
0,111034542826911
0,109707712729506
0,109680850681869
0,109167700264916
0,107968723753675
0,112737831906771
0,109581778178674
0,108093577722689
0,109773852610194
0,107442548681917
0,106068191476582
0,106959092411438
0,106959196910774
0,107243025861202
0,106645174233283
0,10695938780411
0,104763930204845
0,104491925836646
0,104353859136765
0,104443371004958
0,104832343131823
0,100404913293197
0,101407884759721
0,10118672708681
0,102235254829572
0,100327868610672
0,0982527939617223
0,0989615466919851
0,100583883878169
0,098257944557243
0,0978425778133873
0,0992234495733
0,101365056773145
0,100012949607804
0,0984823815307793
0,0969275901740144
0,0962896701552433
0,0936809136392759
0,0955848358217903
0,0956767013587165
0,0970432650004856
0,0939086766235955
0,0968694737864105
0,0956993903692111
0,0973480334846691
0,0963731874779514
0,0959582476219138
0,0949028166258695
0,0964153137472379
0,0940769646499571
0,0968452007067855
0,0976557429214491
0,0957920250565025
0,0933001467584338
0,096481718602689
0,0946509668222105
0,0954825220135926
0,0949513259703856
0,0997857251538112
0,0945295419692223
0,0953274189267903
0,0950342435768142
0,0948720471179089
0,0942873227113668
0,0973287205016011
0,0961247636857318
0,101019071802179
0,100048274912197
0,100006435860939
0,0903119313415868
0,0915104820434117
0,0940156526040814
0,0979551839239924
0,0866449652789932
0,0918739769164033
0,0869526615150848
0,0965831180129146
0,0913434473235741
0,0977366520453731
0,0865687541025889
0,094126136816518
0,0889622974993488
0,0936584339936631
0,0937938397481132
0,0913060999426281
0,087365098280193
0,0949110300530232
0,0811805948170868
0,0929011632036436
0,0870595156302339
0,0901497420217761
0,078967908041698
0,0926209271665707
0,0798020956569697
0,0885534623385071
0,0804799902841536
0,0920166741044164
0,0788524894424994
0,0907295357042891
0,0786153773127534
0,0899234100395246
0,0773924034858861
0,090881937494012
0,0809000843903783
0,0962274092525282
0,0862826674397723
0,0938668944198824
0,0797210271646376
0,0869428610210484
0,076302061581069
0,0950447792014699
0,0915650530192479
0,0862867017456388
0,0799910300968961
0,082595159465673
0,0948087530368959
0,084127901677635
0,0915619363959111
0,0727919455561519
0,0995149466198594
0,0753339734334351
0,102317917799169
0,0633884548361109
0,106842304262069
0,0677346023442605
0,100154625999913
0,0672700060534572
0,100751364779052
0,06935488667083
0,0931134304822188
0,077797416732172
0,0873605306466463
0,0823933196941516
0,0799941270540993
0,0817574656371582
0,0802779948549373
0,0844930643216188
0,0814449451728547
0,0804817578338653
0,0845583483223639
0,0767383759541633
0,0837941994944826
0,0786059215109008
0,0852560781393331
0,0783957483433514
0,0822284108791253
0,0800171609679892
0,0823671414802098
0,078045363202326
0,0800181886518856
0,0777888388715928
0,0789255539437232
0,0766802186225827
0,0810054865998722
0,0775652764543066
0,0806003700839171
0,0767346976413408
0,0780380344721463
0,0770677392285848
0,0802852963186552
0,0766290600128847
0,0798123980232465
0,0779630276531962
0,0801187224318438
0,0784277698983529
0,0824771019646139
0,0780479241430775
0,0788979028418868
0,0798865803193363
0,0813736973544165
0,0784032314576953
0,0788913088548195
0,0775663760145152
0,0790202281702626
0,0791115158641019
0,0787988090162488
0,0754513509768653
0,0789551788759288
0,0769413502509849
0,080160494543028
0,0787961002260693
0,0791193631441485
0,0746126546751244
0,0785812431636008
0,0774197459043348
0,0801220049624914
0,0811320753710633
0,0814208324691429
0,0781188537235898
0,0821320811322319
0,0815426135235183
0,0790064980221419
0,0758267477931417
0,0795777723406968
0,0803481155740962
0,0790909886321303
0,0761599901254579
0,0794334620484898
0,0791355772806317
0,0788781039259679
0,0773412106900668
0,0767325408662146
0,080100228178949
0,0807532700203881
0,0778426416505889
0,076639404996174
0,0781915838351564
0,0782158044849426
0,0771560221083906
0,0802637260029572
0,0806859488580624
0,0803131031483932
0,0799112078110079
0,0811905640177047
0,0793718055118915
0,079690719506628
0,081587347879949
0,0796578326695572
0,0778860584586474
0,079172803050418
0,0778575232929772
0,0785714544642809
0,0814717143816785
0,0817519825547848
0,0785487083446117
0,080757521721779
0,079549543593759
0,0790621420718849
0,0802146417691775
0,0834566517294804
0,0833626763974951
0,0818347797450605
0,0811494967580271
0,0820803023415733
0,0814793385513197
0,0804683086919161
0,0818711142676377
0,0812231289666171
0,0832121692996203
0,0837889134991112
0,0830278907561129
0,082455899733359
0,0825395651024719
0,0823803503219494
0,0830770850941808
0,081625285175398
0,0808988798205396
0,0829015557229286
0,0854654003907445
0,0842699188919698
0,0841029087337668
0,0847631333744304
0,0839994489892448
0,0856339988073376
0,0843473431754663
0,0817354579949491
0,0821170891319907
0,0838590413729277
0,0850131369995456
0,0843842742027864
0,0841778187310261
0,0848549119347632
0,0855034720559253
0,0832075310379924
0,084792042337701
0,0837097930226869
0,086246990554458
0,0864165383662015
0,0862479514665736
0,0844020650223384
0,0883013068148277
0,086983313722557
0,0850495454422823
0,0860699584333206
0,0855102971298601
0,0866263344218726
0,0868016842690168
0,0865279758727452
0,089301492049917
0,0891801527500028
0,0868178847398141
0,0852873801722864
0,0890318376862747
0,0870033126420096
0,0882190171109798
0,0893122786034791
0,0890822333089134
0,0881452297325361
0,0923776906788684
0,0886484017526259
0,0887771387254622
0,0881043256476163
0,0884027489822473
0,089141843057544
0,0914062248870199
0,0918187722927138
0,0916934531003007
0,0901026208761471
0,0909937180909383
0,0894024724838194
0,0915739484328521
0,0890403283989708
0,0885028206306709
0,0900903703516662
0,091041431241405
0,0909981729150857
0,0904105409379569
0,0898803459765161
0,0917403649492285
0,0917939086142596
0,0908799207903107
0,0872749659506825
0,0899050970604817
0,0887605387981012
0,0894627455479395
0,0871792886529152
0,0905228488097302
0,0912898919751836
0,0913362975390197
0,0886025898374393
0,0890481440378877
0,0859648332665576
0,0877097241571749
0,0873162415505049
0,087615831528775
0,087187191209064
0,0882676449320222
0,0854869115595654
0,0871740348765953
0,0873379393962802
0,0893196174180001
0,0884948850082538
0,0895799555825645
0,0866861401481919
0,0882784178768842
0,0851489168571014
0,0871548531932051
0,0866161868034626
0,0879740382467707
0,0871778202022956
0,0877889815606932
0,0857667697023341
0,0874851049533705
0,0858522319536591
0,0865151506791767
0,0870778816153514
0,0873527760984661
0,085627379630835
0,0849380488566295
0,0840713518395478
0,0858847431901825
0,0880777170608697
0,0883462239376707
0,0838862694721331
0,0840200254968703
0,0837799455756967
0,0849201855907492
0,0854880338083728
0,0865190879046784
0,0836170711865636
0,0862658813790819
0,0851507161344429
0,0855102902328612
0,0838975648980602
0,0837582696971215
0,0814065884639436
0,0864792791339103
0,0847312851909532
0,0836476812772838
0,0826144085262345
0,0846286368141117
0,0824574919144951
0,08521653558233
0,0855851675557042
0,082526619812835
0,0833116917184001
0,0869064161122104
0,0831407331440434
0,0831260014880558
0,0836658612749789
0,0858352005465576
0,0822688881956846
0,0860753865450542
0,0842242910409657
0,0830104286311482
0,0826564197452767
0,0873084006181126
0,0804581460110051
0,082794516964658
0,0801305888979936
0,0835273033873443
0,0812913988657159
0,0826128018686571
0,0810232572219597
0,0882642597516271
0,0820920016306883
0,0833539500768165
0,0796561899071109
0,0836927348853669
0,0816489282486421
0,0840239357661747
0,0824907063990498
0,0839241736801856
0,0830096564600427
0,0818455975672949
0,0805998935510824
0,0825468096447643
0,0811619936200069
0,083259993556575
0,0814398172079888
0,0823215578461054
0,0820128074565859
0,0819582573278281
0,0821828219924098
0,0813678290424146
0,0796770554047747
0,0789975190944524
0,0799001353599951
0,0818552521485954
0,0858951489569427
0,0824397180513491
0,077122046615207
0,0817283516077974
0,0798390534644209
0,0808587884817895
0,076101381517152
0,0808929421926493
0,0784032195313471
0,0799502437760118
0,0749228777844457
0,0757193315344838
0,0770530077192276
0,0779871921602864
0,0766184972086816
0,077498363114504
0,0772957406018487
0,0790309078925228
0,0749522220067111
0,0767907453720599
0,0742526236391857
0,0757233026191804
0,0757357871672114
0,0775085864893026
0,073743299000731
0,0768108629853073
0,0718154037887268
0,0797010040705202
0,0705554148867489
0,0744522062824633
0,07107053010343
0,0750586562494565
0,0703037705498679
0,0740712935516105
0,0704113012560661
0,074017513373698
0,0694789208370644
0,0723593744956835
0,068940730525185
0,0719454933252259
0,0679170482879443
0,0718325450540199
0,0689919950364452
0,0718526097113221
0,0672871246158382
0,0708826068575461
0,0688567234952957
0,0691722610794668
0,0668853058670723
0,0737128178794162
0,0665124539780796
0,0708970814136906
0,0682806019158068
0,0769649787159347
0,0727232940760972
0,0687222631854083
0,0659331457745436
0,072152717196591
0,0704958493365353
0,0644746055641467
0,0684135803595621
0,0675808020828187
0,0664575430677034
0,0677629041736875
0,0658855348468061
0,0683027094041217
0,0660709471334718
0,0676132182672641
0,0647129932453121
0,0670917945827644
0,0663781177373545
0,0653955762386315
0,066711877752361
0,067200656765894
0,0667656816868828
0,0653413793633631
0,0634944170294862
0,0662305182105089
0,0655466164085532
0,0668076614024338
0,0720650530994155
0,0656221656028451
0,0666506543178393
0,0665547378735272
0,0660123355488635
0,0661853878073918
0,0659047359460137
0,0653632452627934
0,0663177925995324
0,0667208238293389
0,0645419769809854
0,0633897634597092
0,0649032132385928
0,0674997706990915
0,0669800337131031
0,0654389877160754
0,0649564582498538
0,0632596995867404
0,0637038567693586
0,0654702087507587
0,0625803622987574
0,0639881595687312
0,0667527317568125
0,0649433900278569
0,0687901852239828
0,0632463506119914
0,070080409129519
0,0826434655576312
0,0584167056126312
0,0717570285595632
0,0606514253915291
0,0675121976108416
0,0605149570733905
0,0650559303419837
0,0608310951398979
0,0654419061787686
0,0614776489519851
0,0663046131325709
0,058662484728558
0,0656078068015583
0,0606434681888655
0,0651640958841149
0,0597756761629138
0,0635173241090895
0,0592659087867435
0,0658905235119712
0,060694189430943
0,0716544847878277
0,0693582355920784
0,0669306977487849
0,0607727571706164
0,0704597045030518
0,0561582730945797
0,0860950889188497
0,0581164585002906
0,0669950898151581
0,059793869430384
0,0681835961080609
0,0603230083411988
0,0638123401778257
0,0617041274772146
0,0661203344974225
0,0699113496652776
0,0592386469914793
0,0679873064812921
0,0608676208648439
0,0627376403779964
0,0647669655752437
0,0627252450690697
0,0637020949870792
0,0621391700703892
0,0652825483073299
0,0588573389398719
0,0650863400069474
0,061692899366195
0,0648762766843927
0,0590817781510802
0,0657873551556677
0,0674177184918443
0,0607690257028493
0,0629077247490012
0,0616475015760817
0,0624410513349561
0,0732405608858115
0,0793181823225339
0,0537659483074323
0,0666844667206152
0,0568076883260729
0,0636899018165499
0,0634846901958935
0,0624351681020449
0,0597407418328068
0,0607528847295541
0,0603468560956834
0,065133272258635
0,0653850674235015
0,0618389356844087
0,0616214701538244
0,0606760632221557
0,0631034449817675
0,0608301788752837
0,0639168959624659
0,0610202719299674
0,0680552509969652
0,0629174451363294
0,0797106662719465
0,0766305960489256
0,0680078800782812
0,07404359470709
0,061883651897528
0,0653005612329557
0,0624459217898255
0,0636727622331049
0,0622097565410289
0,0692377640458713
0,0601622193933081
0,0656233651907493
0,0613168458403765
0,0628621298368017
0,0594030930621132
0,0656863789515081
0,0586188571921972
0,0647236762342767
0,0582378043275299
0,0679717310835682
0,0566807173499329
0,0674322612724372
0,0574695596051783
0,0738272136314103
0,0593915678660026
0,0726602919262562
0,0662146752929016
0,0886252945747615
0,0760198519098319
0,062379165479604
0,0779849484204915
0,0571758535976446
0,068023768931021
0,0601829827804326
0,0670317983081056
0,0689373796504147
0,0653724992259579
0,0617506727637457
0,0681536471260783
0,0655876327730182
0,0660480539754577
0,0638781776303931
0,076222812497468
0,0875198115935229
0,0656261861314677
0,065870835876371
0,0667697056259124
0,0618744481342049
0,0895494860106599
0,0564229345576108
0,0729080817374463
0,0652025965567538
0,0661539769261358
0,0622579258115668
0,0655714332201312
0,0668438953373564
0,0706091460163293
0,0658343789941308
0,0619205698060689
0,0686132233053572
0,0627109184702717
0,0711915164762136
0,0692430509569309
0,0710838565273241
0,0752972787418078
0,063636231343522
0,0703586287822805
0,0683214700342926
0,0681048164368831
0,0687191483249688
0,0684518110860902
0,070672579112675
0,0733056299866156
0,0805293496421489
0,072256101332021
0,0839780055958205
0,0755201310700351
0,0650381420819599
0,0789184319538193
0,0758351361314123
0,0755082271363794
0,0727676645364494
0,0667478621958494
0,106509538605731
0,0599878121996365
0,0984658586791828
0,0591285686431988
0,0824325228881087
0,0643078335862708
0,0821261924139329
0,0602237666564081
0,0854988686655439
0,0726821173388977
0,0717310320258481
0,0765035735398056
0,0754839669453806
0,0822419278045103
0,0733005599868952
0,0809051121683442
0,071068480156666
0,0784896433848694
0,0759926914722319
0,0881509541975452
0,0728784054974013
0,119303820087005
0,0834869499731052
0,0798417325623636
0,0872515641518704
0,0765186672818238
0,112164771502612
0,0739970949286174
0,0818978433068531
0,0797914831616498
0,0752369129632259
0,0850790663304028
0,0775888438198185
0,104863741252443
0,0822424117950856
0,0768392835798696
0,0918221785532096
0,0821100276762434
0,104610432788381
0,087457662469895
0,0828540188615739
0,0813764522641332
0,0893555994345334
0,0907213478316905
0,107127984982371
0,111790984108814
0,0806566927068032
0,130405016567458
0,0823444636148616
0,11454241593675
0,0853949946787628
0,108495166492057
0,0947868977548622
0,118999026678972
0,0867243072018198
0,110688070701665
0,0951552627103496
0,129561883671719
0,0855025412961495
0,112381446968221
0,0996771634065315
0,116716882485038
0,115619005129267
0,160083342659771
0,105487715427259
0,115948579255385
0,106429307122142
0,136975825619692
0,107357411676776
0,10988713096072
0,111067074530419
0,112677067182825
0,112187318942934
0,121053322732144
0,125746471850669
0,117608111318092
0,109402201578009
0,128740029001315
0,112014888436305
0,164524638576914
0,136732558661998
0,157747647939248
0,131779687184218
0,162147192674906
0,137856511022785
0,130141256377964
0,135313989084962
0,131522188425417
0,140852194095514
0,133842828176615
0,139242019062407
0,146494204542078
0,145642519403954
0,162582977170077
0,137120930216635
0,178354401191061
0,136532867252236
0,181048893997052
0,161322033536979
0,264144271261017
0,171823211217965
0,162367683169461
0,192624850330197
0,171191544985343
0,233042763263045
0,178462026142779
0,180874787151323
0,187044313083228
0,191975387515798
0,196613662539743
0,208860401132687
0,205774694198628
0,214524765957764
0,211326273104763
0,223072436433151
0,243717162377966
0,301783345942624
0,250116953187457
0,245919484712892
0,240271706242637
0,266281338309568
0,265642406869187
0,258904659543171
0,257052807821126
0,284443896573464
0,269158935020853
0,341977346909675
0,27365566252605
0,30289595014394
0,29424550708591
0,319382393738492
0,316201715066594
0,335790477825486
0,363551479908421
0,309188638601223
0,349750112119974
0,324645597391934
0,360115016818459
0,345192363521251
0,385647921880711
0,362208655487091
0,36117541016159
0,372374070583668
0,373393757832387
0,380500748517043
0,375859880250107
0,395559830833059
0,392949292236167
0,440295280111956
0,491367374705464
0,35663280348069
0,439910994894603
0,38165430727652
0,428561077941078
0,392045210231857
0,449133710307439
0,432067193158201
0,426791522879413
0,429698206552302
0,406573070870663
0,422593168354285
0,410681801821629
0,415761214571388
0,414745607751139
0,417120987595207
0,427559164484727
0,417334011345469
0,468185725346042
0,400924461855075
0,505134185353277
0,398401513693217
0,423639218637148
0,405366758046171
0,421973640638295
0,397164992981095
0,427096189345925
0,404841756368957
0,436859133639175
0,402147804102913
0,412040958644272
0,409476692685247
0,42258405805174
0,432786838222784
0,398307149797225
0,384447120774808
0,392349056552129
0,381623527738385
0,410931328908154
0,383539077663198
0,442698641250655
0,379252545554935
0,383937211342626
0,384034439119496
0,384912440113229
0,377285842047088
0,38046094335884
0,369675755073452
0,385090053479942
0,372752767486953
0,378140822242391
0,365699536516472
0,367431862200854
0,368263118031998
0,373795416600538
0,373709690258764
0,364166839732955
0,378022482380224
0,372165516912282
0,372640770397708
0,366396361189799
0,369869866224581
0,370101052980071
0,363206001168217
0,367837253411782
0,361265421032445
0,366420902595159
0,370542889812951
0,368113949986934
0,36154528620269
0,36194964234214
0,365778614942822
0,359839690047254
0,357603200353476
0,357523922489943
0,361164093054756
0,357164981156421
0,35321591306362
0,351307816175367
0,357965142275846
0,347849754995348
0,348124409415286
0,372284978022597
0,349093914146803
0,378661928292288
0,329738525940426
0,355789318955322
0,324836536626426
0,335938558196165
0,332751680158459
0,349525458899188
0,354430744160438
0,320068952998113
0,319492408574319
0,325687799951115
0,318460715800451
0,323686273896121
0,304189521209294
0,307985079020919
0,322709536627729
0,285473540073479
0,413428752903325
0,312579454248684
0,378220808682145
0,287813515428118
0,307177863426191
0,287592288361926
0,316912505647016
0,288709157670644
0,274377811986424
0,300386568272576
0,265288176015059
0,299049479900089
0,265370893618833
0,279253965735375
0,275825173700466
0,28330120772186
0,28558450160883
0,285359191705893
0,278438666029383
0,292688109589673
0,279565934196574
0,31175583798867
0,329727305864959
0,26665292458118
0,259418030509543
0,249167009374073
0,265996646341271
0,2654844352021
0,253273969368236
0,270978127550392
0,239368357740289
0,260771811148885
0,233804359773762
0,269924392085632
0,2433825915776
0,261034053897604
0,242471129595172
0,244670502103871
0,254411251866345
0,222679806856046
0,283117232522904
0,238087183569772
0,278805171757419
0,230360108280728
0,25090127110113
0,237625203800323
0,272543121463296
0,245584467397548
0,227717973364547
0,236278086615744
0,229722348548
0,236950551799531
0,242117944821298
0,225132528074754
0,264516243570688
0,256194472071009
0,283062354416569
0,286362423053429
0,255324049690975
0,230124808865391
0,223763695303882
0,225464918238205
0,240565572434183
0,220015161374451
0,252803307320002
0,195824021722108
0,260956462115507
0,232952900273283
0,25672794579643
0,248754594503656
0,235617721216728
0,23566257546399
0,248657120971555
0,251384299765594
0,294509057468273
0,266036333127383
0,284317916617601
0,251148661873532
0,278717662837837
0,268899978084316
0,27223338099887
0,275050743820276
0,281161661447518
0,287929049348974
0,291694420055696
0,302439713319495
0,30125593413127
0,29832050877109
0,330274898617698
0,326396812693929
0,344360313804375
0,351428312640528
0,336706930072585
0,41364255834204
0,343889429738404
0,391661690227892
0,361364267461916
0,382452031380855
0,383549376846952
0,382525743064669
0,403747962395557
0,41256236837156
0,428876356799585
0,426779943422257
0,409871665891336
0,434772082143151
0,419212028047432
0,457751393983471
0,44459228708275
0,514628910571153
0,438968665891903
0,503777482217301
0,457538100988615
0,464972189947675
0,461711727748276
0,460367045605625
0,47247302765048
0,466247848786652
0,47393588740958
0,48300898139639
0,484222928375771
0,495712385913824
0,474383230854692
0,489658672503313
0,47475004260638
0,487755748482935
0,490973222383666
0,490970296385131
0,497813893861024
0,499708107499386
0,503003199361588
0,519820644782268
0,520373685209897
0,546279118230636
0,497084423897586
0,529889647182242
0,519740181764017
0,532287215427508
0,534241928910705
0,549395673367781
0,556932667277763
0,544630164213471
0,551444000610246
0,551395169849774
0,54331902788311
0,573659165531572
0,553801371619897
0,579632621180831
0,54078867688714
0,601600712324845
0,558979853011128
0,621613043086433
0,586103063019297
0,58996039990334
0,588920360848844
0,586303732597729
0,586858375468819
0,579081347790177
0,600550675714363
0,594031297275878
0,600086864792583
0,586745357146512
0,59404960051962
0,590786058049117
0,580929278876031
0,591646143166482
0,602564044509045
0,604217183856352
0,573846234043406
0,591020607542602
0,57887836977691
0,593198153683409
0,579015750281636
0,606291049870319
0,586571783822417
0,581522740076294
0,596790557648364
0,603032228747856
0,590043151426292
0,592406441058455
0,565602354074187
0,582469510314722
0,571587661206409
0,586359620392651
0,580657125451221
0,604473760593611
0,598459859830739
0,583195443013271
0,595381854160221
0,591644097424879
0,599717615626381
0,595512568137801
0,610216805092356
0,608346154743603
0,620018487577046
0,618900158047973
0,619214714654145
0,623444790841439
0,632026924003224
0,638461980521269
0,63952517316675
0,633827586125764
0,622699762358813
0,627659851830195
0,631111414513601
0,632963049944355
0,625818208723407
0,627007380814594
0,622955100546067
0,610681496276844
0,636932948028623
0,617942664536398
0,630486605266261
0,598968946883887
0,611097805792107
0,593972572047909
0,600604135299371
0,593899166670044
0,593058963672259
0,585715342344671
0,583949169053706
0,581169707723905
0,582008903843955
0,581707883087536
0,574775234605187
0,578958491449164
0,57533992089084
0,575737610397301
0,573618944233407
0,571969173571642
0,574095637863696
0,566179475506656
0,573262478592688
0,561825688697007
0,573743995809037
0,577662804349254
0,590488121509979
0,56579781068023
0,578187069539
0,57864166996998
0,569824762292289
0,565672500113595
0,560458081901388
0,568720788363177
0,556064439545785
0,559751440038548
0,554679416344346
0,558345190596537
0,550121715642431
0,555846057508432
0,55317655901147
0,55828780296908
0,550204216051013
0,554672011657814
0,538980922023453
0,545643876968723
0,542428556485741
0,549845459943555
0,538272091928358
0,547567735282045
0,548696869742411
0,544797652525778
0,545409004133079
0,53813095340862
0,541224718962523
0,533934403675893
0,536301169781338
0,535143691279771
0,533070389375406
0,532434619255402
0,536083088846907
0,533220027254952
0,529781077390696
0,53033224352106
0,527609308277726
0,527478122704593
0,519162486132568
0,517926818550076
0,512919183692057
0,513702418931726
0,510641766269594
0,50644639708338
0,501766329807286
0,497964842010994
0,494523722587088
0,490603398494366
0,489854575033003
0,479578058028354
0,476185958790955
0,474029623264752
0,471748870706838
0,473359763055364
0,468923291782222
0,46369791740298
0,46106350394395
0,459771202472842
0,461404102158407
0,460871749651658
0,455820803320023
0,458343597564916
0,458167842126615
0,457052187445921
0,455378941203269
0,456085471768808
0,456618013407495
0,454359268636977
0,459045129821777
0,458623572819458
0,463765542583247
0,461380723902649
0,465426406594656
0,464655284370047
0,464203784669588
0,46717543266866
0,469340951908977
0,471572018464113
0,474053456771685
0,471106207345249
0,473783308006695
0,478689084583157
0,478297852639311
0,482141606714567
0,48086628158989
0,479365942125515
0,481139084661986
0,480357086796759
0,47890303499495
0,480590800106541
0,479950106816492
0,480096757944347
0,474747530906064
0,477584293700187
0,474512025472315
0,473599875344006
0,473529501765268
0,470425165870445
0,471752996854558
0,474049212723835
0,469358480372529
0,46674694547929
0,466054747474967
0,46382080634335
0,465986545414978
0,460534695460809
0,461135498339352
0,459800535207654
0,457529970485851
0,455056998580202
0,455922115635234
0,454946728770726
0,453068247151784
0,45237995065675
0,446279963547493
0,446472623999057
0,447108984685947
0,44583128327767
0,441771647083624
0,438842937149384
0,438683589976234
0,436929763292867
0,430797646098679
0,43135647728184
0,426305197176795
0,424432772428606
0,421547710498324
0,421446312464937
0,416775629283195
0,413337604623506
0,413883876361005
0,41110534104567
0,407490832912544
0,40278793344912
0,40342421458255
0,398637291644443
0,399634504787934
0,397851720525216
0,397809875164787
0,394103997503647
0,391329911678324
0,395725504461808
0,391355205797797
0,390601672356492
0,390964067309123
0,388980560352701
0,388999280859692
0,389314867934236
0,38467696451731
0,382774060916783
0,382753216182539
0,378137522180698
0,373929928972081
0,373581763645021
0,367262972956295
0,360404982337574
0,356297051960399
0,350705165501304
0,346300128472034
0,34449581327708
0,338630569003446
0,333952049468801
0,328307697925034
0,32524897115329
0,330154849392658
0,328512384829815
0,331520903006948
0,337212721845935
0,343240675067883
0,347051996741599
0,355788489761185
0,363224651246361
0,371171645862737
0,384590610012213
0,396221107437799
0,413596667749452
0,427102755994628
0,440852708975208
0,456313922954136
0,477650798050051
0,495472954593544
0,514348826234502
0,53161016992589
0,545137910004051
0,568471523092406
0,591322495609607
0,612861780872826
0,630356530511423
0,648996952806128
0,678769541165819
0,699169922723507
0,719035427531722
0,741431335994286
0,759991801978266
0,781457618328489
0,80072688474566
0,814129925869701
0,835945435129154
0,851425703055787
0,856441132209287
0,866635530039215
0,877059480782286
0,887794794686125
0,892051252909551
0,886628008077212
0,888122955346533
0,893489379083659
0,885003965966616
0,888050493903535
0,880904120840437
0,882142462152952
0,873589084806022
0,871500081997491
0,863650843889048
0,859359838152562
0,855620645444237
0,857625778230349
0,85154157654337
0,851740243502763
0,857143383090257
0,853595364426866
0,856902908087903
0,860164902748406
0,866589345352251
0,865438190012772
0,869781352776892
0,878424603155574
0,888551683909122
0,898170110301938
0,910965758760416
0,92970281162229
0,935727204417244
0,938075728121399
0,955818431304602
0,961348611685388
0,958928212233377
0,970891710199701
0,998413362711118
0,992889916195507
0,984376455199611
0,99038222418044
0,999111412848221
1,00130130034699
0,989912676109484
1,01953917469887
1,00966057275936
1,00141578546579
0,99831946344925
1,00798376678358
1,01730496546495
1,00541435457517
1,01589153691804
1,02691324801055
1,03446600363197
1,03343852499358
1,05887182829923
1,05055600079385
1,06564676244121
1,06890040659479
1,08292896623951
1,09729570374313
1,11396848436645
1,11698389387857
1,13484708980737
1,14869011280832
1,14125741670652
1,16503716825125
1,17940800764893
1,1963482852093
1,2279940231819
1,20174801391752
1,25804006082497
1,28990630171207
1,28238386307727
1,34636788610437
1,3789589217576
1,40328743827298
1,42006290333207
1,43594622376247
1,46517443910313
1,47758628934985
1,51911913990664
1,51186435136701
1,54670325969356
1,54819361375343
1,5598214839699
1,5495519521351
1,54675943842702
1,52345650675132
1,58847449513219
1,5741963838224
1,57329000275655
1,50569190738846
1,52265166359802
1,55644114493531
1,50813797580139
1,50391632442
1,52974026559251
1,5943851974199
1,56012820306073
1,5261489842702
1,64294214238317
1,53103098257608
1,60340791398952
1,61486484397068
1,64913862077217
1,62916913899266
1,69206486156612
1,68705135621414
1,73686406471333
1,71313154254353
1,76550044771309
1,7626759304502
1,75446249877155
1,6929914148533
1,86456705849192
1,73794780439436
1,83511475698976
1,8342912579502
2,02704532308761
1,76303033274466
1,98223937827252
1,82884033697595
2,01921192705049
2,00471065553102
2,0145541544881
1,93609138305181
2,07522152158647
1,99582500440152
2,2052168408101
2,16338242361674
2,14497111223098
2,24674342175546
2,13644296889779
2,10713199934637
2,29121139332771
2,50965773047351
2,35591479564921
2,11780605490773
2,16190611200267
2,57102253894747
2,33062067857018
2,13791894938481
2,18718490351909
2,41210541608931
5
2,2024974573653
2,46886357493078
2,13810966953179
2,53144919580898
2,07570052113472
2,29453798159266
1,98734888737977
2,05916203202854
2,1959814464969
1,97176757116674
1,93942812158269
1,9919763184419
1,94167069329099
1,98329834217124
1,89203530907453
1,87943145552113
1,7507685939982
1,94761658417074
1,82241729359604
1,80644288273471
1,90442169714699
1,73724383938761
1,70356932711194
1,81101547609311
1,6263985803882
1,731630193313
1,66601174075382
1,6974364137525
1,651394803177
1,70202495128242
1,60305969481027
1,5461615593655
1,45724682205681
1,47700785623838
1,37548186978415
1,35709163527726
1,26464943434774
1,25375102790231
1,1702911768126
1,1470044530698
1,0601412211952
1,03725732416659
0,98062136734158
0,932071086695783
0,884746601514598
0,838998167326425
0,798280333776687
0,769110733238626
0,733701795468117
0,706360033900797
0,66721233367503
0,641996207580286
0,623973633959929
0,602779744127338
0,570780675481209
0,567398345002321
0,550210712984558
0,529151191615946
0,517056969685186
0,515601195820154
0,50528166284174
0,504397296286091
0,49575956852029
0,484567143149465
0,484997962998546
0,478512456641281
0,481988484361708
0,480015100918448
0,48006949280566
0,475391908331491
0,480706694976325
0,481277185733676
0,490737521466637
0,496313736353313
0,496122965912088
0,500299016848227
0,507805522777605
0,511538304707275
0,512622455372884
0,524684994889336
0,512535055629359
0,522891774511892
0,525610360073297
0,52237242600519
0,518870528716805
0,52384919161827
0,524242392837678
0,524949436280428
0,515396273657309
0,517113713173274
0,516249704187249
0,527684232093504
0,521550397749676
0,532922527321673
0,532580037611084
0,532876682040015
0,536983627890794
0,535176611837016
0,534015745983694
0,535607999272079
0,543634431460196
0,537453276761803
0,531696739316441
0,535358589509481
0,529044471334516
0,539309842223498
0,531549332526164
0,525908758419179
0,527645240815608
0,528447721761881
0,525313146140907
0,517115847445885
0,514759632930581
0,520207222851543
0,514422030695188
0,51298603489327
0,510809588280392
0,525204668450836
0,514060388831269
0,517940247645191
0,530853533571074
0,544108677447423
0,541336229120614
0,552395201459145
0,558468071865693
0,574093324612084
0,587461175071274
0,599818319179395
0,597247037061789
0,612723277080513
0,60741254270696
0,629114116838977
0,615767071920166
0,615027413602693
0,615080938742585
0,607414692988529
0,586433145763902
0,590879418997469
0,565567395008478
0,55634171350914
0,558718754293211
0,551132761728808
0,535267690440501
0,538683493530273
0,537042664192367
0,547869149478063
0,538703948168994
0,537625282277899
0,538846978267426
0,547474509264858
0,545224103067986
0,539525030680668
0,542202069655678
0,540136241057895
0,533526875894614
0,540657948999713
0,542195164735265
0,556633281267035
0,532609884374402
0,557638590333176
0,531301733991412
0,540266211269667
0,535200659789731
0,551864314585585
0,524936930891836
0,546171029759046
0,531522643053929
0,537512077366179
0,527128968382239
0,53039019767646
0,529179748904518
0,531375494782793
0,530619405546606
0,535244148809153
0,524907805122902
0,541306785902242
0,521883062017455
0,534864432630488
0,512471605570719
0,535014142731825
0,512158189622602
0,521693677637433
0,504834209152326
0,510670448763015
0,496470931029519
0,502613416773974
0,496107198088947
0,497871040787286
0,511090550186589
0,49853777990876
0,491090580906371
0,482484306587119
0,463521272533862
0,471382430641922
0,476168960343949
0,479960409808014
0,455793095549759
0,473512746769959
0,4477045828278
0,457740789717305
0,443027179723354
0,458082708340683
0,451297693961424
0,448481200193818
0,445110689750707
0,448642335756884
0,444591040484812
0,464949543453439
0,440805983286007
0,469358029387693
0,456824768924695
0,467729530869855
0,452929442570327
0,468306305950228
0,451281935904715
0,466838286250483
0,465649554836685
0,486869705755068
0,485667508224205
0,464934839726157
0,47312417502113
0,499910538764366
0,47847510466584
0,52015898848492
0,484391940184018
0,488646521710422
0,490855041855728
0,508175220050327
0,492970315225443
0,506373007261951
0,511879345795886
0,542229095987267
0,547294998405881
0,57139509247521
0,567276774734702
0,603949038109124
0,581130036428201
0,647795534993501
0,60654579821898
0,629265986827912
0,675810025542156
0,688189784451013
0,664172931952284
0,724763851481587
0,699224589164592
0,760524438021899
0,725231684670467
0,753152196337152
0,742568502500321
0,749409568882037
0,737866340981298
0,76203110021727
0,758824724995715
0,737493842639176
0,750532026576761
0,762251110630898
0,729200279362479
0,776365672794968
0,766465278621468
0,775141065527406
0,758326426651101
0,754595800008984
0,778921471030465
0,797009342709628
0,737722475646077
0,793141034275542
0,737295129421223
0,791563367743125
0,768059889011718
0,79535296488993
0,772507017502146
0,766078799679527
0,765283814110098
0,762312835730712
0,724356758442485
0,749812909857751
0,706768314373593
0,737393418072714
0,748932054608239
0,761061099071266
0,728499424434588
0,699627105995021
0,67991195114481
0,777391991065514
0,694135225083933
0,730902238396915
0,65707579075093
0,71378698569642
0,648680231873911
0,692942323178282
0,66345027132656
0,683388722683086
0,667023185734917
0,709539329387004
0,697364193148902
0,739278950146752
0,689375047998241
0,705241778504596
0,696408104904911
0,722483884994271
0,699420211059742
0,687014414716513
0,772829892853201
0,719887408654664
0,716451488064706
0,703272575517402
0,689960503303038
0,769371508865153
0,761532418433468
0,843168693756965
0,79525763684097
0,680111378320736
0,663909261173315
0,774151968887251
0,722723118612623
0,750574563437719
0,807557569436219
0,878248656371026
0,830478688836904
0,844799607976874
0,797817784416669
0,840317544656875
0,719706887674793
0,818452821322549
0,769604555677762
0,944713645576848
0,791715386887263
0,945330884599744
0,830354929944207
1,0294215673764
0,943688810720008
0,989918714046589
0,970379509530829
1,00235199501139
1,01040287406328
1,0261165850887
1,01329898367827
1,12469608093786
0,810456389711699
0,969991535540631
0,883125367418949
1,08563923203996
0,941580288051836
0,917081773629864
0,838691970050113
0,992110215121471
0,825512287608034
0,875280254230502
0,822481296492426
1,25007704920415
0,831397644324014
0,797010521022471
1,04976469575677
0,817675053830343
0,906661426238535
0,956380607735347
0,881481196699599
0,983000595584426
0,968504599909281
1,08640704817162
1,04392324807919
1,00636645645473
0,867935197525516
0,978075418372494
0,872927008531474
1,00314176860365
0,715405128375205
0,929272964841785
0,796021351790282
1,13997047132237
1,37945602647455
1,10212110898347
0,516340505508855
5
1,03450077530701
1,05864920991032
0,714401976547856
0,86997007915563
1,00192687877701
5
0,76253517602044
1,06438243846503
1,03171883260538
1,25173561227762
1,14096640287123
1,26581207005364
1,30104215183714
5
5
1,05689537489688
0,533580630595558
5
0,735268264569864
