3596
4000,36533379555
650,420452594757
1
2
2
0,0548264782182145
0,0342813556240895
0,0508846481573189
0,0418272394623112
0,0424401564047081
0,0299338921655306
0,0526510729583701
0,0315002711834854
0,0450166732886303
0,0340247566304407
0,0510728636194166
0,0299887883661735
0,0417289023138595
0,0318887648083203
0,0521848744151282
0,0301589867339139
0,0413399755625803
0,0380736401688763
0,0460495714025003
0,0407927687168533
0,0428596285802569
0,0400957638830584
0,0391473494548928
0,0346083218483419
0,0486239210435189
0,0395793679036643
0,0455886201814515
0,0329498588811426
0,0465146963304092
0,0326676193146227
0,0407276969148965
0,028658350017051
0,0508993373731602
0,0274222487671029
0,0494785352869972
0,0383276895196112
0,048552116332598
0,0368285478269975
0,045933039683621
0,046826611639701
0,0457042620625499
0,0296945706542504
0,0583461469190355
0,0280033124043926
0,0507395384562499
0,0304362546517372
0,0344524066837778
0,0369827096515625
0,0448495932538573
0,0359751307664686
0,0489816868425597
0,0287122921079075
0,0557444142576355
0,0220152269380327
0,0537776768701147
0,049322455558083
0,0483054932224404
0,0353041941029359
0,0514666495158767
0,0421987863950175
0,0669141517838717
0,0240590126882798
0,0446828262692805
0,0248608935056403
0,0612375441839548
0,0236596944354856
0,04701202680176
0,0281103315727409
0,0472468030983112
0,0279172458246388
0,0429569033086298
0,048376695247673
0,0504372288004112
0,0413090133908921
0,049808481293829
0,0297685560177454
0,0508987538090899
0,02506306288557
0,0460679164347469
0,036460430845845
0,050366464766164
0,0431383042552398
0,0494026368511081
0,0327358677081757
0,0474751724281182
0,0290513908199679
0,037610145819694
0,0422702501525494
0,0594604385631811
0,0336680952011538
0,0356129723189597
0,0276745401337638
0,0450856872232611
0,0287187923822888
0,0360881962553692
0,0297766750993089
0,0400444615240544
0,0378613808534237
0,0381716326706896
0,0485615681872813
0,0418127521103809
0,0718326630555368
0,0421424635408091
0,0516052760621083
0,0791488061819498
0,0109409845906254
0,0925885598352307
0,0340770583400461
0,0560248478644614
0,0326310181451898
0,0411131144118721
0,0259569724813931
0,05367465257252
0,0305163948307524
0,0510234266028176
0,0666093448267667
0,0344160047924876
0,0380605459346661
0,0399963089256085
0,029366177594505
0,0459962749063647
0,0669713224930906
0,0378186041678118
0,041677888628247
0,0480479415220039
0,0264448690685292
0,0588469561584969
0,0628405534254742
0,030761781045974
0,0309072609872458
0,0404000167120595
0,0323421359843152
0,0359632002970046
0,0459361272613271
0,0624405830557596
0,0345589011978589
0,0590503560549452
0,0350618046145388
0,0774159722165604
0,0349118538833554
0,0457554162614644
0,0279943969333986
0,0351202214235199
0,0584202442622522
0,0616396686000313
0,0325338866882168
0,0617428761517071
0,0423723084375323
0,02432585030872
0,0362419782981864
0,0367261637882182
0,0456543320164175
0,0607261821016053
0,0239674545657607
0,0538228747969056
0,0991493966818554
0,0404920923204179
0,0653775361731013
0,0384628522109728
0,0256697395124083
0,0466052472812839
0,0257957639354857
0,0436125868394294
0,0196300202241223
0,0472438500141219
0,0270321092076419
0,0601559180530929
0,0201965798217983
0,0448973634623535
0,0499744107581279
0,0789743283392007
0,0336377556940159
0,072547977991105
0,0461511279952682
0,0313921211696785
0,0643297341167562
0,0456185683466364
0,02786290366598
0,0421895847212295
0,0508182214926355
0,0270124903162331
0,0275757948117949
0,0338994051627034
0,0290927438850212
0,0543309537365293
0,0319922540454061
0,0391777211473429
0,0399510042802503
0,0400882457269901
0,0479434620479462
0,0627667131817553
0,0542441611884786
0,0435193759776842
0,0400392618972594
0,0451413159552037
0,0447472338929733
0,0834652706619255
0,0181080979719569
0,043854478265145
0,0332653262179774
0,035637537082499
0,0215585936398726
0,0323949587885083
0,0279467548763575
0,0344897007083635
0,0406390553630315
0,0677316402621706
0,0232844252098112
0,0494273538161895
0,0329867550416243
0,0553928750182037
0,045771523080128
0,0977531611445412
0,0142808521576843
0,0457014388570032
0,0259101094887199
0,0492859235014324
0,0456068450897626
0,0380480166951445
0,0220196427416811
0,0452905218903031
0,0305078602489848
0,0368611301668744
0,0270635241095125
0,0345081183446176
0,0266381974874686
0,0399862415815149
0,0333702767036724
0,0465922859653773
0,0374263372401929
0,0417430528068946
0,0276369719571195
0,0431627692088479
0,0321268280895277
0,037609969342309
0,0488549527543174
0,0363680372617784
0,0279543227111784
0,0413803155740453
0,0308139190598268
0,0429928520445739
0,0278333730989216
0,0439520921376617
0,0360142042349938
0,0373865253725077
0,042625666496851
0,05738493539444
0,028744931422709
0,0458963184018105
0,0269523789783938
0,0719367638703335
0,0123442001573837
0,0472546525507997
0,0215017945605124
0,0473034909213185
0,0230419278381439
0,0616456972567624
0,0373470932421084
0,0423339037248009
0,0341919030949509
0,0603849237904131
0,0249819954423949
0,0526398669144281
0,0359597376959078
0,0831235550404955
0,0686447308018393
0,0372002731664599
0,0548017101577002
0,0682536047387995
0,0210936734959032
0,0709560853324025
0,0381167532135145
0,0944949607986238
0,076035802268562
0,0376010860251649
0,0323587655839539
0,0549725228733728
0,0423286213544285
0,0357021022005249
0,0491810494314215
0,0408260226957826
0,0681975314456155
0,0501425328127811
0,074129044853823
0,0734790229708944
0,0262859710689549
0,0925969874810734
0,0157266996946023
0,0556696718928881
0,0296316261909407
0,0470307471190126
0,0338912273854864
0,0740978783519568
0,0228510749174672
0,0559982399778464
0,0288421004091824
0,0686550570678256
0,0467597569767479
0,0424411129686153
0,0419606907420608
0,0602249851729719
0,0369804445538766
0,036960324241371
0,0370846552781439
0,0491616197784211
0,0499132858118569
0,0521193174302918
0,0536384706343458
0,0689913623562398
0,0411729317167909
0,0666886495229708
0,0474137798926111
0,0390705078827889
0,0396402900250954
0,0445381444188967
0,0339812705957305
0,0387190814997038
0,0395227558196004
0,0525622102948018
0,0519066839294968
0,04285629449587
0,0417016624023231
0,0348054522899034
0,0357202654832311
0,0391403105455488
0,0380558270576757
0,0430559657785174
0,0402290820873494
0,0524248203900301
0,0445379914762075
0,0711885173766863
0,050619881161484
0,0475458526652723
0,0909012708419809
0,0434659865931583
0,0354548148052708
0,0499688475929953
0,0451996137951372
0,0522482914980617
0,0414216655516693
0,0496440302216395
0,0430195638081429
0,0625246403577547
0,0560504932730219
0,0522816579330984
0,0574073079956788
0,0773231069775304
0,0815364510426188
0,0928886093923101
0,0467669282569626
0,0636755526303408
0,042544133118242
0,0913093280600597
0,0404150385059649
0,0851333828296727
0,066830485834501
0,0586926348424036
0,0612489949404259
0,0584527740916962
0,0649252897183713
0,0542079332376916
0,0573144659570085
0,057436037627262
0,0604160120567214
0,0597133312730479
0,0652204407447873
0,0648303974005625
0,0842841696825283
0,0872681062528889
0,0600307792960052
0,0752827702310284
0,0776370671812793
0,0771546949677325
0,102607782797319
0,109742205388948
0,106196982212105
0,0912488808603974
0,0930882289035248
0,101631147980355
0,07126890597902
0,0866334950223459
0,0745014769957933
0,0900083430592515
0,0858970187129264
0,0903160694330648
0,0811363920227535
0,0961799314100813
0,095721533534725
0,100519132508367
0,0869746720405951
0,106108207137633
0,0970094864356803
0,125183742834878
0,0881927648400837
0,119462683776575
0,107843870428765
0,156651448567941
0,129783458143691
0,135833375607662
0,0956598553795071
0,132151270231487
0,10705931027229
0,119406739163
0,119247261094048
0,13036001056552
0,121609016816148
0,144299333072922
0,144204172245941
0,146624371147763
0,13852942449984
0,146340451663624
0,136781074190951
0,167276951692904
0,140860136296177
0,183786161135268
0,147706057155603
0,148534012494271
0,150028484436265
0,175536601793244
0,149528247524546
0,181404777033397
0,161642424041029
0,155019025630915
0,162442477792001
0,168915083946162
0,170446024068166
0,181775939463858
0,180906543496937
0,178832362488202
0,179000735057911
0,192127133659887
0,187609689061498
0,203307210859767
0,195719864332987
0,208506433381068
0,189078783493813
0,198385806584767
0,185129814247951
0,216768495355293
0,209900720367654
0,251664469769815
0,224018461361948
0,245559785432296
0,226781770056236
0,218334241834425
0,228282072458292
0,234253011518124
0,227624704667287
0,238199983831838
0,241153340950657
0,249353771250471
0,253780643614506
0,260323366230547
0,257931389170939
0,266933460581121
0,259291185646495
0,270885452922387
0,25615169275691
0,268619250976523
0,270281868018502
0,294859512224398
0,27972350645439
0,336390172976679
0,312200322109959
0,339196254469646
0,315172683790103
0,315593780839169
0,302690577492895
0,310134355300471
0,316258049821386
0,320790113737189
0,323204257737387
0,316635809119824
0,321745015523454
0,345490204125095
0,340470654146612
0,361987404870956
0,343796394821186
0,347179055318298
0,367397303750202
0,373788293674252
0,362942810464286
0,386274557215694
0,364179032083576
0,388543930991937
0,380252927376284
0,385964384704476
0,379118631941161
0,402939758047127
0,400507036749768
0,421315320330627
0,398125596694073
0,440047170064311
0,413380134445706
0,43185191046301
0,416938170647218
0,440351892927296
0,439880523751479
0,452884888691166
0,428814368439978
0,445592398882879
0,449135118458905
0,453029248381064
0,457912583972149
0,48064898405956
0,481565783687626
0,50784036878531
0,472918133007091
0,517881933790943
0,496049510644149
0,503009587002449
0,504523486614223
0,524852992832869
0,511305484590852
0,509171567107092
0,512105142667785
0,527600431363608
0,534413462681553
0,540973076902265
0,514273264185371
0,565095993178921
0,554067563150256
0,568905945441846
0,555582799168055
0,554788152220161
0,568306835869284
0,610366595273978
0,548681417752759
0,578684347533804
0,564584596108041
0,592488467777861
0,606575640525536
0,600130502675576
0,62433427324733
0,655404617932662
0,608507064001433
0,635997189583949
0,628802893259392
0,638168030499014
0,642126654295782
0,644927407804119
0,652361074447544
0,639566916520915
0,637717761542494
0,68166696094515
0,660648185257879
0,693951147382143
0,661765856636761
0,663781793778346
0,660644190665036
0,692362415990818
0,684154094552986
0,71453645171469
0,687726108091822
0,736713882790412
0,715453126057283
0,736451100480538
0,698344391145698
0,704010466513559
0,702710128592469
0,730818906029432
0,752484505185833
0,801000601739386
0,759062523508685
0,726339210353708
0,771714930987857
0,753283109039552
0,726676777068357
0,800962861001927
0,784295422754029
0,823950188831068
0,805887072330939
0,845265971854084
0,805831087151349
0,802292991087854
0,794961913978095
0,837483495404562
0,804503295829866
0,808381067279676
0,79778423219587
0,856395364795058
0,856405850731057
0,822404291416595
0,82570805802796
0,88421565029961
0,851093593407263
0,853598952502699
0,874241499683599
0,884866953966729
0,862263686569502
0,855636934309418
0,871488103073217
0,921487032602718
0,886558561390683
0,89398915660246
0,897994033853195
0,907939942871069
0,893050645084461
0,942777349569132
0,89259540827281
0,923687422950179
0,90819163188885
0,88898333039628
0,907687242103276
0,928280267534959
0,936284181037961
0,943422641143229
0,99839254406211
1,01620623392777
0,930829279017625
0,912163710878269
0,944174372733211
1,00929848854299
0,980665866938558
1,01812552982859
0,942849344966486
0,933932073650852
0,995367833531311
0,990227807971083
0,935337267293089
0,964760931106061
1,01089820871333
1,02969158692927
1,03594460460585
1,00834664054789
1,0468055446749
1,06591284902644
0,997457924064392
1,02389514764733
0,966456903877985
1,0247088666362
1,04506466066387
1,01341190833935
1,03252245458178
1,07762021250447
1,04659949576926
0,991089732130904
1,00569864149747
1,05174548990406
1,07345743908541
1,02432195987187
1,01062649483821
1,01290797575808
1,01692889394149
1,10322300553337
1,09308253269986
1,06307616758639
1,10862562379594
1,14868029419869
1,08293623278478
1,03600741152872
1,04470801218799
1,06852353039678
1,04306854711388
1,08458407544117
1,12168018415187
1,09231206922221
1,10454659937795
1,16862810800953
1,10622107587704
1,11949238276416
1,12700034943458
1,09445814558115
1,14898754080299
1,11251757871731
1,14230021859554
1,13201230999185
1,17551312583499
1,19416373399777
1,09436544411096
1,14432692746445
1,19002956190907
1,16902923927413
1,14346305036825
1,07904402706995
1,06152340514573
1,10441728798576
1,11735427869828
1,15188957829566
1,18599178594856
1,20975506356724
1,24164326849734
1,17761183820859
1,12734931940897
1,17109710214019
1,17238135483742
1,1286021571145
1,19612326597529
1,20940232483652
1,18392407768294
1,18118255222446
1,13206838379133
1,11371722686641
1,21143521997752
1,15337334792781
1,07051717091147
1,1237196550643
1,1904419506414
1,18417212664659
1,27361285008476
1,2261468113493
1,16920149278102
1,12668603910714
1,25347748825735
1,21795694803577
1,15439693458651
1,16867317260778
1,16483911499583
1,12563779904948
1,21241711473909
1,2476610194921
1,18565799883973
1,13949866995683
1,21281172314048
1,21875449263119
1,20447228828737
1,16522703588074
1,22516176583009
1,17011209714694
1,19023632007973
1,2541581176213
1,20441537365828
1,15508025514299
1,17141081696206
1,16605620110308
1,23770690102105
1,1784568769449
1,21254051724689
1,15245487740989
1,15274173161344
1,13224151897187
1,16565554827324
1,17407797586792
1,17386846216812
1,11508242845218
1,10940969423195
1,15902441116565
1,21172153340051
1,15765098142421
1,1856439208723
1,10418522938361
1,15818937688344
1,14066458243597
1,19193885529858
1,16646623162807
1,21870633180573
1,23872331739814
1,15047408898461
1,16032218075263
1,21537902803367
1,11561470288876
1,17314616191453
1,15920963491009
1,16119095974035
1,1425338864048
1,13684193910347
1,14588294626243
1,12029565153773
1,08634719921298
1,17708580067435
1,13929816761454
1,16782762366212
1,18007431583705
1,1824494373674
1,13062816228567
1,13569522686341
1,1336782323791
1,15631745982461
1,12757567234154
1,1475079356567
1,11610881669187
1,1064178028157
1,09596632074842
1,17420854945757
1,08271489652725
1,12383357310772
1,14607742349421
1,1589944773451
1,13361145011428
1,1593210933674
1,07961999739903
1,07759587228498
1,10434737508286
1,13112662031647
1,06743551669688
1,11894234620974
1,07122471009155
1,13984549240239
1,12952151407844
1,10586153480486
1,08955212876487
1,1096529539285
1,05043706819172
1,08778896791174
1,04899157050967
1,09067662382972
1,04717503368651
1,04274593860935
1,06688045349204
1,11893109594296
1,06734821519683
1,08183864165722
1,02263670705035
1,06626507415108
1,03027042125182
1,0270638668319
1,05974899052746
1,05626239016355
1,02287930355455
1,0459359724823
1,05932436900102
1,07352112542649
1,05629840261448
1,11512978879737
1,02660098118315
1,03963443232374
0,994869498675969
1,01472179706899
0,981755410216951
0,977454417437598
0,96845999356213
1,00761542161394
1,0034306063001
1,04030219398908
1,00698936804363
1,01636174501274
0,981197375388296
0,989527183212974
0,984192794701579
0,983453182872119
0,942168967416559
0,975892182724702
0,932676755265298
0,965697935151662
0,949052432512395
0,998698248266742
0,940084626786445
1,00378248719589
0,933507928619911
0,982361540125719
0,92240232374934
0,927285306774682
0,905148943420991
0,951267640084846
0,904948848517005
0,915402381405574
0,874347115303518
0,919483305907881
0,881174921933244
0,921355823593007
0,91216633081684
0,921447233060704
0,850948972705465
0,869667740337904
0,87406053462919
0,881571637283241
0,874793886608345
0,899202499037461
0,855609182579089
0,899705459475438
0,870477965643802
0,867809355726165
0,825835929105799
0,855218680570371
0,826092778381955
0,845066881534404
0,855856666631757
0,836002560113075
0,795414133388025
0,858274992735743
0,853310086350581
0,850532359882146
0,780126736919473
0,82583356080795
0,793418279130277
0,813413538234788
0,791443893373725
0,822632188665155
0,79804727271438
0,81087323033893
0,787248217533285
0,796148253519199
0,755103438654041
0,778437911044307
0,755935335865528
0,77443573887798
0,759697828918326
0,757226629936652
0,735467384570115
0,764958052457023
0,723338653777274
0,744885982709747
0,746254517459088
0,750152028075551
0,725740643070779
0,726023348614439
0,715528946581751
0,742144123300075
0,714110265010291
0,731603095290226
0,695758225916002
0,715138820459688
0,704021608809817
0,712891531085332
0,692038116304756
0,704713292670694
0,674831763551672
0,698524291595856
0,665986137964358
0,674256827683319
0,672760793052671
0,678849317638762
0,65519430241597
0,67401121084114
0,640812626242911
0,661834328896876
0,633360182176302
0,656716818281262
0,62486621781109
0,649802025549179
0,623246871754283
0,631186473359034
0,596831356536975
0,623978319609407
0,617159126891115
0,612343755931439
0,605684534899314
0,623993847863283
0,597125297041979
0,614741636004507
0,579960547229976
0,590250070533962
0,583788189191084
0,594595551268991
0,575625489149805
0,60740358412145
0,573092107363322
0,594640227514202
0,548219673676397
0,562327529922464
0,549149581788587
0,56588400975764
0,53490262071138
0,542844089333009
0,539677217067161
0,551266451344298
0,543169120415925
0,545616084251168
0,524671864653483
0,54129231833402
0,519219313521249
0,536903428729375
0,520945275588135
0,529753688051271
0,49894180846649
0,530248144895652
0,501490663292094
0,521443526189229
0,491412197614276
0,516283484389738
0,488140352048213
0,499396609159023
0,486171663218773
0,502567097086304
0,492817654942386
0,491062548316937
0,480842590393341
0,485106824114421
0,466336106465935
0,473799714290698
0,465197582310403
0,470568128784767
0,450011551810706
0,469890139468155
0,448668565254335
0,459168185060417
0,446032351998148
0,471935455859226
0,432131976542985
0,452601895716734
0,434852983839302
0,434345840885852
0,436072435415172
0,451599970525732
0,43088233576048
0,438697863491347
0,417821435681369
0,43615295759404
0,417161497200375
0,422815392032912
0,411699970584577
0,425732204570884
0,409835181077737
0,429395571214023
0,394986540565038
0,410625594821477
0,396960807360149
0,407450354391156
0,383709294430548
0,405148229058677
0,388511950228536
0,400310345781151
0,384741795025282
0,397235889538414
0,376632210538883
0,38734849201118
0,369101928352844
0,384980890681904
0,36622641530032
0,376177701977478
0,363695746937362
0,374281873282916
0,36604810787265
0,369045448141942
0,353345608807946
0,368797546534946
0,351367997143367
0,363045694520809
0,347721274811117
0,365201964181661
0,342423285554032
0,35936469954881
0,342174752335523
0,352377271101856
0,344664751456934
0,347735548608566
0,328889836309927
0,340903804434928
0,337545920404376
0,339697914664263
0,325029625667034
0,331550766241741
0,317902652535405
0,329484028270597
0,316886774516832
0,322924562589663
0,312059058320817
0,325799761058967
0,312735642781488
0,317416023919222
0,313044330551084
0,317650887586671
0,299414007465615
0,311222947569741
0,303830465040269
0,304976436460425
0,298086402457839
0,304224988018218
0,297880107090271
0,308629673362121
0,288603364649085
0,301650186909828
0,289556100542284
0,300899924240792
0,292269139806801
0,299427030530343
0,282141375170955
0,300659888102695
0,281313643647679
0,290704399102493
0,28077713109399
0,290748241703139
0,278872636451475
0,284385935313718
0,276538794890435
0,285034285954069
0,279971830018907
0,28359816677487
0,269882919238519
0,286740013374186
0,269269563728461
0,280951353074741
0,271663127207982
0,287858548401063
0,271615870732656
0,281324354169037
0,273777642179295
0,27634610917001
0,272256821239773
0,281966699442342
0,275550637086105
0,294230452259908
0,273811770696394
0,288065951604212
0,281679189288719
0,288941104512676
0,279596616782923
0,2941121596368
0,278264663826415
0,298099227069041
0,284155963417841
0,299059448105825
0,282426047843841
0,302114521623254
0,288943463614696
0,300212228874362
0,297545452040609
0,303410794821025
0,297299740778356
0,3105193520084
0,302989523824018
0,309604962921599
0,308322815961002
0,316085928478804
0,304471648624881
0,322050315818333
0,309195180097393
0,329287697945187
0,314946299457123
0,331209321664861
0,318830378878957
0,339725709975065
0,32536073422513
0,34468056722201
0,329744064726175
0,343758538345156
0,340598423797913
0,350785979746833
0,342909932301454
0,353282286737286
0,343579665913894
0,360240853713292
0,35890752298804
0,371285063547589
0,368908203812671
0,379514703819677
0,37283270896027
0,386324472725264
0,378081942641204
0,398051253028766
0,387629478490609
0,403480243861277
0,410291041201274
0,417149393998642
0,406951246019831
0,424036695557174
0,413259313482398
0,437936156746262
0,418396070195291
0,445283032821918
0,425863484913451
0,452502949423528
0,437676563609642
0,457431208419978
0,444944985938473
0,459118754757504
0,441840397153162
0,462224303394825
0,447146452187356
0,466065920080651
0,452273047089154
0,468600002067637
0,448269337031981
0,466764378765253
0,447742595504636
0,465078191134034
0,444797929399855
0,4590634731605
0,443950317686645
0,455629355542733
0,44867242053859
0,451009706852688
0,433837835341414
0,459873387610216
0,431487031578173
0,450806041024439
0,44610169231183
0,452096991317133
0,429430182021407
0,446335014154831
0,433245571375228
0,44026921148758
0,433166334536793
0,444194244771426
0,434633471545399
0,446186055646985
0,427726094561564
0,438734895960527
0,433606832724701
0,442374095236868
0,429478432053574
0,434414616985785
0,42228775341691
0,44217166059041
0,425044289359178
0,440503628520544
0,410879508607872
0,436266696538202
0,429011907715209
0,437159743112028
0,423894856090274
0,438660778303975
0,423285324330518
0,431577301565814
0,41175493138531
0,42530729772053
0,414681192857394
0,430910097742789
0,408205727428619
0,423570786305881
0,408210490064748
0,418274098065815
0,403594075891524
0,416679572826928
0,394509649822095
0,414098595817131
0,392800369524772
0,40092633409561
0,388144533427138
0,396761620874645
0,380698084826572
0,388946731441711
0,383112758897745
0,382624158664397
0,363245818955568
0,378990174546639
0,365727499369018
0,374265269804816
0,358484290739123
0,366068912114209
0,343980671624621
0,364498603384501
0,342733217963659
0,358210407088987
0,344357422217593
0,345997510584383
0,334499343023704
0,338709334817464
0,325070763120751
0,334932060115357
0,318248853430721
0,333403391795273
0,316673593192053
0,329291875005036
0,310507483643703
0,319305572283669
0,302121848586635
0,310764264413943
0,30075255206219
0,309823156324983
0,299077513450176
0,30339173445272
0,292151007225236
0,295655512976111
0,286359426221694
0,293601986530066
0,278660143837581
0,287899241957302
0,279322859803247
0,287436140505849
0,277581440740946
0,283666179327171
0,269096041407443
0,277342996321798
0,265911798696006
0,272485867437505
0,26149809595914
0,276565581355825
0,260411752242499
0,272859270259391
0,257356821007717
0,262450730646694
0,258278149194642
0,26197554103816
0,250178582538319
0,25849630968833
0,245854948236499
0,258825759807463
0,246974872995485
0,254057531583642
0,242336351916043
0,253878751179657
0,241010201974212
0,247413542014729
0,238217873545776
0,242843958191969
0,231928239640894
0,251264220595417
0,23210837711641
0,242378134455235
0,234187102037562
0,238003904925382
0,226281014302467
0,235983079322257
0,229603379136878
0,23862973986583
0,222426722497707
0,233699280075488
0,224507841396379
0,229598537935143
0,217579833632516
0,228262862263606
0,216420516754772
0,22423779624052
0,223158953553477
0,222967636560719
0,214405158884892
0,22451353069081
0,213700652193746
0,220639892698217
0,215088846857506
0,219573604173015
0,209148624463386
0,218650382849938
0,209676963154623
0,218296547481606
0,204772994162065
0,215883422100149
0,208013615761578
0,208982682723761
0,20785756362892
0,210962090268168
0,210195752888589
0,210848707812508
0,198604614260544
0,210908556032158
0,200171582098466
0,205560390003037
0,196693770252858
0,211577021103641
0,200349510728473
0,20559702566981
0,192960289676492
0,203061652642784
0,197573608169333
0,209104344349851
0,200449118050444
0,206888726112798
0,197206223553212
0,202098167715269
0,198189503958639
0,199695181430261
0,196138847945194
0,199079396361789
0,190120568355542
0,196644851700604
0,189183514408556
0,198785875201177
0,192691700104763
0,196049950035255
0,192054670406281
0,198984057014068
0,185798000033892
0,193621872143526
0,18688274624052
0,194794139558574
0,186581610026208
0,189862629279087
0,189313357814138
0,193613889757484
0,184264810042065
0,19206909127821
0,185476041268145
0,189911846936098
0,179814869715701
0,188885260976731
0,186659793817026
0,187975134109011
0,184726537202365
0,187830595196099
0,181302221540226
0,186961193260844
0,180275097543683
0,18642756647122
0,180550840556029
0,188480132433204
0,183045776679957
0,185243216216686
0,179186955775229
0,183547415612023
0,17654982859341
0,183515604820862
0,180277530028255
0,180763456212262
0,175059506655442
0,184660985285283
0,179351042037784
0,183349805847065
0,173860809492498
0,182124042713167
0,176555782691614
0,182291527398661
0,176070838578989
0,179794851490291
0,170269734603271
0,174269765204961
0,171360213028689
0,177653776532234
0,1705735516616
0,17634136766714
0,173082156441778
0,1766738436429
0,170966413768721
0,175975982162348
0,169610098001889
0,172723077124696
0,16628779256347
0,171064537727611
0,164079884110883
0,171423856015319
0,164635073011366
0,169166886013281
0,160549021629046
0,169685861873375
0,16166016093067
0,167946382788492
0,163851195352186
0,166626421979791
0,164867067112795
0,168588529295446
0,161330136342191
0,164114015641388
0,158089153658677
0,163946989939654
0,155179878769166
0,165097372771712
0,158482340037874
0,163112378496663
0,157158274467143
0,158591179153908
0,155308715394537
0,160872293698453
0,151571598168426
0,158757311026541
0,152879771292486
0,15619421445757
0,151210345106005
0,153637068858896
0,151758002714051
0,156815386201904
0,151246522312962
0,157160527904874
0,15015007155566
0,152238580470863
0,148760610160207
0,154648843792139
0,146380963803594
0,152383640017116
0,144118054941769
0,150057306939806
0,141814365245935
0,148633414978402
0,140429665482718
0,145490162097285
0,141376180846084
0,145132281616126
0,1385413180735
0,147859088530124
0,137708777776357
0,139937841141288
0,137159299009947
0,142543105007884
0,13509609870798
0,139666343913667
0,138085999465463
0,141836704292116
0,135162816442347
0,13490006755339
0,132756039945499
0,137769042387116
0,130699163490158
0,133808982991372
0,130701495079903
0,131648844963675
0,127712309127294
0,130572585208014
0,127510884142612
0,131160766513411
0,125203720636239
0,132380458614631
0,126317787299606
0,12979327865778
0,12627169960923
0,125520858536943
0,122685986506754
0,127185728272406
0,122755683490917
0,12571949228793
0,122818939535664
0,124649454812975
0,117356785529779
0,122358056536395
0,119241407464732
0,121778454483769
0,118136533722828
0,121934266206537
0,117353502405345
0,120601300128483
0,116071512450256
0,117530758026204
0,114616165005624
0,118964319444678
0,115565572878874
0,117163476118853
0,113989473444215
0,113985371276464
0,113462457891209
0,11530150362132
0,111631771275291
0,115952019013972
0,11259231927804
0,115525862048066
0,109197006048243
0,114861899577208
0,110238910988506
0,111057865590573
0,109185660428288
0,112256887175121
0,106781547927803
0,109617058794992
0,103500971257173
0,10986336545593
0,10754656843533
0,111535285474052
0,109356544711809
0,10948349079831
0,104453846569403
0,107998487823228
0,104561935638834
0,110942616994512
0,10557179812029
0,109485675366781
0,107360901920062
0,106513216833149
0,103264403293026
0,105959256456907
0,101447494726289
0,104123404253508
0,101869722195778
0,10184148290086
0,103056993049629
0,104507175404993
0,101418514992897
0,101539278420522
0,102430961299059
0,105325313303198
0,101183714404689
0,102691233642089
0,0977729117549386
0,102835875913142
0,0992546595805026
0,100660072715192
0,0977779142564471
0,102591775603246
0,101064073808573
0,101795915545847
0,0994985009407321
0,100451787036411
0,0941558717618476
0,0987289995045187
0,0996463367993941
0,100863364619707
0,094919069341119
0,0977633383911309
0,0945096911109434
0,0972228711079077
0,0939062395267286
0,0974573891582196
0,0968835541401327
0,0994300581468135
0,0961988485767279
0,0978883763883734
0,0960999868195401
0,0979686179185703
0,0917932275353618
0,0974029082576948
0,0950977810972902
0,0957402443403655
0,0933135085724132
0,0970263086218408
0,0915515154989891
0,0939810832647259
0,0910234643414897
0,0934650320036469
0,0936373685655963
0,0956798510445422
0,0908280273335599
0,0939660291032357
0,0904800075956285
0,0929555455044143
0,092473882905679
0,0901044710543881
0,0917104951745821
0,092364612505599
0,0888462024204249
0,0906927512903359
0,0884046396468322
0,088752202573462
0,0883875771600995
0,0909064120088872
0,0898712207625856
0,0901840048059245
0,0882992720221385
0,086625032410539
0,0866272395416786
0,0890791687198072
0,0870104139093361
0,0885711328666396
0,0895775789956134
0,0888718440501724
0,085666779802015
0,0885259502791304
0,087066081911184
0,0889276303025456
0,0856741296541871
0,0877221111687315
0,0838245745198823
0,0865653645257241
0,0875067936546216
0,0857197662847376
0,0825336990273267
0,087032450496309
0,0841452466767405
0,086571708660163
0,0839768420410742
0,0830754135640729
0,0832605019430333
0,085939468653405
0,0826832652828619
0,0835406301576306
0,0819905726335082
0,0862656374179304
0,084733253102834
0,0826915936010087
0,0813894218895037
0,0840204020373079
0,0806407835284231
0,0834378767340138
0,0813222405704748
0,0782724871484963
0,0792363589002263
0,0831343137866047
0,08069848965786
0,0788887992069416
0,0787347708986999
0,0779231645933055
0,0777710235662117
0,0812372476508354
0,0787750959147137
0,0775856800437558
0,0785665404910628
0,0796139209807999
0,0762042434793181
0,0793361256500728
0,0763958507905572
0,0737746033793243
0,075265169462193
0,0771788279850371
0,074133276932316
0,0771174792860668
0,0749486158141811
0,0751307869121191
0,0742997965032804
0,07491087779303
0,075111636369518
0,0740366852524245
0,074487686557587
0,0747730284273581
0,0713903088209578
0,0732134074012611
0,0721701315162295
0,0721419507374657
0,0697876606934239
0,0687428864251625
0,0694562438053822
0,0705457338677976
0,0699617382425549
0,0689622085241149
0,0696949324169141
0,0697990438032442
0,0694368904764001
0,0687598692999742
0,0696226176261851
0,0670967035584296
0,0675292872549687
0,0686265171263908
0,0678521676535342
0,0683885690869513
0,0687675748690802
0,0662368483913296
0,06575504120232
0,0681840126760694
0,0665957403332631
0,0650516951050753
0,0668980244797599
0,0662637288875117
0,0626713466671363
0,0659488658737207
0,0654752885736476
0,0624545072836801
0,0619745831051535
0,0626900166178321
0,0637042879807045
0,0623519519321321
0,059087410160733
0,0628477594467383
0,0645706185116632
0,0634526945308961
0,0618051632947803
0,061243601413513
0,0614941391436894
0,061528015616201
0,0610660234945314
0,0598481164225021
0,0597834580008722
0,0595047498488899
0,0611458675954848
0,0595177650019187
0,0600379999260799
0,0592217412637301
0,0593719569227131
0,0572118741372546
0,05720254645757
0,0589969951956077
0,0556454083789081
0,0557506645097532
0,0601567784495076
0,0563234630646798
0,0562169172266512
0,0571933737786492
0,059113108555577
0,0553574093439349
0,0570651202305551
0,0560223488883445
0,0569165020132602
0,0547309670497348
0,0563915715430159
0,0562735087043919
0,0569922714411575
0,0543809892543182
0,0571081670269557
0,0560245786965148
0,0582708896584759
0,0571004319387463
0,056917277645721
0,0554925341977425
0,0584134020495784
0,0587302572500367
0,0566853368004014
0,0571085865974939
0,0627340733632155
0,0578867167581214
0,0611475205342478
0,0586653944101092
0,055396262189369
0,0574433641638811
0,0607556051635398
0,0583445186199812
0,062793215630399
0,0621458555162807
0,0643037232731288
0,0536142482533061
0,054429717016973
0,0548300610538841
0,0595772318005788
0,0500422273771055
0,0567925292513081
0,0565789706749352
0,059634086324202
0,0479340688021396
0,0599131523522172
0,0509360758800505
0,0593604225818718
0,0534734142403439
0,057504970905676
0,05654374984603
0,0548045301102436
0,0539654708816816
0,0595229146583791
0,0437187035182144
0,0578141916275156
0,0511815300736135
0,0524054084690938
0,0445351432944641
0,0571919393488593
0,0453359539351562
0,0562288106073718
0,046653662049295
0,0544139174447722
0,0412471116031224
0,0551802228874169
0,0429033385766809
0,0543018644270406
0,0406762536276726
0,0568098263612935
0,0471699447956807
0,0604780580768799
0,0479289235492013
0,0581096712543858
0,0461976126899606
0,0515536904263737
0,0467692323717251
0,0641561083393228
0,0542208077982811
0,0525842460605442
0,0469935971480457
0,0453379553530379
0,0567236815419668
0,0486844045098947
0,0534796617265607
0,0387259873129342
0,0671673916795104
0,0407980086965697
0,0658941981136988
0,0314041234064968
0,0726733410754357
0,0335713384271716
0,0694860304185362
0,0357048019569545
0,0672826301867133
0,0342846754524695
0,0599251936511912
0,0452990129194454
0,0558521800547896
0,0494557687748469
0,0500679141831954
0,052147802184986
0,0467490343525439
0,0496949615461814
0,0504475029780246
0,0486195691005294
0,0516130412676734
0,0432786418704778
0,049514677930765
0,0449674206683143
0,0515940274272656
0,0449472690698581
0,0496989986672738
0,0479021708024444
0,0493055786502466
0,0453036365129333
0,047921639101322
0,0451254814866614
0,0480158704204034
0,0432837324333384
0,049522176921118
0,046100074415537
0,0488464517705092
0,0454449227341784
0,0463415637648237
0,044381524076389
0,0475634731478118
0,0448819649120678
0,0468718370562672
0,0450954279186603
0,047384985513823
0,0448388363156122
0,047598495384251
0,0460214939507352
0,0468425970759012
0,046853243222697
0,0487161509968463
0,0454503155935427
0,0451307044704087
0,0445105337100992
0,0465084643885382
0,0467505574773915
0,0471729054036745
0,0445206069844793
0,048410770480875
0,0470038022144581
0,0481788149793064
0,0462508910175343
0,046195841691409
0,0440623339458418
0,0454950757936012
0,0457242534788772
0,0489386518709064
0,046241727696868
0,046335331087165
0,0456196139008507
0,0499443230156735
0,0470562618797663
0,0446969299807597
0,04394996468391
0,0465686120206737
0,04396294839588
0,0460498692860527
0,0443983089971744
0,0462529769909343
0,0462840682151007
0,0455368285340352
0,0442845601543361
0,0461066927296999
0,0473698356903183
0,0464402008365171
0,0466085594027412
0,0447925796472024
0,0469998690419839
0,0458746523020539
0,0443466350606357
0,0459658270774415
0,0473587558433437
0,0451167438716036
0,0463113386237085
0,0465075358441966
0,0451531728544497
0,0454597453069976
0,0460273389361577
0,0467744902558116
0,0456199381714556
0,0469944799302655
0,0453316306575978
0,0452530424187651
0,0460061522786079
0,0454867940779876
0,0450595355991044
0,0477821357261215
0,0473820085195595
0,0477765804113618
0,0467076930169492
0,046484930932671
0,04728404419839
0,0468732176247276
0,0467515570260411
0,0453192493610668
0,047425050583299
0,045949148298458
0,0468724300115061
0,0455323217565215
0,0482070099113436
0,0499829956449034
0,0483964806699456
0,0496259670390896
0,0501489964868022
0,0464356252898425
0,048047052661581
0,0482544361976648
0,0463779299616085
0,0485273369179664
0,0506043582093904
0,0483438924985559
0,0485625804957487
0,0470285624509328
0,0479941959998252
0,0479676504727292
0,0492037580574611
0,0481852674767363
0,0466840621476005
0,0473350900201448
0,0485048272433305
0,047314775039
0,0480219408690168
0,0500450301255748
0,0492214294045142
0,0483145963159595
0,0478765163454012
0,0470919574037802
0,0508815598542527
0,0486610720983387
0,0496191175503452
0,0489710305418005
0,0506517035063146
0,0507973552377056
0,0513171337607754
0,0490553991236633
0,0512382017650075
0,0483068387743262
0,0492410780346063
0,0504134041713735
0,050993893985596
0,0506020284093745
0,050229903039913
0,04873018628586
0,0511563274419178
0,0504883132808603
0,0504488645988267
0,0513833046869357
0,0510827409119456
0,0507285756185712
0,052540994157827
0,0518836040766337
0,0510662972355187
0,0495573851383503
0,0501031025110666
0,0516355257621077
0,0518898052478919
0,0517680497530117
0,0529511800724959
0,0535797802557907
0,0538873019609675
0,0512974275022027
0,0515197658066055
0,053160513467112
0,0517849138292464
0,0488474870394899
0,0529723879054263
0,051092908705399
0,052778218558809
0,0517918407101694
0,0531709687271352
0,0508771180427794
0,052827739129387
0,0502397214847074
0,0521815139232607
0,0507724454353976
0,0506203129759842
0,0517014328078289
0,0515863111838656
0,051774621309756
0,0514828676046702
0,0515306514245747
0,0519110881451401
0,0510493057509735
0,0516639984652368
0,0493571108307759
0,0514999850035344
0,0492469350790749
0,0478310113136749
0,0466974372079982
0,0504325159278399
0,0496832607914103
0,0510974795215547
0,0498855507839378
0,0512236858343588
0,0505730903355792
0,0518638098054339
0,0491059333335695
0,0517230987381805
0,0491578506221631
0,0489894841451807
0,048742804963419
0,0525976949502696
0,0486555284835448
0,0496010410657852
0,0482222438997047
0,0496798713946624
0,0486375330869731
0,0496409375829573
0,0473948355090773
0,0487916441210676
0,0466841702928412
0,0486208762469055
0,0491101707297179
0,050895956510008
0,0471936612036538
0,0485799323949459
0,0462934662748232
0,0482279872176764
0,0482116374392501
0,0504361684605176
0,0469495253393994
0,0494619911486182
0,0483549264410768
0,0487042957685717
0,0484168128168544
0,047521568837232
0,0469074129672101
0,0463450195536316
0,0479518842033947
0,0492908323921109
0,0479450196333945
0,0479992277522846
0,0478696034435198
0,0490344293212261
0,0500314264290359
0,0479328991677204
0,0466000286662847
0,0493262002978988
0,0475844300199608
0,0483997876666804
0,0477148656777892
0,0488067715280056
0,0462844220833702
0,0479256915924216
0,0479775714267643
0,0489969317974847
0,0482239810253953
0,0487425308650401
0,0458059162684957
0,0481027338143781
0,046849457475228
0,048720215040589
0,0454738256873564
0,0489934996268994
0,046294432110916
0,0528755457065531
0,0481807664695033
0,048128274906523
0,0463554995990464
0,0482305295687376
0,0479905008638928
0,0497411038522035
0,0478462427076459
0,0483621212295029
0,0463759518902606
0,0487098431302262
0,045784142914308
0,0487353842253436
0,0462598880342308
0,0463694726615744
0,0457404620351895
0,0454344716275423
0,0456811134204269
0,0451560916798868
0,0474619199720394
0,0471477353550658
0,0457902213306035
0,0470085704734838
0,0454114421606735
0,046769956628954
0,0504695045384074
0,0493560765798214
0,0440190120473346
0,04713403944555
0,0466952635718271
0,0465315039440673
0,0445824150737357
0,0484827191724499
0,0451834601294875
0,046043072432283
0,0446854814881529
0,0452979653762665
0,0445891045642717
0,0454078033267665
0,0416899535495852
0,0425906959920947
0,0440760062597937
0,0467301869883584
0,0444486403522783
0,045282288940067
0,0416198733253786
0,0446376965146721
0,0410129951556714
0,0439712343182873
0,0435068236058865
0,0448457273794665
0,041716812043583
0,0498078182797735
0,0405035550098483
0,0464147018531147
0,0400416290865003
0,0428977271811907
0,0406065158572687
0,0437320804907788
0,039051199390659
0,0425179822849661
0,0408609350133076
0,0431949031088135
0,0373682525955018
0,0427144752768705
0,0399298869684996
0,0423652832357975
0,0398292095042073
0,0426645701840393
0,0410197370861375
0,0423474130286409
0,0405163469507568
0,0406471615594288
0,0364481324684217
0,040915051126472
0,0374361805134986
0,0413975043021604
0,0403365441309969
0,0445320915099811
0,0424648625784207
0,0397340818698609
0,0394074064489658
0,0443155476047394
0,0431032588218419
0,0378103449838294
0,0390317898271525
0,0371245078276337
0,0390972310884141
0,0386795883646269
0,0384925409917687
0,0382517965734546
0,0408654387557922
0,0382646327408112
0,0385361214018805
0,0391787099852666
0,0370158198345802
0,0387775554176812
0,0389951081338397
0,0394051047038605
0,0372437351464787
0,0387058821037179
0,0384754931093032
0,0403437281257944
0,0412721875982956
0,0405221609934123
0,042550717219416
0,0403862690334535
0,0399224879449654
0,0398868356959348
0,0384898680518463
0,0394928715933847
0,0394057560489581
0,0365995121578264
0,0380944542288693
0,0403556065209735
0,0391607053958091
0,0373791236922479
0,0374480646452008
0,0422353510078504
0,0391628610639036
0,0411254950447423
0,0399910246837003
0,0374729502296109
0,0380127553266654
0,0373529671224394
0,0371716780751374
0,0370017691071516
0,0415689368215132
0,036067211729195
0,0429923530678034
0,03624492898372
0,0455841677182497
0,057686033301999
0,033690085293205
0,0422298996264259
0,0337802365671018
0,0412415571719383
0,0341826491772875
0,0420304280037978
0,0347792064446976
0,037449126668766
0,0359845467908468
0,0408130620529192
0,0359662960642612
0,0407262349380029
0,0334386037394451
0,0416520735644573
0,0353759291170475
0,0407794519907214
0,0345365376745062
0,0402654598664967
0,0341453577350511
0,0455465153299934
0,0457031624535854
0,0423639933229871
0,0361713675144397
0,0440651172830464
0,0347404822214532
0,0593168124578953
0,0332340147674448
0,0400048806557107
0,0347726856175496
0,0402356748387214
0,0348433535065319
0,0374874567429044
0,0361028854531395
0,0423154728933596
0,0440026219604213
0,0366622098790833
0,041174910280362
0,0359866373370228
0,0379790211602142
0,0379948860338739
0,0388411362183968
0,0372508739122182
0,0359333517951856
0,0373831916275732
0,0348144140185904
0,0372476552537879
0,0339678834293654
0,04265807663339
0,0348673603144595
0,0413957174606416
0,0419151333924192
0,0361943317230802
0,0383852435409948
0,0360478915677961
0,0372152045895373
0,0468001700672885
0,0538746621591533
0,0295079014295546
0,0428331359916564
0,0334092605462416
0,0391387901881425
0,0361546279625771
0,0376240125236107
0,035952420211543
0,0370432954880999
0,0355997470745933
0,0382394013567139
0,0364876916008436
0,0368171612023339
0,0373495284962991
0,0347403857947297
0,0374396244616888
0,0346979999695465
0,0380970199613836
0,0325064020697309
0,0425015193997205
0,0372279888011826
0,0552897806631363
0,0523714703601402
0,0406247548849363
0,0487984527304573
0,0376955013496001
0,0395846093742565
0,0342792428336339
0,0394038973890575
0,0370296942342354
0,0413444410700747
0,0346437004246591
0,0398096424677024
0,0351329711325872
0,0393145260124694
0,0339435177412174
0,0404049182060492
0,0312787576906504
0,0411954840280525
0,0341892535719287
0,041502240471427
0,0314386508143587
0,041902980366058
0,0326575867804765
0,0494964498143861
0,0341705978948522
0,0463147253550673
0,0373360746908922
0,0663618233149227
0,048624481724769
0,036126541482384
0,0514416229227695
0,0315133801173307
0,0435747598079362
0,0332268021477882
0,0436366208217983
0,0422758251432332
0,0378269198804975
0,0353571898680642
0,040568383798368
0,0391867157712574
0,0389892666309793
0,0381547228244765
0,0476872037780835
0,059866991532304
0,0395323948114739
0,0386878510991425
0,0397112422367984
0,0360157940661072
0,061256804129106
0,0298614277971356
0,0486464828258249
0,0365783694965561
0,0404219316347474
0,0369076451852916
0,0388161157590005
0,0397053709156214
0,0462158659107297
0,0390152360097419
0,0342357441044651
0,0410259391932621
0,0357416011975446
0,0423601571196003
0,040882669063254
0,0458711593709706
0,0487316312898813
0,0353124831950104
0,0431807653991711
0,0391100007235349
0,0387884184347136
0,0387744836101545
0,0384687806336477
0,0413269140718226
0,0442454801580482
0,0512313306880089
0,0416193947189537
0,0531744583494687
0,0454022178541814
0,0359485186651793
0,0479797348800372
0,0480584599565009
0,0430574150328673
0,0452411311698577
0,0447337385022622
0,075731421776883
0,0269168801917727
0,0660947092717467
0,029840065586529
0,0516923915244935
0,0323045305351545
0,0504255975959688
0,0314325531023588
0,0563693715200869
0,0415052283551514
0,0441432976484558
0,044915837235338
0,0472475060933707
0,0514710363433224
0,0400427215573975
0,0475414878183545
0,0390591931141742
0,0466002750091934
0,0445209142783703
0,0550555374458232
0,0406455481928825
0,0833338784060965
0,0492426563220715
0,0488101658842837
0,0538847740926704
0,045973655252419
0,0750150748800943
0,0423389827690091
0,0468499352411988
0,0478558527657529
0,0411840794892498
0,0536672415990859
0,0449456241860819
0,0709498979739454
0,0483856972879041
0,0417761008766872
0,0565577573672539
0,0485213609601575
0,0698356816238893
0,0513118001508865
0,0456345239243776
0,0480894124284291
0,0565150508533706
0,0580192986845594
0,0663002605709551
0,078619191686358
0,0465207918329263
0,0911095277709442
0,049459987912172
0,0753828989855217
0,0486057541508711
0,0721442188088615
0,0542860107961358
0,0747721766280944
0,0482707691848658
0,0709790021700243
0,0518197940724543
0,0897786213149906
0,0457673671841704
0,0703315205687034
0,0570031884151634
0,075832635820796
0,0794907939602494
0,11061968249178
0,0593463731685866
0,0749591820292253
0,0633587527217593
0,0875489163682654
0,0591394599697893
0,0637269213333921
0,0628264629862035
0,0622934237700489
0,067404999203586
0,0734466354378209
0,0724313575047876
0,069168980125429
0,061536921088546
0,0774863539496727
0,0650144478326838
0,116073766251575
0,0801623359312665
0,100145489634235
0,075895866169724
0,104024405226629
0,0819329198442772
0,0773715646294076
0,0814564045438286
0,0763827884154595
0,0811389250860274
0,0771668026515398
0,0805482740011385
0,0871971016070346
0,0878910795616415
0,103118994847476
0,078246453460203
0,114893172088573
0,0737591996121125
0,117457449322399
0,090796354697967
0,179644715067682
0,104470976689299
0,0941911683569943
0,127649314393423
0,107165105681428
0,144811607402197
0,103737320594681
0,11118442213048
0,109801958023342
0,113410906760124
0,115783142559367
0,130635597223233
0,125216129438818
0,13292395424084
0,128894825624939
0,140198767467498
0,147380631509189
0,203968076174289
0,156823671615855
0,158892841289786
0,150833486578364
0,174325825777471
0,167790452818761
0,161604295152497
0,157393897877815
0,183342393985406
0,15931369084783
0,225186759788086
0,165694321294508
0,192743531000261
0,182432646601748
0,2056654473642
0,199292893069316
0,214459314126005
0,234362432822553
0,189918335266867
0,221552201951393
0,194954258647869
0,229222184924868
0,216377334242921
0,24661160280805
0,227748313915288
0,230111368672431
0,234397684988183
0,232886731794359
0,237473411264915
0,240276851140258
0,252642876067873
0,251692568084108
0,282791431204251
0,315168861402989
0,1823296362801
0,28544243267709
0,238053366761865
0,275026450105542
0,239343271038132
0,296332398918415
0,2750589679288
0,27031128403573
0,273864438958616
0,247875538118877
0,26184437173188
0,256029096353614
0,26090527896699
0,256815957705101
0,257154819234568
0,263844582649594
0,246248180372832
0,289822548019158
0,223403096188165
0,325793982491333
0,242344784250377
0,268473093972957
0,246297549632156
0,260681133447837
0,235131584741605
0,267180868027965
0,239441677487484
0,270270157000514
0,244188311101368
0,250659759131306
0,249729452517769
0,255310493244081
0,269545818550766
0,24603263500029
0,241703276307502
0,24085216709892
0,23002326562685
0,258366202920453
0,230157080622323
0,282304468629648
0,230721987942986
0,234866878567074
0,232771700268157
0,234532432638895
0,228330556622741
0,235923740442351
0,229301157628564
0,237968456734738
0,226454049535335
0,235476097185475
0,227586404032515
0,23018049997493
0,234154777887804
0,232032597872739
0,231238353210942
0,229653134162158
0,232397165348788
0,220529225201687
0,225812641391156
0,227728376590721
0,227507034875463
0,232295593924574
0,229225497142722
0,22469705756856
0,223092545443315
0,22752173832675
0,224626066991727
0,222794029327978
0,224943928000483
0,224239933918654
0,226883110252336
0,218269450029561
0,222406987122709
0,220522560444278
0,222142895636067
0,22039621616522
0,219031561385656
0,213694923499612
0,217727091414038
0,214749582085206
0,218305321431943
0,240146796975987
0,204438438715541
0,244880722128077
0,196274300857709
0,218206563702685
0,196858633619968
0,206491145575764
0,211144327067408
0,222271223474494
0,223278518993789
0,195992473406824
0,196201572243001
0,198205521442166
0,188517452580707
0,201287140405974
0,185480421200176
0,187582667073164
0,206325713155854
0,176271082654304
0,288695620739728
0,1893065028768
0,253176184794416
0,176051991368978
0,195362572477877
0,177393396685752
0,20309553723747
0,177688646631761
0,1631584154022
0,191220088216751
0,157447998875436
0,192898663214748
0,160515363872401
0,172650800956455
0,173183241038334
0,17906285403223
0,185817463499108
0,187005839517953
0,179278660863654
0,194408030972805
0,185389378543034
0,211258189889206
0,216330352798189
0,172833194201562
0,167669530739783
0,153630130805801
0,171195372288761
0,17401289816518
0,154688019321115
0,174462650724598
0,144073438651475
0,166225175384342
0,14230663814977
0,177655401261659
0,151388013568161
0,174238309084127
0,159051821531215
0,154488319942821
0,170665576005017
0,138838455188062
0,202024191456182
0,147016405795874
0,1822218179807
0,142942086184209
0,167516768783639
0,151872497470206
0,185596449794758
0,163394937191075
0,145124794282807
0,152348437970476
0,146444731081092
0,148548967072562
0,157999137672016
0,140747022111971
0,176121782041525
0,174276436368896
0,205609473331781
0,197623767387429
0,16913357026586
0,147265112182595
0,140866677558881
0,143564291545603
0,154433689273937
0,134539218608539
0,17038861448923
0,109709055898074
0,175670153868957
0,1491600244646
0,169704734889001
0,161829870453718
0,152768780857493
0,152084545133432
0,162543774407218
0,163216775884616
0,20638899532215
0,17367898551332
0,191286396850822
0,159888129332335
0,187275146776943
0,177285958940909
0,177790529084786
0,17990279752547
0,180831864888249
0,191341205814866
0,193662582376546
0,201674679139049
0,201914636193263
0,194597696612188
0,225002689976177
0,217640871707161
0,23673167414565
0,246726728586948
0,231613651716159
0,297661772969051
0,227534599419034
0,27651697187498
0,248092860236981
0,267342001167186
0,268390648118335
0,266877931480645
0,287947618275309
0,29270678985537
0,294322573958145
0,302885241159538
0,288208080356724
0,310982872161277
0,293680148341531
0,3317275242421
0,31224289870034
0,378898788372305
0,289365202448359
0,37018861193569
0,327347981146603
0,331902760743798
0,332913104840186
0,327571485669642
0,339200380489086
0,323755963439612
0,334918420098443
0,349358193065358
0,340529139301195
0,352677153757868
0,327804718244684
0,347686396274131
0,336384276157726
0,346266649026632
0,344703185163469
0,345948005944674
0,355575839821726
0,347460314267575
0,358866621683754
0,386886192774248
0,362935387498082
0,395503349350542
0,353945432709979
0,387042451360398
0,373406162870498
0,382365380119044
0,385908091368202
0,39135678753386
0,395266196748434
0,389030007702715
0,389323092943103
0,390802462990113
0,392256920455913
0,42015666033197
0,396759190485429
0,421588754893249
0,383753827609145
0,44263221857604
0,38736725646018
0,455047101102728
0,418499574347145
0,424977917225128
0,428248916208723
0,414015950898185
0,424822125830225
0,42031732963176
0,428316148534473
0,421147746916806
0,43151736008186
0,421896496379716
0,428857993547009
0,421114889234898
0,420560592463548
0,430939108108278
0,423498289801182
0,43136484837582
0,407041527055954
0,41600425472545
0,401812190574458
0,425755885008535
0,407659214696548
0,434378738151767
0,413728193464467
0,411587748104975
0,421460058632285
0,42568139084097
0,407864776132875
0,40997561947168
0,394958665533661
0,413193088429469
0,400988578302442
0,420497710821554
0,413382050430761
0,418275153838631
0,425733684802413
0,411147732410984
0,414422133102924
0,41369613508952
0,422422677373199
0,419434160259568
0,430926152114814
0,424787743843366
0,439698552646964
0,430747459887338
0,437295568280371
0,437188518810939
0,447430193627376
0,452992077225736
0,443285448914988
0,439241560103112
0,439511871623638
0,443806654877551
0,442304489878258
0,444850787052875
0,437434512237876
0,435153761855834
0,434527219317616
0,423561882685946
0,456483287956824
0,426192534336343
0,44922316604553
0,427720031045042
0,428807343618785
0,411215241065773
0,420134624915047
0,413431267522772
0,416214367827602
0,417134947037141
0,41151141458649
0,405837772617119
0,40335849871186
0,404234109323396
0,401113809100657
0,400571404342661
0,399437181572334
0,400367759234754
0,40190576314806
0,394851305434958
0,397647324516313
0,394401861061123
0,395050424037397
0,384978151567504
0,400353033422826
0,399014032701424
0,410839627892387
0,393029109417295
0,401948870228244
0,400646244732012
0,394389122262846
0,393181158594647
0,386585196661016
0,393724363386835
0,384693507502902
0,388462642085269
0,382772221617074
0,386247270032855
0,37715425353052
0,380608416677511
0,380595566136894
0,378267248170817
0,370417492636829
0,374115959594722
0,366849495776961
0,371906027497617
0,366403674442698
0,375154774497705
0,362300544796767
0,366972315205476
0,366813939900539
0,362334329751564
0,363776120331061
0,358627932506442
0,362623760915177
0,359167529327538
0,36068693432323
0,355989002423287
0,355227721988623
0,355069850584841
0,352819294335514
0,352774491399736
0,348923978505227
0,352553796890621
0,349620438093589
0,346481687970214
0,346799761409133
0,345570023959891
0,341657167512622
0,342055231179354
0,339416175963063
0,335305840185886
0,331372287567015
0,329579054328461
0,327844264694897
0,322261777357769
0,318235658101498
0,318855777540929
0,313867275794866
0,311181612611314
0,309344411981948
0,311947499175606
0,306862359569838
0,305616980793313
0,307007185487194
0,302980244880933
0,300579820432374
0,300171154577523
0,303698014256419
0,301706172368267
0,300296224148407
0,299401040087174
0,300406105210393
0,302775648778121
0,303288697176106
0,300863132250142
0,301901081661843
0,30287106776264
0,305224937636934
0,306140561950036
0,307974047664339
0,30660751393796
0,309146898313596
0,309251792255012
0,312342370133662
0,310358341361383
0,310875645088764
0,312441735410974
0,31653234696509
0,312422066780772
0,319612527837847
0,319399607915091
0,316453423955204
0,317798231130798
0,31840429013951
0,316719493854654
0,318519169991477
0,31652141591547
0,31588440953814
0,318820482982561
0,314250508464155
0,315287407345445
0,313303509338806
0,314468490483986
0,312863647601909
0,312725697854674
0,311462728360063
0,312730049627109
0,312286523801653
0,311308934768476
0,309990324818628
0,307833320792993
0,307562386578553
0,306866161465219
0,305609595692336
0,306179438346175
0,303847127477277
0,30226358452867
0,302802702229692
0,301030069290267
0,300242769560898
0,300835022081543
0,298784686264171
0,296577205440732
0,296832097088124
0,294456742152014
0,291517081588152
0,291658373320098
0,289770103116763
0,286822813786055
0,283816018194611
0,285954324539072
0,279953772353196
0,279710220646251
0,276349054592074
0,275108086017987
0,274481800033598
0,271617590634217
0,27001174602303
0,26621860719028
0,265061466245229
0,265093238637245
0,266609452620781
0,264512028315294
0,262787921008035
0,264042751634702
0,264499485718753
0,263350998554487
0,263242025760192
0,26538535063741
0,263030199513287
0,263517388804144
0,264016637593343
0,262161760687075
0,260290886372013
0,262559370726724
0,259258476917898
0,259179818356218
0,256251130265643
0,253893048532736
0,252901561536662
0,250691332730288
0,245453898749053
0,243620340107491
0,238266037673983
0,233951192933479
0,232378504800514
0,230731535598195
0,22870965870933
0,225847988401602
0,222716257823939
0,222355474022135
0,22331365204181
0,223799910157821
0,224914768617716
0,229265363532733
0,236009749486093
0,239964402647744
0,245015993221216
0,251088537589102
0,259087467583275
0,268529119861899
0,283126995605697
0,29526420561012
0,302239178832927
0,316085992326735
0,330816569963486
0,345413859767526
0,361945090300965
0,380542500050089
0,394427721790477
0,413217798041903
0,431616443152719
0,454228258910817
0,472871203697954
0,493947019799035
0,5178537627292
0,541424062765497
0,563296634747698
0,588980267937282
0,607980897574935
0,622564152095219
0,640068741749938
0,660081388462779
0,683436158403286
0,692769120756934
0,709884812157267
0,713230016124995
0,722853076727288
0,732743456931085
0,739019217284774
0,73369654870732
0,738380524623257
0,734549254369771
0,727229972824425
0,723851923813205
0,720376101538842
0,713531219048074
0,700704965484855
0,698769378014968
0,689218628785594
0,682050043292766
0,677198222577154
0,671317134188277
0,667622145777476
0,66327929488643
0,662505302041497
0,66068037657207
0,659732185103245
0,661280280278366
0,665676594776374
0,666791507625044
0,671119134644552
0,681472811792838
0,687484354103123
0,68946272383562
0,694718798249834
0,707455094274724
0,709183300334371
0,726260476207829
0,731703217913461
0,735514105115032
0,752077390757234
0,750139933206565
0,75187447814012
0,766990147947658
0,768409040204734
0,76938776110544
0,775397911563982
0,780948013663784
0,784970080603188
0,788306375454576
0,791144190219587
0,792287013712175
0,790710719196983
0,795824721002954
0,797921673566793
0,793516881465009
0,808900601447951
0,818658438302045
0,813364481880521
0,826308631557244
0,827786410940299
0,840723513764372
0,846344351699093
0,854160410164221
0,850042604790511
0,87717996478687
0,867934303234654
0,884854269129436
0,887268884066207
0,899186612818518
0,907456488675639
0,92426246099422
0,946774885639962
0,955720459796651
0,980537248407195
0,99334445388068
1,02442340487863
1,05149210405002
1,06538205902576
1,09691629835986
1,13373546672827
1,14725581005711
1,17155623144059
1,20992181788507
1,21862796264767
1,25495328605204
1,26813373192305
1,26258013879232
1,26613922854897
1,29416190438748
1,27213853007547
1,25187148502189
1,2252209113484
1,25222680355307
1,21863081329423
1,23743542388296
1,20624418703892
1,21063565521796
1,19617028640336
1,20836049878328
1,23196709348087
1,19484489580095
1,21487999002424
1,23817600223255
1,23596305636173
1,25365476677108
1,26646443275708
1,27124958955603
1,31591172523475
1,30009866114651
1,29889375341128
1,34065388453339
1,33206998318567
1,35967418662093
1,34606097859328
1,39791596755066
1,40603004612885
1,43269630344304
1,46577151613612
1,46639087891179
1,49697939130825
1,48486469179861
1,53858769435968
1,60196896222104
1,6040230796414
1,56054064457534
1,58259203704041
1,59031669577146
1,62290895073317
1,69746709638153
1,73154822750723
1,66451378684975
1,70048925820339
1,74985397259006
1,71580585445368
1,73749448877357
1,71248011746495
1,82863668469209
1,73060260956771
1,78882452396659
1,73445958648027
1,75544015906843
1,79379829330106
1,86184302218615
1,867151487871
1,79780005160133
1,73757935858575
1,80721495228256
1,86753598722994
1,81633339059286
1,6835257132944
1,62291437874793
1,63199750824159
1,58139551885111
1,52468781593985
1,56227316174789
1,49323727856177
1,48411176319905
1,41802286557863
1,38606356460314
1,34080594052691
1,29477127196135
1,29831294196953
1,24149679639637
1,23126150111717
1,2042088635792
1,18937366116421
1,18853383692635
1,15816779182358
1,11310518520846
1,10695600100374
1,09889337866533
1,06717203532497
1,06864296223014
1,03904035907297
1,0151654084784
0,984974338848908
0,970313677649557
0,93825002152904
0,911283909104144
0,878788690108469
0,849733571206701
0,810072413922181
0,778272983789341
0,74420139538505
0,703647502492575
0,665061206791041
0,634054746029975
0,597869612923931
0,573571305487699
0,541312839145691
0,512936576919195
0,48124641521852
0,458795289069009
0,430567683316091
0,407314446399131
0,389526635885101
0,368766745429871
0,358243012955552
0,334100872873786
0,323952374423408
0,307712993912438
0,296173086571475
0,289169287908066
0,275936037297694
0,265576365153201
0,259662141802089
0,252497251608801
0,243774003346845
0,238497169253426
0,235985831965435
0,232618398062484
0,232935178021923
0,228496574863333
0,224688176627272
0,222473401472056
0,219990234413814
0,220477838870855
0,221316871576574
0,224313096082879
0,224933508703484
0,226876897114239
0,230106719889303
0,227053263379151
0,231897184920248
0,236558711710014
0,239548012093802
0,248445444358236
0,250632924999205
0,25463458756833
0,257229993092667
0,259255846925099
0,268723933120554
0,274678633613469
0,27434444586845
0,272312380330399
0,272424048510967
0,28173666323241
0,276365342805158
0,279260629217386
0,282463815911011
0,284217546918205
0,278166936390276
0,281627820270158
0,28545026084543
0,281155105630529
0,284682647705735
0,287032388188861
0,286743406607821
0,289729812663608
0,283634739559254
0,286429720530339
0,283949579206036
0,28321572167566
0,282423703278934
0,280652033213788
0,281330918970157
0,279275071396305
0,274719032827158
0,271950941223552
0,271710568218773
0,270988758532281
0,267410135524454
0,268719079673121
0,263436367368311
0,265089759983086
0,263372015924604
0,262999846856999
0,261885580437647
0,26097166083685
0,261951770582657
0,267585540109006
0,267710324165946
0,270538602720372
0,273955451958602
0,280694893168585
0,278931134585649
0,287992260370526
0,282433755502448
0,294351418081107
0,30516553543617
0,301717797733134
0,297334149820009
0,309103051001685
0,298591835878342
0,297462812243302
0,293949390837488
0,286828399942402
0,286157817422723
0,275973675384865
0,272783152368551
0,263355592014843
0,264217085953647
0,260200883685545
0,253141397071663
0,252149603812291
0,253550160827275
0,255370969844399
0,252598603311242
0,260233501844552
0,257918750691333
0,262857585029239
0,265596020576732
0,261587886867799
0,25378087960892
0,264819466468556
0,26374682969419
0,265514200414321
0,267398674156507
0,264266061896188
0,259143029800689
0,269554465004638
0,263348475533915
0,267032498475131
0,269854572841798
0,274010382496173
0,27493504114058
0,26855389495267
0,270944077389286
0,273607171398215
0,269391966478235
0,280122324313833
0,257096729819588
0,26995506001714
0,273592868081029
0,273665333647996
0,270696571079677
0,267109687117054
0,268782827066379
0,27756774153387
0,262929558198571
0,277648140582704
0,26453561221769
0,26906826612466
0,258771745285876
0,258444764800194
0,251462065564675
0,254238297632462
0,257117792475443
0,242469423084358
0,249152424383436
0,250737311536365
0,248018814974813
0,239415083687025
0,235611350983145
0,243587002726022
0,23252051526352
0,237709578505014
0,225688168566851
0,22697377548913
0,217465356962542
0,22324235498541
0,213504164362699
0,218011773203992
0,218014165506151
0,221909030043664
0,217220143647915
0,2193493252793
0,211489871136809
0,224083833096315
0,211280572716317
0,217443332130016
0,222141707095511
0,216457540654525
0,226402167406784
0,220483332871543
0,223872566653569
0,230315832696504
0,229992681675638
0,228202752814555
0,224386671146656
0,227257498974737
0,228778545025159
0,227563131308253
0,229663423322709
0,246164725738185
0,238006119647773
0,251347762695652
0,253220141295382
0,247192051747083
0,26033844633665
0,257232466087491
0,256878166588116
0,266336023336722
0,277906777174194
0,279486697493547
0,277777139067188
0,302687091037531
0,30969861571257
0,312155379884796
0,314238095219752
0,322096401526335
0,337715691339907
0,341903842139391
0,337800001950707
0,365084927647156
0,35213108529079
0,373753979861768
0,383068816831477
0,378379488341697
0,372034169716075
0,378763894989188
0,372891510680734
0,378781532873673
0,37959596595078
0,399379292449125
0,37098328593381
0,385268085924364
0,385848536932269
0,388710314631974
0,390756175571572
0,38159632218755
0,379373338059229
0,399481136814308
0,398207324218294
0,39572610945263
0,378171412598539
0,402661595276542
0,382605282636991
0,400681662529485
0,390451328313312
0,395415230928282
0,402487966754951
0,420213089585809
0,405997747582718
0,3879936029743
0,368448328290827
0,398003918675471
0,375748466539713
0,393187300016837
0,379283416970608
0,368234081907044
0,357482261167045
0,395870283269828
0,353231531417736
0,36287122237837
0,340957086885395
0,352667238502534
0,339620400405707
0,396595742787712
0,36969003529531
0,341837000684017
0,335428842766929
0,367655652058449
0,326106322102478
0,358381407995868
0,347686018141668
0,356006093072205
0,319386232099077
0,331566710998908
0,338841165800913
0,342479316923268
0,36959851835087
0,363786395964261
0,356793607081532
0,373413143213263
0,33746545429897
0,351388088587696
0,358124847278412
0,381421697193228
0,344478033758994
0,415028714115325
0,353377180383106
0,397074625768885
0,383205648916925
0,375527020933377
0,364742251903907
0,424752102734117
0,384782235697611
0,410233443225004
0,413201781171009
0,414515344850717
0,416952195214471
0,423134697092804
0,441688205353175
0,499353067476139
0,459151113277181
0,448303976054401
0,424732758651168
0,476434964805962
0,48627037737279
0,561131205967478
0,48489149133164
0,54217522952473
0,481864618381559
0,499528947229681
0,453751284193337
0,492600398033609
0,522572306138178
0,562727097529237
0,506419353688363
0,475029217909391
0,44302351242583
0,536607268168106
0,451659247987916
0,518088785492802
0,512334088102648
0,516783172644672
0,421961492818127
0,490363975188514
0,457160464264177
0,42911811119466
0,343895607967594
0,412190881868518
0,469718033730987
0,476503003588575
0,474449182673834
0,513073588149417
0,452880146029081
0,504188878692274
0,483980423329278
0,463559497547681
0,323109579134352
0,431494590521466
0,430964751833644
0,444704241766749
0,4853456305448
0,484204209709256
0,420228910490854
0,466260687735333
0,468072726310678
0,45832540324136
0,428963889793232
0,55116454298647
0,388891235337652
0,18311519064371
0,548662116401099
0,51029359003646
0,377912726752337
0,534581718490768
0,510348776456476
0,930689748926812
0,457198393988425
0,373789292229824
0,537810758647612
0,621063167532204
0,606301332075578
0,701215415277253
0,396096502166165
0,792877707734573
1,01804606529823
0,608126622385799
0,368592905473774
0,373928503674131
0,393735852030303
