3596
4000,36533379555
650,420452594757
1
2
2
0,0433846119768836
0,0441722800819497
0,036510083319752
0,0418116234193776
0,0338089262079779
0,0517278384277911
0,0404853079235686
0,0426905330350066
0,0315956733139885
0,0481485104203634
0,038245072963681
0,0455720274301991
0,0386205397986848
0,0391758237097137
0,0313604455532783
0,0419035210035887
0,0336395038198482
0,0471019444972707
0,0418182727311099
0,0400571771459972
0,0420392673895339
0,0457852410665068
0,036077210819446
0,0461183089367973
0,0366067507366695
0,0494781024479036
0,042823552162466
0,051028955922671
0,0374400883502086
0,0379037258306185
0,0384133891264832
0,05144262974093
0,0391577495643249
0,0428853100691041
0,0404181692576362
0,042047554056604
0,0338521468250231
0,0531474052633408
0,0357990851227982
0,0456805683172927
0,0416571349956653
0,0410479601463266
0,0348883156384221
0,0418285775031656
0,0422230009513429
0,0433043951738755
0,0369085930786844
0,0481334892494654
0,0380435910372832
0,0459436311804046
0,0383091764195885
0,041258965769105
0,0409377623371465
0,0467679859299734
0,0390601136933134
0,0562419419726024
0,0424064652134995
0,0483548414083383
0,0341597504565132
0,0338371847712832
0,0402217808379636
0,0517542014512627
0,0367072998447578
0,0494036424064698
0,0344566428173722
0,047537016752191
0,0363704813692569
0,0406728677011641
0,0294050804287727
0,0429820309904006
0,0328137377028694
0,0551106473495386
0,0487245738872681
0,0422678171816628
0,0427062273897788
0,0418181190811448
0,0270206732166612
0,0477822188951861
0,0340894199846004
0,0439931721036273
0,03184442402324
0,0533136414029021
0,0392582715160362
0,032458085779783
0,0373510340204423
0,0504077700662568
0,0325118380823401
0,035782282370792
0,0444294179816765
0,0502507304559721
0,0401822694296178
0,044427902103335
0,0279891903479242
0,0400835979163049
0,0374243451889813
0,0466113605968823
0,035591986871129
0,0472264165492756
0,0333822142064587
0,0410705119712367
0,0362602592018495
0,0298012661719468
0,0452869934729084
0,0411330045038215
0,0592751686222481
0,0611190762115435
0,0228164367033441
0,0753448216637687
0,0468918748415504
0,0449837024046534
0,0265040070114202
0,0396773314437125
0,0348720135228387
0,0440030563745295
0,022882888090332
0,0424621455069437
0,0597999071919865
0,0451320012280549
0,0334422491399
0,0444548070377628
0,021340929998111
0,0406639709652997
0,0633330927362018
0,0457523301632104
0,0379804887438798
0,0387232568733615
0,0219364305625181
0,0461824522471045
0,054634762829511
0,0481780544379934
0,0370486536152093
0,0440506411701396
0,0249064116179117
0,032654709626725
0,0554094441827528
0,0508394644082556
0,0302944579066342
0,0264475071044441
0,0314582986398451
0,0755539380572101
0,0464132115938587
0,0468556854180773
0,0291690139915252
0,0269015306549198
0,0562281662442339
0,0509044952347959
0,0274678417318738
0,0427909260032397
0,0437319841348737
0,0431132088354384
0,0364374168333042
0,0327871224544722
0,0381292464546679
0,0499429527745595
0,00235101093819918
0,0458869750901928
0,0829016820277546
0,0454420163635341
0,063288196721862
0,0563149181743463
0,0450334197812107
0,0417378280300009
0,0307776202749156
0,0404335266246939
0,0347142832340202
0,0360545660747157
0,0206260015372658
0,056594732283348
0,0347091555504566
0,0315148904377302
0,0473865498835595
0,0412878231580532
0,00644776000044026
0,0781558703435451
0,0522348973133785
0,02879677947106
0,0488522896744374
0,052034316436329
0,0285417354153496
0,0360048845110279
0,0486788649212929
0,0421815154901454
0,0371244701019499
0,0359114212584417
0,0242195198878891
0,0504226070074484
0,0393744186502486
0,0422918385730045
0,038979466572933
0,0296287461644612
0,0182015332434118
0,0717761601410791
0,0602827289984512
0,0522194609282382
0,0417007207605201
0,014863199744051
0,0415633794781454
0,078938622746723
0,0433038910516121
0,0402168516944462
0,0308314423294497
0,0352204829742978
0,0309985506732646
0,038891828344027
0,029022642995351
0,0185915906275435
0,0562944411860632
0,0623652453165017
0,0358839326464148
0,0368510995902566
0,0303836341905263
0,0267494325662828
0,0554054357457602
0,0679216400203909
0,0359878959016071
0,0448609572939774
0,0296567823252642
0,0377118786411449
0,0463511417574836
0,0498791130835057
0,0359723359194172
0,0425242715269046
0,0307528930586894
0,0416427669672653
0,0343711077548687
0,0366117276015756
0,0353469081865542
0,043917756814206
0,0367472426349148
0,0405534007795531
0,0420149649066412
0,0408369435662266
0,0373743480010302
0,0420140297169678
0,0238371312770035
0,0345333301439361
0,0495544622640954
0,0452560534028163
0,0385613691630446
0,040128148824634
0,0348917138408894
0,0434076877683132
0,0361148768196841
0,0421989868433044
0,0289937029919788
0,033601480712747
0,0474189459628626
0,0495498055943389
0,0350350229489162
0,0331317654105199
0,0305404814515945
0,0564329235351029
0,0318011475104762
0,0374465394254193
0,0358538789941691
0,0386226213330917
0,0232879460045319
0,0590291068656749
0,0483854417102528
0,0352538319813679
0,0338336427049601
0,0526394739652255
0,0367493655438976
0,032639227221801
0,00268335204913633
0,0716076316812183
0,0412299873211597
0,0149251849416457
0,0681124520150086
0,0598077961904391
0,0367096497643212
0,0355578727679278
-0,00425834878332045
0,0994321239590251
0,0862240836973511
0,0453721984237076
0,0333887655492681
0,0570407223855087
0,0362054831669595
0,0368630274139306
0,0342026516144211
0,0438857302797853
0,0290537625114273
0,048823690354567
0,0832632835112314
0,0339747590791673
0,0267661713135003
0,0760995533447386
0,0446071372651889
0,043280495733013
0,0388393041179722
0,041794393805277
0,0399727763514586
0,0567832874601116
0,0455665846137884
0,0436920016878257
0,0227526949214684
0,0570334819136799
0,0483798845013273
0,0385926493225
0,0385209455637281
0,0464499501755348
0,0363228826150757
0,0480949888813898
0,0367601189759713
0,0470169200441492
0,0339019292704432
0,0272080026365942
0,0650489733904948
0,05828743993011
0,0298434815024554
0,0676799064182733
0,049546801186257
0,0477839837177749
0,0419998569222912
0,041515405833009
0,0395008922872799
0,0452664598453708
0,0312085888306503
0,064560276291974
0,0568916592782168
0,0422098408711786
0,0388626883789375
0,0418799530551396
0,0352845609860227
0,0461312147972097
0,0410500804541308
0,0437563280405072
0,0432034699845822
0,0355560614836954
0,0468583387231567
0,0720725995297838
0,0259346212466892
0,0559466525482319
0,083497235103993
0,0527798327832238
0,048259408588738
0,0539540299909919
0,0461397220546075
0,0485961915630139
0,0444040560320286
0,0514717647698621
0,0461340149383831
0,0611164241638198
0,0633864567359343
0,0547017029877573
0,0321279964573846
0,0773541105318179
0,0902216791543517
0,0849808569471383
0,061186882474097
0,0435084575831793
0,0513292870682238
0,0848167603494902
0,0750599511501522
0,0930566081425645
0,0612500035627757
0,0654635441629056
0,0604441225930321
0,0660572109144652
0,0631850722224079
0,067250899539823
0,0621494620590974
0,0741774144061811
0,073221510124866
0,0776725914115078
0,0650094099196369
0,0717606548470316
0,0954403001398144
0,0846249633624183
0,0737648032039577
0,0813480676834819
0,0659630816448191
0,0859689877308377
0,0889155147878952
0,103685602889013
0,100385541166334
0,100144152985508
0,120095311075613
0,103605286793254
0,0838688910915091
0,0964505535101648
0,0897793314327797
0,103602592578377
0,0993907839160638
0,0960027340006787
0,0920930323719386
0,105594591157473
0,102218351380099
0,109490671026923
0,104463787606316
0,103317685466146
0,111410619709827
0,122568773318387
0,114082099447762
0,111709230266157
0,095114385112597
0,146719655340763
0,144642114440535
0,142569320093732
0,123007959403224
0,133469963594345
0,126422365364943
0,137522563457455
0,134418886518515
0,135238697993145
0,118370045163147
0,155120124766586
0,148556176029839
0,15562941607604
0,150736290761704
0,146365058472687
0,151054786765314
0,161352967929932
0,139395577026878
0,171638752647066
0,166195057442524
0,153492571581221
0,160661881620462
0,184368452867903
0,164452251987009
0,190706189169513
0,171734177592783
0,176726135839702
0,172909720141376
0,179197778739642
0,172772246588231
0,185491229437303
0,190675495476782
0,19075307492271
0,187178686884849
0,20281141358052
0,192204733642625
0,20917318295532
0,206915446429797
0,211264181179846
0,213294277286934
0,216692780066748
0,209870760678274
0,212586549431129
0,210430186031822
0,241864317916931
0,224932995039297
0,248622511397343
0,220724685668201
0,232729592447978
0,240472557171885
0,238516024520411
0,232198663064485
0,244606450180804
0,242002289119192
0,257461115841846
0,252685050925498
0,259825298311579
0,250540003549517
0,27720892098444
0,269080478880671
0,274562389529565
0,265457697257752
0,272592481320919
0,279395393483033
0,285791849528289
0,27838091442618
0,295375929740929
0,286863919656569
0,324141770843665
0,294682879826318
0,297798735446631
0,287572546323921
0,310132878184181
0,309527568605494
0,327458734702587
0,309466489471639
0,319926956290072
0,327135571012803
0,338350600664279
0,330540595248302
0,338129731233921
0,332060813496831
0,348648806053877
0,34859213943183
0,354855143815738
0,341112855452342
0,356476560682136
0,355191556880768
0,363648034073269
0,367314794646279
0,381637316057361
0,37680913823645
0,391476220241085
0,386200280428042
0,381229133815255
0,385199529456803
0,40611256084395
0,377111878589335
0,397365716322401
0,380145446983274
0,421376213409435
0,408500083793716
0,415705407999239
0,414410430267712
0,406169750119775
0,405595710823169
0,445534923831407
0,431469832264301
0,446072094000964
0,435980839745445
0,451654051952491
0,447221116535003
0,455264155810818
0,421442014202567
0,461465847624648
0,454637035186918
0,491155610559173
0,472860215484255
0,459923152916585
0,471931150434244
0,494567147189378
0,491805966698663
0,506491219288887
0,475524143151748
0,495208023918618
0,499967591796109
0,497008205541303
0,493188060141717
0,51313182154703
0,515025628649381
0,520099926176019
0,512239948761611
0,540087885525968
0,5246365421671
0,534423729615953
0,517644243157191
0,522787371547295
0,533759045490189
0,55787190849944
0,530204098147534
0,57695426605631
0,548111466329205
0,556124811875532
0,558802862371988
0,578562872463696
0,558728082648189
0,592751103909126
0,558393963449727
0,607643611216506
0,602824451147695
0,602081129882386
0,585342448435202
0,618570887736762
0,605567799776068
0,609669340408697
0,594076555104948
0,619865763230845
0,604115809054251
0,627488565379881
0,60693672641365
0,622256634911702
0,618002826085462
0,656572615468056
0,63621564699641
0,64593018388213
0,641581378541301
0,656835115891901
0,627466999134463
0,678551522413426
0,66518913694882
0,643534261419783
0,652500309149281
0,682632879399701
0,646352407564083
0,681891297296026
0,687787949851225
0,696022981478878
0,676679766324578
0,708436232133057
0,692371805613692
0,693789563918275
0,690664492563829
0,713991422829041
0,722104990038851
0,748094606682961
0,708487364336627
0,733796893520687
0,733316405462832
0,734384864264303
0,723241611041323
0,739939233952523
0,735643009145133
0,771577541660093
0,710048443940307
0,728851297982796
0,754888500752567
0,79840708051645
0,750404581044661
0,764960021407659
0,764240747912475
0,791421342285909
0,784071105506284
0,767636107120671
0,742265361498811
0,788728896274644
0,744924862411522
0,753389165073997
0,767589816029742
0,795623565341955
0,775695883185858
0,797184624010356
0,821404673604708
0,785395397347026
0,7903415356485
0,87207828329248
0,841533426024784
0,844525471225841
0,829098410757427
0,85929580739502
0,82607427523912
0,861913725409326
0,851327277134655
0,829459286943064
0,833698962465743
0,864275193490609
0,839789951342619
0,872382599624401
0,848336593528394
0,859046980660309
0,859719039800488
0,860983288564848
0,835286730500301
0,85278476938372
0,87872484712907
0,894772768981644
0,837676311262179
0,883808510445783
0,889097871990804
0,890520358456624
0,857788875331695
0,886774014090725
0,873697807247147
0,908461800112033
0,89716325223984
0,915906223058367
0,873710403127785
0,902810716800626
0,923229654090891
0,931215478809732
0,898567048458584
0,921640614025007
0,871948633017051
0,893605379932365
0,925123417779849
0,917416497791734
0,909931072793939
0,974989014811178
0,9439051017264
0,932447525468421
0,923870598120798
0,932083817438073
0,896965909373709
0,964027012502996
0,968072145921396
0,925914983841053
0,906736760538006
0,979397019491412
0,934408304613099
0,959911115369763
0,98732739164405
0,968132559291825
0,951056070405163
0,938464227275506
0,918458166925889
0,962201092884786
0,941169088601447
0,979369141256726
0,921078377576825
0,925806189256136
0,93916273147227
0,958358874539812
0,914939773975806
0,982472673550848
0,974586500740837
0,987431231123109
0,991019115524294
0,959576725002573
0,923235482249353
0,955591652789275
0,978513243512442
0,995416308735245
0,973784284068198
1,04188438066731
0,982267489468243
0,983133585182742
0,986859049046492
0,988972586011833
0,97357465207548
0,978426393739547
0,969887026323256
0,992993434779099
0,958163260116469
0,994382574887195
0,961105711919921
0,968448348905742
0,93354649242833
0,976929793591587
0,95175016486224
0,992688019799066
0,993795843780807
1,02825145985916
0,966708161124639
0,967481985387883
1,00056128879706
0,986689436134782
0,984521058232748
1,01525258995975
1,00710070394127
1,02431671371341
0,993374000274006
0,996827769597275
0,966604625460442
0,956074642476045
0,958346175573272
1,00390692857058
0,967080051484342
0,966827883904529
0,96773335841911
0,990076753740387
0,972630356217975
0,959072262761624
0,957979410983048
0,998695464467248
0,977112580236268
1,01839861138738
0,983938682944758
1,01649957009309
1,02627824392411
1,00363364386969
0,959419738330071
0,964747624834638
0,993534667520608
0,995692598832023
0,963582305881417
0,996023097951749
0,967439773954004
0,96241065039357
0,989843250328562
0,99843058538684
0,959992467800838
1,00007948401064
0,985908726623304
0,988771001324981
0,974374514240813
0,993905792185092
0,995483344461285
0,967830652396065
0,950172095180639
0,965829362411374
0,943385298284396
0,980726958899769
0,985087502390394
1,0012807939528
0,988697995991443
0,989487908035003
0,944797560042117
0,975515102991781
0,99573036857142
0,981194789469701
0,955794056491039
0,980497187977841
0,967789233102834
0,96966986163286
0,972354814793829
0,961061712749766
0,94814086456262
0,975963879351529
0,960075223546511
0,962362652096618
0,909224812869078
0,94570652916006
0,979485559790227
0,95754040419722
0,939181880504568
0,965315356235601
0,948914863026212
0,960155189835156
0,934056586161015
0,948999080437958
0,95269296575755
0,955509671392316
0,947080840298576
0,913292117526791
0,904473768548215
0,941725075777551
0,91623331683147
0,91792382334437
0,920773509839597
0,953194925727073
0,9366340106663
0,924384359711841
0,931719230733401
0,919143282174061
0,908158031245857
0,921605890685191
0,908367789660123
0,918490468110069
0,918439368207238
0,909399939543789
0,898823954124563
0,907109037536897
0,886890289288955
0,894822003339348
0,883894247333537
0,899937458997868
0,910221828340404
0,927449288185032
0,897750300799363
0,892812350009547
0,879240195658924
0,859828608652207
0,84158044532649
0,879048505035329
0,886145696637289
0,861378782190696
0,844956504829826
0,886706973593456
0,895205777081079
0,899701072660174
0,888664024593351
0,876249522662855
0,849267472645835
0,82336404971508
0,859347275387537
0,862706274478037
0,822161865828169
0,849330676800766
0,844489658216582
0,836238573488711
0,839503394233897
0,845321502990028
0,817254099204133
0,83267292847832
0,833469082329859
0,844898293781418
0,807812571687505
0,80493022498821
0,816273396709007
0,811295944241525
0,785679387808764
0,796209587584398
0,789740136984731
0,789213812254281
0,785037126099508
0,790351794382886
0,790415908099157
0,790708884497207
0,774143362710678
0,786203684218672
0,783149832530695
0,784877446981122
0,768950319807615
0,756776299084232
0,738797699962305
0,766778373984765
0,759924395261476
0,761905247131847
0,756733612587474
0,743643010658569
0,746703239232483
0,750132280309072
0,744907869667328
0,73838016920509
0,729515145376733
0,729804934420866
0,714533742757078
0,712608495494229
0,710146886786606
0,722219741664304
0,70528151553463
0,702059239636327
0,705500473693597
0,715140832273416
0,69889844539231
0,702969891681701
0,693892399841395
0,682438321103995
0,670763715873034
0,681307498054325
0,68720421057193
0,692864760003454
0,683141361820394
0,665269754723998
0,661059433853386
0,674081068636737
0,668474793167333
0,671029664109189
0,661643296172161
0,648113572688649
0,646873734795124
0,662376219361107
0,645587702789603
0,649309154874968
0,624895667215307
0,622991691627028
0,632740143009922
0,622971033872619
0,606358856657811
0,617820456436566
0,616530344318718
0,606742091750026
0,60385177955667
0,607540216977398
0,595893913899105
0,610006401479508
0,601205953429314
0,599162723321133
0,588474248852995
0,582323537655823
0,584348476595845
0,590454271912495
0,580930773598192
0,569237388955689
0,569226338081059
0,570340507964262
0,559109390982604
0,56759402829284
0,562611594158132
0,560091541081775
0,557521488719929
0,551736545877823
0,549306641130214
0,558837278391912
0,545337720919994
0,549819827601206
0,541600946369699
0,531485305869239
0,529538414695248
0,534435576154211
0,526940151986141
0,520406002224661
0,520575961369504
0,516360487176915
0,502398839755007
0,517909269147319
0,513570238580897
0,508273759094028
0,50301562206365
0,497566910343378
0,496262297941517
0,496249783286063
0,484382655678988
0,492731539971523
0,483999695856707
0,489991848965178
0,487848252823735
0,483853111308066
0,476850232830024
0,474417948857738
0,471861558141478
0,474220834564414
0,464447917208886
0,466942292326637
0,463104118555689
0,465261981434324
0,456201270122671
0,456048710190786
0,452607929400651
0,460635844059691
0,453436666186284
0,451430290618562
0,443596901633202
0,444833031522227
0,435921709340909
0,443421869417574
0,438069673899317
0,429616664393963
0,42300716463845
0,429324292105907
0,427680358649552
0,431082184396513
0,425749926289093
0,416673525579681
0,418716760961738
0,419679584199138
0,406468424014486
0,408018751189484
0,41095917960966
0,408624777363475
0,407057212084338
0,407869027082245
0,397858791280799
0,401226832322606
0,392171977370272
0,396224457048735
0,394451030194821
0,390217947670308
0,38995364134689
0,387207148937789
0,382953960186037
0,381686486979491
0,378175918270812
0,37763270602916
0,374118966152389
0,374895629264475
0,368386992217224
0,378482450642765
0,362350914738869
0,36383149459423
0,366459087255561
0,364307362621828
0,362541729591874
0,360087873963644
0,352054262081483
0,352855024031426
0,352142368058863
0,353389852626561
0,345593994217363
0,350680574600714
0,339969722211904
0,338503869945233
0,336536109435753
0,336974839015814
0,333242675466236
0,335078038936914
0,337003105645022
0,33564031867076
0,330903041358889
0,328591062083761
0,323365000060723
0,319001096599993
0,320003248693594
0,324525192717742
0,314594095206156
0,317581513338048
0,315298444518136
0,315100766235369
0,309927274773075
0,311284752559978
0,309374287959166
0,312037228283169
0,305116629635095
0,303761698765309
0,303227924136826
0,297191159841737
0,297900308549933
0,300063922572221
0,290993043040243
0,296042393447784
0,291403239821169
0,288671139121079
0,286882847889309
0,289942446425725
0,284123830634541
0,285680545597595
0,28112385423262
0,281501745019913
0,279658217467468
0,284196260480343
0,27879563043868
0,276484549242312
0,269765334608358
0,27768536485258
0,272188003650004
0,27347273392222
0,269400850184888
0,269589453832935
0,268354516002037
0,270000043471849
0,26713877868341
0,269317432153047
0,266611377646659
0,263592410007698
0,259727850576705
0,264992761834955
0,26201476560606
0,262962238463215
0,258758202188059
0,261696576598597
0,256260955894852
0,263544848322688
0,263577627242593
0,259516287293332
0,255622459563283
0,26903647936763
0,268093154487531
0,262292828172439
0,259425305435034
0,265144246900502
0,259484388984167
0,259843866702079
0,2591480511729
0,261581999206721
0,26128057691603
0,262159622180033
0,259360286263914
0,26902466160335
0,267909995294143
0,267488388622017
0,268179356051177
0,270217728200026
0,265135710761771
0,273272494282854
0,270982104193848
0,273278468341239
0,279173477507867
0,281382770220662
0,279361150512672
0,280625861791886
0,277906676878232
0,285677600979319
0,282802148415587
0,281252308374701
0,289600854909038
0,291588703695719
0,286140603024631
0,29281219488633
0,289576167152948
0,292092216196486
0,295296245812523
0,298391166633883
0,2988023443808
0,304838590578765
0,299853729460371
0,299561166122751
0,300187145675521
0,309900296721338
0,305707712750291
0,307986645099436
0,310321397499224
0,316700280926564
0,317855203469128
0,321359530416335
0,320776064928641
0,323221112819832
0,326497170284197
0,326293495799086
0,32301213526996
0,325547401480392
0,332746457117273
0,338286362790745
0,337336200033885
0,346859670022696
0,337642219949837
0,336257367954495
0,342975682168441
0,355314388836855
0,344513639615038
0,346085135690525
0,346697397256635
0,350289869061332
0,34404419640466
0,349897141094926
0,351786396105445
0,34593776094535
0,350571015055259
0,349086161948973
0,350335081315578
0,350920403246062
0,349292291545284
0,353768864806436
0,34526621495579
0,346138266852258
0,341915142643429
0,340792352193227
0,338846336923296
0,343189178756552
0,34264328724186
0,338030046654979
0,332372507799923
0,338142592952937
0,339309271006488
0,341981467877733
0,340690241954603
0,330850392925507
0,32875942371913
0,335553665388839
0,330468388116658
0,330513035091319
0,334632921297426
0,3321636622928
0,32679847409878
0,332453110290344
0,328785199879601
0,334312325564166
0,332507565648526
0,329475733192281
0,328366667291572
0,333166743414831
0,335242193469108
0,334710860365338
0,331027714153598
0,330540600997684
0,333164812718712
0,331850382227608
0,328121694816131
0,33050105631711
0,326094508691357
0,327643668428463
0,326731632914652
0,330981714277576
0,32563803407742
0,323549257509216
0,325966329088728
0,327814803924634
0,331592477757414
0,325925347956253
0,317591136899198
0,321631134194648
0,316838301310361
0,31417957582957
0,30965043000437
0,316382557027467
0,310357223205542
0,304832248010253
0,309408555750405
0,306405895821291
0,301714175404578
0,302905203144067
0,296125834713607
0,299229232976352
0,293089426518163
0,295265196181269
0,290539349492952
0,288565497074511
0,281111275877477
0,287759142066303
0,284589933614745
0,275704881965026
0,274477515339631
0,275294864537063
0,270180946251789
0,270664743833218
0,268698752867081
0,266274846711024
0,261430554018525
0,261759973926289
0,258999322554212
0,255876895605835
0,253020925490758
0,25777993965965
0,254171691593311
0,250179659169024
0,245479900132982
0,244281279915886
0,24462077313275
0,242998205478893
0,24244228471106
0,245399940170378
0,23909248667759
0,237827856220984
0,233876193901078
0,237767962959714
0,234499284054614
0,229851705045943
0,225042409465232
0,230096381633136
0,228370942583394
0,229612410294311
0,227147728578832
0,22269781909755
0,223048932539093
0,219415573205833
0,218555452708834
0,220133057624018
0,218259023581867
0,217889397627879
0,21097359620131
0,214914999258781
0,215195120255838
0,213521751412174
0,208263770825707
0,211961151812497
0,207928508834281
0,207344816077644
0,20540958830632
0,206204335732292
0,203904221136336
0,204451960630532
0,203370455655027
0,202046137168223
0,201315398244015
0,201255182627041
0,198021605607083
0,200181920693484
0,195447301088922
0,199603390810012
0,195924692568126
0,19529157294281
0,194302944266139
0,193726745607812
0,193001292568849
0,192348581123981
0,18810362319758
0,189222158458261
0,189115066486825
0,19177654298765
0,188398387548597
0,190035192327186
0,185083501885745
0,184268854002555
0,186450823972299
0,181534844654359
0,181699153746681
0,183676489263331
0,185554445635489
0,183798404683785
0,177640997165769
0,180717553604706
0,178285559861165
0,179177421294092
0,178263259735615
0,178746488387907
0,17646270388259
0,174694680339807
0,176203354059083
0,178682062255248
0,17772317101825
0,177030304746919
0,17341879831412
0,174825915524523
0,173509962533177
0,178029207518282
0,174198329181082
0,171822084328933
0,171894765987731
0,172434646627128
0,168706697391342
0,171682807981182
0,16899618563538
0,169716655575854
0,167271541163916
0,16616980277124
0,166668284295843
0,169908235521044
0,164279837222028
0,165972639915425
0,165786888274692
0,167859139608426
0,166103662067194
0,166587249331267
0,162498563408294
0,162946393944657
0,162163486842216
0,15855048458494
0,158682794784124
0,163056080853642
0,161776521728662
0,165508482248424
0,162639046483435
0,158806757678709
0,160805930451058
0,163709995159528
0,163201704683491
0,161163924387949
0,158382327720076
0,15955688138107
0,156427029838469
0,159017931246877
0,156087919813263
0,15642652348885
0,157217232232538
0,159267848183371
0,154370007791131
0,157452172402887
0,1588187384155
0,158290617681408
0,157547548405692
0,155719140400727
0,153113198174979
0,157563452476975
0,15177633525745
0,151575043113077
0,155488607309354
0,152092889019812
0,151615008677558
0,154668597296264
0,152894055562216
0,153592166807678
0,155024173881124
0,153601556541765
0,151002242476443
0,151761454578491
0,148859150583068
0,152730257259915
0,1517419317923
0,146923069023715
0,149086415323494
0,149652379625687
0,146832516158235
0,149509193211553
0,144429085958238
0,146829912420042
0,1490168014446
0,144369535317413
0,14320354012931
0,142200850185079
0,140418494025944
0,145453728858028
0,145703258383093
0,143798942523798
0,142115067510457
0,142066675936146
0,140733722868374
0,140600476230671
0,139248743291626
0,140737667688934
0,140003348374299
0,138347596024819
0,139242617877201
0,13898956534508
0,13672478460302
0,140184591352715
0,13824478871165
0,13775386701163
0,140526137833525
0,137687614276471
0,132371719966446
0,131999972257241
0,135234430761693
0,137434218289978
0,134346944687958
0,132708502210341
0,128822083096376
0,134355383387186
0,132928795334621
0,128297043710717
0,129314452834215
0,132073492562704
0,129085489632774
0,130724228189617
0,127553131922685
0,128346881328053
0,128449916231143
0,130496640810548
0,128097365750562
0,125929156164541
0,12557773705813
0,130194289807555
0,126475608504027
0,1269792900242
0,124883175275666
0,121913585193244
0,124850144468788
0,128777245446619
0,123870295867559
0,124340184893124
0,122880264565852
0,117247294841825
0,119768411155712
0,12202305862628
0,116255029525839
0,119850036723832
0,118537870550371
0,117172107469812
0,116310907879851
0,117350228507166
0,113087993091295
0,116303073640769
0,115691273257456
0,112293191262596
0,115556024642888
0,114888148673412
0,112424706637148
0,110382728480352
0,109820030762001
0,109834160422817
0,108720256395388
0,111363582735636
0,113315967319579
0,109027501861555
0,10872499882461
0,108880842529225
0,107804968992431
0,10678056111092
0,106870682056909
0,10449309761368
0,104436342022153
0,109261091067989
0,104775091734463
0,105182989340323
0,102795532873077
0,106047657841147
0,105821748592118
0,102931634093253
0,102005397037142
0,102902238790302
0,103648909725609
0,103548166641246
0,101954995845233
0,0989833535585233
0,0970974170254142
0,102466424103864
0,101668273388232
0,0990987065212165
0,0977744698268101
0,0980251382468757
0,0980180242082708
0,101615127548506
0,0955503422752141
0,0951159653749604
0,0983432161805487
0,0990353174625544
0,0939397793938088
0,095265645964258
0,0989722142732534
0,097245776589969
0,093559431341424
0,0918076160591427
0,0950753236145403
0,0951151075344625
0,0949653535016739
0,0938456827887546
0,0943056285435439
0,0969854933633357
0,0940693977556775
0,0921094998134702
0,0909942576690742
0,0930065129504029
0,0938114713883927
0,0908682590539267
0,0909055992115167
0,0906367219018671
0,0912248577538048
0,0892978476169795
0,0888708200053576
0,0904415190435203
0,0902039807558969
0,0885812922429223
0,0912525505858277
0,0922116677014895
0,0888757579686874
0,0889342129158481
0,0867096331575783
0,0865752428442186
0,088625855798258
0,0887855869615665
0,0877856411390009
0,0845791167685519
0,0861293712850574
0,0880039548193293
0,0845573134477659
0,0880736621555186
0,0869736538322283
0,0843807944933661
0,08577988707503
0,0865572131742772
0,0844895844233002
0,0839929116389593
0,0845042264386696
0,0870385654475854
0,0847643599857397
0,0855197275472932
0,0846162475150964
0,084233559291333
0,0841057862278508
0,0831524010885819
0,0859937128317101
0,0841932521098203
0,083476850938979
0,0850426928881389
0,0844314288054598
0,0846739814290113
0,0847287880506546
0,0860955317039212
0,0813772299246768
0,0817297002618997
0,0815728849606307
0,0821151168778129
0,082158751046093
0,0802016021945998
0,080959958058615
0,0803588723587964
0,0794392870004057
0,0800191786776932
0,0791041964417983
0,0794817578134815
0,0779368027378753
0,0787352462102919
0,0811109292693811
0,0799317510297848
0,0781495719221448
0,0756251587537126
0,0789421357403956
0,0806792461745684
0,0780250920142262
0,0771488736114424
0,0792332070062884
0,0790982851286808
0,0777078707621723
0,0773109614843179
0,0784929819115721
0,080309724739389
0,0770950944781015
0,0771564053598354
0,0764431843102037
0,0753279236960074
0,0751831580714422
0,0761603355613063
0,0752417871680291
0,0781103393294108
0,0769767908577486
0,0725248508574965
0,0741532670120953
0,0745412851410655
0,0752347358544991
0,0764054692279466
0,0755816225588517
0,0721782911991971
0,0744095246702611
0,073848824737739
0,0728469388281502
0,0715260210831622
0,0728310469306745
0,0740441523702772
0,0745010146011409
0,0713782616468048
0,0731998831099331
0,0733583493620195
0,0708926525123505
0,0733145487950112
0,073404822055943
0,0715537987688931
0,0720693879421018
0,0707942981110863
0,0711254197509431
0,0707490603360213
0,0700421883538385
0,0711251951582402
0,0700749785819761
0,0704901844487112
0,0724707836409524
0,0699853760915283
0,0695609300937559
0,0705853136667584
0,0691956448189481
0,0673515549001127
0,067315839996202
0,0687351244737328
0,0712397492443588
0,0663333725867576
0,0660611479414772
0,0657266799180013
0,0670175944369025
0,0646000773164462
0,0662459053755029
0,0673141126819645
0,0668295321895219
0,0640122349965922
0,0660464001016755
0,0669529443057992
0,0661006669714448
0,0656861086924822
0,067255777728586
0,0632195314223247
0,0645461348012297
0,0631855458975814
0,0629735877607497
0,0616313109561262
0,0631849797519922
0,0618810902682436
0,0617112124716229
0,0625001274339554
0,0636450594501539
0,061039501728197
0,0614970624522165
0,0606824946732596
0,0619542572707808
0,061418111735318
0,0618401038209477
0,0594650817375523
0,0609137454922608
0,060849209344077
0,0603605766805067
0,0607963749618102
0,0613223149633595
0,0582708438086141
0,0599480594096541
0,0606760647713166
0,0581715812177597
0,0584772181241262
0,058621495560446
0,0584658192424003
0,0591395695039476
0,0585915705309196
0,0582377608061938
0,0559837291187936
0,058922213296292
0,0576432160408332
0,0578616081108075
0,0560565359075367
0,0571840561715586
0,0578758233541397
0,0574559284485307
0,0565296091040549
0,0558137045769742
0,0574306459193227
0,0579625222167599
0,0549880802143741
0,0542779515024639
0,0537009336282021
0,0539933064331393
0,0542404722348827
0,0578927901957077
0,0551548458524843
0,0532594981540609
0,0537871899183167
0,0543088067590261
0,0511996692554694
0,0536434892768451
0,0530536741372577
0,0522916632316821
0,0515977779606702
0,0531557611012597
0,0505237160527103
0,0530479645768584
0,0525563738081385
0,0527958937137443
0,0545935364512624
0,0530425175794197
0,0505790977947623
0,052075093693696
0,0502569892810268
0,0506551610516253
0,0528417863741854
0,0536932008502528
0,0510369611452377
0,0524525829444255
0,0497850381890348
0,0510790732032386
0,0499940549232302
0,0515021280162223
0,0494446309930996
0,0544582153168508
0,0514757586307315
0,0514900153521982
0,0509584162951848
0,0519169948821236
0,0485375243107293
0,0509407833977107
0,0501842990215869
0,0550765059369514
0,0497261227424528
0,052078543963464
0,0486010159663276
0,0528482498180219
0,0485768702964919
0,0516248743550829
0,0465934096129602
0,0507073256127339
0,044776528319451
0,04531331531684
0,0394951088858081
0,0459026305390845
0,0437705456718022
0,0547473113312262
0,0464638856980062
0,0480211822672297
0,0391485934236393
0,0517715031136899
0,0429330880335302
0,0510552605627015
0,0462236649702236
0,0523391849419648
0,0430924680412022
0,0511521252503596
0,0425194360200476
0,0512766539151739
0,0390745794491851
0,0518380176592186
0,0430517416198141
0,0532372450760232
0,0482666673234316
0,0539335638208254
0,0403194598394163
0,0517446739121182
0,0382237214866707
0,0494087513281635
0,0398362088796646
0,0542840912436807
0,0391150933748478
0,060569532266534
0,0375259880166412
0,0560052134698138
0,0374025849908168
0,0579163173049855
0,0357495710927665
0,0555763964302875
0,030271262104501
0,0533340505501039
0,0301665222054896
0,0597037369610373
0,0355897338426731
0,0666873255205
0,0343391709029571
0,0513468362042381
0,0288663506093057
0,0599607383174543
0,0409836704860223
0,0599648626043081
0,0349322699668201
0,0506349421514122
0,0446112938708628
0,0521631870552749
0,0465261174195561
0,040317753804899
0,0538993633498208
0,0412850601683919
0,0553576336786651
0,032471603073311
0,0661920310030066
0,0299829757532741
0,0648520549743481
0,0313631693670395
0,0631163444927832
0,0287528613802484
0,0597989071608799
0,035764715554318
0,0525718668835817
0,0420775538932307
0,0532340081674895
0,0457617488133718
0,0489205618501079
0,0440888247786295
0,0474317530712428
0,0423461751792936
0,0480600142901166
0,0407452537089605
0,0497541552928646
0,0429747321686215
0,0508394250185631
0,0407146295663066
0,0483923862507119
0,043774991374201
0,0484302626914308
0,0415247471823572
0,0481415954846203
0,0420844356475308
0,048083710367539
0,0434194824464648
0,044695571069459
0,0418962810691561
0,0473983685864505
0,0429170533636856
0,0490179799450776
0,0430496262068836
0,0460239549328178
0,0431617733366454
0,045858886693506
0,0426588704382483
0,0485301933236961
0,0434191321035016
0,0469463750150766
0,0435154813196862
0,0469628397179461
0,0426143831534915
0,0489947546290573
0,04408023278479
0,0475287363084063
0,0433477883755662
0,0481307074460905
0,0442238633900509
0,0485069094736894
0,0441806094773427
0,0488982845100121
0,0436821255851947
0,0484416259709497
0,0441451378418485
0,0467101513962899
0,0428950164478538
0,0467981722027254
0,0446716172161705
0,0474919874042483
0,0459617404776675
0,0491477087550825
0,0445548482557119
0,0474185597966115
0,0457964863950622
0,0500686354668856
0,0459503113354701
0,047922205626376
0,0451956936621993
0,0474671488005984
0,0462809518477006
0,0465617250517075
0,044120588642791
0,0476013502901966
0,0442457278394024
0,0462322351196961
0,0465570580040091
0,0498160542070141
0,0452602773709229
0,0495256925472771
0,0453038540836508
0,0476500040946951
0,0451815017485315
0,0460788610569487
0,0457427604431107
0,0500954243924955
0,0467677972327022
0,0472348954216863
0,0443054218961837
0,0477430778650746
0,0440190317344611
0,0476978964354463
0,0475843441571742
0,0483350035490806
0,0455069980856185
0,0495966824907053
0,0468086292468089
0,0497821754911746
0,0469849943130914
0,0463079970823355
0,0475384646540128
0,0490005942023313
0,0462528461729255
0,0499380556832549
0,0451927622182705
0,0487809941221945
0,0480976437332333
0,0496342819047469
0,045797244501307
0,0497023698817941
0,0475297683519
0,0495373688640221
0,0482903935485951
0,0511995909685368
0,0504136934236364
0,0498218670127559
0,0457871410858265
0,0509558982641626
0,047696952184655
0,0505733733364509
0,0478004481382886
0,0472966098264282
0,0474047436240115
0,0510659481770467
0,0476188646922489
0,0494996352115729
0,0489835597118892
0,0506472722320345
0,0490134617307348
0,0513278874015057
0,0495691122421236
0,0513747244487685
0,0506325817221568
0,0511202061371573
0,0481965670153462
0,0512339503541799
0,0478186018679878
0,0517371813955624
0,0481686308314299
0,0508650415241225
0,0494830354072367
0,0517194075709437
0,049613480929624
0,0515287430082428
0,049412574811353
0,0509153675174554
0,0500636335355993
0,052132226551864
0,0488979428623998
0,0524050787508978
0,0510338007457061
0,0501156712142922
0,0494933490548153
0,0542493262658435
0,0493895348949882
0,0513567327915396
0,0511990279866677
0,0525943808580594
0,0498574044897491
0,0527611880969366
0,0501538173404833
0,0521374921054002
0,0531358397421432
0,0525918284420345
0,051748554939008
0,0549352373827366
0,0524044112876642
0,0533474928815841
0,0512306738999598
0,0531904799742109
0,0504710115988146
0,0530289157937405
0,0539507389529259
0,0524392355399335
0,0513900248683004
0,0531539586285875
0,052314843339397
0,0530713631155246
0,0515101349005978
0,0530905301848545
0,051934602022271
0,0534208152326592
0,0529354081344164
0,0538706246538967
0,0498528730491098
0,0509259852718417
0,0505944514287468
0,0526587526743855
0,0482322732879858
0,0535651259655034
0,0477134126763738
0,0506048725575029
0,0510642299109224
0,051778389926119
0,0513727475321056
0,050665076251833
0,0492485646006303
0,0522184073041852
0,0503267088115866
0,0526217192000143
0,0521613222023188
0,0521308996781643
0,0498566546757312
0,0496415027381615
0,0488798127147468
0,0548471378056618
0,050220260136834
0,0496320853314764
0,0503064076964357
0,0516296579589755
0,0506933128309499
0,0507457270805979
0,0502737948244763
0,0512516259084382
0,0481707127685091
0,0502824081110409
0,0485006326225468
0,0501849751915324
0,0501560881957427
0,0482153561719949
0,0497156475530665
0,0503670128545654
0,0501437542608894
0,0514107239152672
0,0507378636076877
0,0498481506745641
0,0494416646840835
0,0503751465710034
0,0495786880739399
0,0497418419990521
0,0490733439918489
0,0517555750419375
0,0503383408774191
0,0492205697127861
0,0478276835230218
0,0514359198760048
0,0492813962249036
0,0514691032851248
0,0497751739173951
0,048478116926419
0,0477582828344381
0,0501096940934068
0,0475683417719225
0,0504386067587136
0,0479285459212955
0,0489796976635894
0,0487841026724732
0,0479337099426764
0,0471713161038263
0,0511402999421148
0,0470897188659497
0,0492419246108022
0,0474910793814697
0,0489873109984586
0,0480149114441271
0,0489207256897395
0,0488344592188839
0,0513010897159733
0,0473399191587434
0,0485068487137146
0,0471556797140849
0,0479382863293518
0,0480722552556877
0,0485891654010945
0,0462514014604001
0,050346898943826
0,0482118361534186
0,0500842862253275
0,0462578611605813
0,0474365455412221
0,0483021373682142
0,0457090148066067
0,0469473187443943
0,0462239331911669
0,0464580589687865
0,0476330291334701
0,0462338069329813
0,0497820445832396
0,0477239003689371
0,0491755179454737
0,0461952247980153
0,0471326820935706
0,047119903753856
0,0468063383725443
0,0457070646770938
0,0484646382072896
0,0447141483478814
0,0464183931969669
0,0451370617185359
0,0465454245965196
0,046757017729861
0,0463590687588921
0,0452618278279718
0,047191486724267
0,0446190153096109
0,0461316269399862
0,0457068033681038
0,0462624391571971
0,0447891593395819
0,0451213117561462
0,0447952314281341
0,0468160303792412
0,0441689812432218
0,0458781509187616
0,0456612206707527
0,0441735274270313
0,0441628021279854
0,0439095064659073
0,0414805692403469
0,0441783655834721
0,0447713031820279
0,0457040245595472
0,0406175983288349
0,0439818519067885
0,0411408264274303
0,044221772115697
0,041830684476022
0,0451731686283961
0,0440995840936012
0,0438698012976157
0,0397135938146336
0,0419889418672321
0,0405694121418654
0,0435597491621143
0,0413447433605652
0,0426994711568692
0,0418530211044223
0,0424250926493478
0,0410738247182897
0,0412811253650963
0,0388202438431006
0,0416286119577388
0,0402103754224057
0,0422762778836076
0,0394522334656943
0,0397346045610676
0,0409658283141346
0,0418550685939874
0,0409433853013269
0,0409564935706465
0,0394466827723173
0,0390366533015713
0,0408090039581425
0,0375037993520552
0,0413969696930659
0,0435646929766752
0,0423928040963567
0,0382266284955602
0,0418383780297656
0,0403602763639543
0,0402752122159934
0,0415449801156737
0,0406932584233772
0,0409534802806735
0,0372709124153133
0,0403642861253565
0,0397818032654759
0,0400099430244942
0,038441112925838
0,0398169971024696
0,0395127687947081
0,0374734726668015
0,0400178961725546
0,0396275133511048
0,0381057938541293
0,0366243490990878
0,0368366850130185
0,0386318621552674
0,0396241157711241
0,0386013545283816
0,0385243655359674
0,0394922220462711
0,0395157020806225
0,0388465646708892
0,0379136698561121
0,0380811056839553
0,0367759357168722
0,0381958317804114
0,0365408874336582
0,0391128564141602
0,0387655540076958
0,0377258517559864
0,0356477692498228
0,0371414803646839
0,0376773174152618
0,0387045763300815
0,0373847020427183
0,0361618360053107
0,0365973694699709
0,0373900557089009
0,0379930435017222
0,0369245279433325
0,035280947311048
0,0361336822134293
0,0356000359623971
0,0384510726098598
0,0324974831994792
0,0398877003795972
0,0372768844836955
0,0449051380670702
0,0352770885915223
0,0387087406678208
0,0340251583756956
0,0372916049750999
0,0354299002797539
0,0385438862028827
0,0359262662552942
0,039750368333802
0,0371922658438905
0,036863836958253
0,0352463309736961
0,0387266553297277
0,0360762606486423
0,035092356582921
0,034813176887169
0,0356953308953771
0,0351234721164601
0,0360381781911998
0,0348411460959752
0,0434094162075215
0,0369774653594291
0,0392704541511141
0,031196321546199
0,0366487586724257
0,0382425362926881
0,0432750647330126
0,0365950457645176
0,037949426962803
0,0385947593802206
0,0361588938879704
0,0383015200521612
0,034874717164317
0,0384642977345229
0,0335900376165185
0,0394266107548042
0,0344503230175931
0,0391560622330272
0,0350108267565301
0,0349896179417768
0,0360494057762677
0,0351660148873617
0,0354347916311391
0,0355132377080599
0,0345023386739735
0,0351828036742574
0,0359236032379132
0,0359146109535148
0,0341036234514763
0,0373771535517336
0,0401905236379595
0,0371076088282869
0,0321550979657569
0,0357408208471404
0,0308976602535029
0,0401835220366125
0,0361514812159461
0,0417115935922516
0,0330096844058762
0,0366069243070787
0,0338378801319968
0,0386651878955888
0,0362201017220533
0,0384724903406021
0,0333348191260849
0,0352266480801091
0,036516038083109
0,0364094120238554
0,0361629823772434
0,0359907890772891
0,037174323414485
0,0345069395519085
0,0373723845185268
0,0346504376569639
0,0356665937513481
0,0344578583317778
0,0357245300677423
0,0407304198464311
0,0427352445283013
0,0421332360118325
0,0382258868181264
0,0395748098545595
0,0368081482416235
0,0395005629965856
0,0335595451378146
0,0397357532430975
0,0326639592892487
0,0369448070439593
0,0329045949893179
0,0394064041606317
0,0336486836734404
0,0402404855225335
0,0317248006937428
0,0364876260939328
0,0338693119290011
0,0389905323755322
0,0326039004739154
0,0407610081463424
0,0317242251170891
0,0364629568389444
0,0320457205185954
0,0444585011161051
0,0322885978367283
0,0355454748774831
0,03899664185115
0,0444284358010408
0,0468436635325643
0,0320354907395687
0,0418229215219477
0,032954007224822
0,038251824072406
0,0340178959635101
0,0391302974202395
0,0355110158486116
0,0376532472459473
0,0343094809219355
0,0401724939144082
0,0351037881405718
0,0324555392275007
0,0403821733129677
0,0477276409833368
0,0469360033577821
0,0415050960433084
0,0312684532489444
0,0436289861268558
0,0444523534318566
0,0470455325293554
0,036127074936555
0,0405523536069114
0,0373744820579685
0,038420511054332
0,0378261221949107
0,0400364937366991
0,0420620650260667
0,0389404547134823
0,0374062849993675
0,0378834174350521
0,0396939731396988
0,037528820426004
0,0395589163642422
0,0416354294510528
0,0420200347175152
0,0415131834998852
0,0412625890376673
0,0437794835898229
0,0376659269032767
0,0394286319866322
0,0399267280394602
0,0367501282265167
0,0437822361372964
0,0423577841254828
0,0419377473606985
0,0430562458090293
0,0473031653672151
0,0423944913089701
0,038279205256555
0,044077377535731
0,0448955200557649
0,0347000125639844
0,0472227475684072
0,0397334113348331
0,0632280057499889
0,0414780919570208
0,0528855209796829
0,0344889804331879
0,0518864449048706
0,0310977992047952
0,0497274704529546
0,0392254457772641
0,0534772127320981
0,0397653659612725
0,0427637071498685
0,0435771496544246
0,0425362530083832
0,049957101828751
0,0428497306395081
0,0444901628568209
0,0408051701806654
0,053010802684655
0,044314673837611
0,0460532947453041
0,0462192215327643
0,0585127127629925
0,059974958172887
0,0476658936550379
0,051407932073086
0,0414448870254298
0,0565671143833077
0,0465239445559606
0,0499624965000556
0,0493165684757313
0,0418565707068359
0,0478826486412136
0,0572854856592022
0,0595905994123808
0,0513560841022397
0,0449019229072819
0,0518345665428526
0,0531736762873925
0,060495314689053
0,0471660475065483
0,0540043163847614
0,0461483152828567
0,0498410379033904
0,0573440167237022
0,0659919143473998
0,061342203912347
0,0512666498028193
0,0728644545761352
0,054522950625623
0,0632489082725239
0,0492455682298553
0,0652226509631819
0,0598432991512474
0,0635291052917845
0,0492797784060397
0,0698910453049196
0,0624226494144406
0,0710612729851258
0,0538367219939712
0,0630156468469251
0,0462043679275554
0,0671208240880278
0,0855709296597589
0,0843859847567882
0,0625266986211125
0,0690594867637714
0,0651916431531507
0,0754999000499657
0,0671463526588063
0,0684593196733873
0,0716962171126599
0,0708782925085793
0,0735664217122906
0,0728601481942617
0,0738328458361702
0,0800352015696688
0,0722090710003598
0,0745223691322899
0,0687307055747412
0,11151492405213
0,081648540256302
0,0964523635277522
0,0750331791593271
0,0997950112445991
0,0862012356944181
0,087107898881582
0,0879456550807549
0,0869852911466081
0,0928732536083191
0,0901480913150925
0,0901029875965096
0,0979773786494686
0,0925899676949054
0,115927271699744
0,097094100445466
0,118539625576622
0,0815164777360608
0,120607314019161
0,107748828823812
0,151109181604419
0,1151723014214
0,114905875397968
0,126166763765463
0,140893425855803
0,150705424236403
0,135193302212553
0,141755260229189
0,140061720403197
0,147081526453883
0,152891578368246
0,155031422092907
0,166982281124966
0,164313009691671
0,162795904334233
0,159016352056427
0,194811706751486
0,221229758404962
0,199223721165798
0,200065092607164
0,201699497767972
0,210827220094305
0,213482354380725
0,216949616851934
0,205869196901667
0,234308057024646
0,233693996882389
0,264346737235328
0,226621618225115
0,25833390795695
0,237211020974718
0,272046198838106
0,24935757815086
0,288384703659185
0,274685345777461
0,271312825055098
0,286134899700279
0,277502787187347
0,291202268007135
0,292442856943788
0,310528110226941
0,306469567796818
0,305082568716284
0,311237399239177
0,312094878777871
0,322295314593024
0,310504668451112
0,329912021567947
0,304929462434036
0,351345432457253
0,383540381461035
0,363668018496179
0,349430695029769
0,333951853331259
0,340231683023796
0,337558167899291
0,35385849152779
0,354024048619264
0,359899756470837
0,352191070821645
0,338196535279844
0,351348702679571
0,337280417696097
0,352579306458259
0,335965920583824
0,348071656316843
0,337716230725905
0,338860844206803
0,362177282662607
0,359550905015817
0,350954394750128
0,323654155051848
0,336571820259752
0,328018286304089
0,335387281278867
0,318584236185855
0,325811489770775
0,320800597247129
0,335205683167441
0,301907356304044
0,31244411117094
0,308275201668101
0,322412043833383
0,307339837497891
0,286961663642562
0,297265469569319
0,285890653990364
0,278957121977042
0,29692560934258
0,291915608752451
0,296167554468031
0,26647587395782
0,270475015403488
0,257894619359731
0,262658598322385
0,250272074891774
0,262366189454376
0,251479794164211
0,248053431424357
0,242657073458648
0,245665421054304
0,236284293831048
0,242311217465024
0,235067407862588
0,234942129700464
0,236431630598259
0,237970447919972
0,235172890918126
0,230356669796714
0,227752840942833
0,228484056472463
0,227853004130022
0,227256701345974
0,225516951996052
0,227265571303219
0,220119741543491
0,222847684193592
0,223035694301101
0,22091334175385
0,217879203012376
0,218774898142258
0,218073171146623
0,220577573644368
0,222502178649497
0,218444402403594
0,215355261992179
0,219124797087292
0,221699862041125
0,214617075419749
0,225308508058998
0,212766266410364
0,217305853893216
0,228376211694259
0,238352329120388
0,225514064551414
0,214201882561741
0,230309084943542
0,204044006025872
0,218690565345086
0,210502126793616
0,236957895505985
0,219868856251275
0,217782636593959
0,212285172519821
0,22450833940395
0,213975653141899
0,223751529479965
0,206280671768031
0,216633011528718
0,203859228396913
0,243369623531859
0,243533715408461
0,245372124999199
0,240704380962904
0,204783362858519
0,229545570552143
0,222033436233541
0,231545789217536
0,203339121724713
0,217575395760737
0,211023842153119
0,218531003853645
0,216697876396618
0,20982083239196
0,20952620903841
0,208545570061343
0,22284783020219
0,212743085441444
0,21092441328719
0,217604500571155
0,209063020687084
0,200115073842083
0,260146224553974
0,221201823065103
0,204189616389289
0,198368958054441
0,194694950622405
0,209272805583912
0,194384303098097
0,206676573078728
0,188832111259512
0,186555678288215
0,188324355333851
0,180568542434971
0,205294324368834
0,172302039010027
0,196413783452361
0,174455399915435
0,192593650985896
0,163022546501144
0,190676543598805
0,185098675889425
0,204269938505624
0,18505324043718
0,167344830135383
0,182497339734983
0,184864310417418
0,185140172778567
0,170186677011649
0,162617147541317
0,167864736677076
0,164920927502469
0,163524515978715
0,157336535515346
0,159096647459574
0,167092376048562
0,157735958551611
0,184219618651912
0,176589662890098
0,159886894271438
0,153964030693036
0,142942616566146
0,155055680172263
0,140848921768774
0,145300902214584
0,151304615823956
0,145750447013752
0,152966058997453
0,145302855636805
0,166373216052846
0,14539984519801
0,146845862616059
0,14699336255873
0,148958896468559
0,161089194841397
0,170560322571483
0,15374674347234
0,156827090810995
0,15548697656957
0,171251445652897
0,152171778016052
0,165927784135804
0,159494477760995
0,170596042876314
0,169093359621572
0,179644869018279
0,171971541886193
0,179814255758637
0,171089344638254
0,200933028880104
0,18765177079731
0,207177249952247
0,179255143192348
0,226379875940659
0,211341161145864
0,226459909756571
0,21363513194346
0,212053885614682
0,223850499665198
0,224260795691045
0,225039315759595
0,24174574815741
0,234903527527254
0,254332093770191
0,231375688913364
0,252191560016023
0,236175204116787
0,257499967018846
0,242124395553956
0,261121178993928
0,272503482808563
0,274910164598218
0,276918913967634
0,259083950099637
0,270562429834107
0,265026287670626
0,271927313763266
0,265706370264573
0,262418638289046
0,271017944435308
0,276908806027766
0,274797604863262
0,271259016884962
0,274428116775817
0,274092991489245
0,2719873918662
0,27588424564297
0,279376608829418
0,277598829981027
0,287920531346138
0,271932968338492
0,291623267594076
0,294137282186761
0,305601051918781
0,28805049764409
0,289771264587468
0,29462869737501
0,290061672706737
0,294967156446294
0,297900393353766
0,304491670981494
0,300483913791083
0,298437138556105
0,304154961426054
0,29794270232981
0,321019196406423
0,307420982160114
0,317556850116767
0,305277553273131
0,309070156907917
0,319027884045407
0,326748510810945
0,331953704420136
0,311548644180011
0,330885840082872
0,311635085142069
0,320706263998553
0,313428052271072
0,321993676455233
0,31743822527297
0,328789214802097
0,320528626218741
0,321007793375557
0,319567275983349
0,315430683248959
0,322297503923652
0,322124969120887
0,324903399463093
0,314344425308666
0,320772106527343
0,311468907100873
0,312550999147778
0,323352271686291
0,320499451799102
0,321925565325358
0,307235438042334
0,315549314292926
0,3254577936186
0,325005337829047
0,313018077620518
0,312277734848944
0,312862920988135
0,312645472040192
0,305624649062353
0,319948440106773
0,319070457607379
0,330691032725005
0,313157390715042
0,323865621202611
0,317440996058617
0,323500887359276
0,319328739720786
0,327890386396048
0,320913197310975
0,327547880308001
0,328591936722452
0,332801155264469
0,327976795060012
0,329057063466982
0,332660520648027
0,340311784167551
0,330453208356454
0,328275326176604
0,324619525365713
0,33140604121907
0,33159421087658
0,330402522529271
0,31989783133178
0,326471579777419
0,312678285965319
0,324753614334592
0,316381954867429
0,319267321529408
0,308569481822385
0,313190285524028
0,301759861103201
0,304989258934884
0,303786021256709
0,299908948009074
0,301139260882103
0,300819323464918
0,298244807286253
0,295644328158942
0,296604962414012
0,293957503777258
0,291345347797444
0,295216180665268
0,287067956727536
0,288208377387422
0,288246777591764
0,292232870902223
0,284031310929381
0,294873761306973
0,285785074649551
0,291953020837855
0,290512397225155
0,291456467689107
0,291019117042236
0,287139411741552
0,293625759930541
0,288330364338129
0,293574391819922
0,284071621280183
0,286364506086523
0,280639814936641
0,283341772619243
0,27704043621697
0,282524715992258
0,277611735442399
0,280177969152536
0,279707033278756
0,279376609969571
0,279005527708902
0,276229022509348
0,272472489576412
0,276516680659472
0,275061402816624
0,274066714890715
0,275345501944281
0,275427973045335
0,274532140538298
0,271376133739714
0,273774669655379
0,270342922144556
0,271976314280314
0,269287538642606
0,273925756631317
0,269536331291209
0,269875574240957
0,267754964125894
0,270121915404781
0,267619443530963
0,266280283721003
0,265376967034681
0,264096819048205
0,265530398846513
0,264969951389979
0,259590297286825
0,262476177489076
0,25687141279009
0,253852979815392
0,254950630371416
0,254688428391285
0,252378137506776
0,246955053630394
0,245896494800821
0,246720251900865
0,243150797161718
0,243695369580235
0,243827761337134
0,239360913901756
0,239445573772496
0,240171656512451
0,234649502072788
0,237044252985399
0,235738927843811
0,234644680960734
0,236618215702474
0,236444448930919
0,234744738555556
0,235512652775188
0,234388558526742
0,235320173680671
0,232854108613476
0,237748513420309
0,237258896497761
0,238410272538398
0,236519333693593
0,240740246244579
0,236696187391304
0,238522342952538
0,240119686352452
0,242841703582327
0,24453785714438
0,245107740811156
0,246335170812493
0,248543470117487
0,245237209878502
0,246166286648632
0,247601326425048
0,248993996063641
0,249270986363373
0,251536628385451
0,251185748383127
0,247757946757131
0,247687888562361
0,251484308204745
0,249747144465827
0,248972607727707
0,249010567365116
0,248583927173103
0,247520231136391
0,246827482657272
0,247135140791442
0,247504614388464
0,247898173165544
0,246222224337723
0,241731659242826
0,244281147537334
0,243979189479784
0,242394627055037
0,241412678549255
0,239737361776698
0,2400851628281
0,241295395828696
0,237560378528233
0,236251972888174
0,235483699074636
0,235137381619906
0,234829205814213
0,235213582387993
0,232096282251769
0,231531594814489
0,230323924814385
0,233333896463934
0,228909808970986
0,22911330976611
0,226002282366747
0,228425599046188
0,224985366199744
0,224053077261365
0,223302006988009
0,221321082952143
0,221559736926849
0,220061073980604
0,217892095979409
0,215525490789176
0,212498365950061
0,213052233706154
0,212642314330757
0,208445533899371
0,206769329133584
0,208166667908641
0,206393308984812
0,205707115668623
0,205323365022173
0,203644476199734
0,202383763403146
0,201532625956006
0,203159687556173
0,202737173127825
0,20043057936229
0,20079253371258
0,199798399816268
0,200853102103522
0,198007623753947
0,197242648288931
0,198902332544798
0,197517601020236
0,195492600492625
0,192207852070774
0,191653034391523
0,189376282953026
0,186711471551832
0,185448104892727
0,184308193295249
0,179992053492105
0,178477151413023
0,17644103918236
0,174616788202652
0,176158476854982
0,174570810230506
0,175774906958793
0,175914589949206
0,178140704298556
0,18119883005481
0,183472181203251
0,188146005854907
0,193578795698504
0,197708648884023
0,205210367783049
0,213240952260545
0,220557576755082
0,228650616746476
0,236709665574619
0,245235457711541
0,256440454607417
0,265845043811996
0,278883506383996
0,287250674624502
0,298270662925087
0,31031384248068
0,320976582894611
0,334589467280369
0,346044594838612
0,357984265100804
0,368912703436649
0,380825767795498
0,395373703238416
0,404192396673785
0,416997696295528
0,425183004305345
0,437753060913667
0,444281810532106
0,451593813338524
0,457770701414996
0,461277069663968
0,469687511284162
0,472864038526004
0,47581216295253
0,476284513917926
0,477694697806567
0,471062685457382
0,474171646476952
0,471494638316943
0,468192987545201
0,468312676465668
0,46534012753435
0,461695750843912
0,456006528211338
0,455321491354967
0,454055976618775
0,45383943742175
0,451921600289121
0,451760929596154
0,451960002577537
0,453826133630911
0,45346604275537
0,457001073894946
0,461362340559923
0,465004305784887
0,464584887086806
0,474045200628506
0,479690378296438
0,48360552662778
0,491003069424667
0,495011324687527
0,507145798750251
0,513051671325237
0,515235216431108
0,527708774746374
0,531802889175139
0,53933282772274
0,542021665326247
0,5451704106054
0,545963163985717
0,54868291953583
0,545235993849908
0,551764726047325
0,551880058516813
0,549890930279456
0,548860988080122
0,547483487878924
0,544313581027777
0,547727620286216
0,542942426226543
0,550708749504298
0,550519590456789
0,557052039044629
0,565122706966572
0,566828860455586
0,570959354683277
0,57920699130386
0,584810488714096
0,596919682153905
0,604824141946245
0,608468036112202
0,61341919843657
0,624826561659652
0,634582340375274
0,641810017625303
0,652548443663875
0,661491600363749
0,668415346138224
0,675097789021226
0,690843463224308
0,701521687777006
0,718710482976539
0,729793138419398
0,747787415650232
0,765168683124261
0,776956282407782
0,801631695826867
0,814461584435918
0,836177319994259
0,852669378670567
0,860864207719115
0,867413522249698
0,872437904546777
0,878537116427883
0,880915958934019
0,89925647716365
0,905386616583888
0,901414919261205
0,901912632558627
0,898945430984799
0,891261998538932
0,886134795808956
0,887080546616254
0,879150133507889
0,87349191180542
0,868581695147553
0,868795759883175
0,861929577831279
0,859350324613996
0,857720956867095
0,858487458154254
0,856179481548898
0,868918529205525
0,863152971507312
0,873291283514362
0,87318078103406
0,890981186305988
0,892417091409291
0,91607064020517
0,908163889116704
0,920500599383915
0,925571798484923
0,944148595484604
0,951391302339417
0,971164240316098
0,962863187832398
0,979375932511368
0,994469537863485
1,00663218485611
1,00236864885505
1,00270777010381
1,01429517552205
1,02768523001605
1,04590634747284
1,05133845943305
1,02364205919082
1,03443231198911
1,03477382190437
1,0651821711949
1,04175455152558
1,05528198885674
1,0785025270842
1,06150932644096
1,05567425259132
1,0617473190416
1,05473929190057
1,07857083727065
1,0531952784445
1,063314498102
1,06025115758494
1,05470658348905
1,06526535657954
1,04789064585064
1,04778141902091
1,03452664465578
1,01399104746112
0,998132094437815
0,973250641393788
0,960867718215101
0,950030895399871
0,917623445865651
0,891842740318961
0,871160954681433
0,845353008870267
0,823744853126757
0,790633499360597
0,769175309038829
0,74545564015736
0,730178901427127
0,712146678158283
0,703413658311629
0,684150970843142
0,676462221491799
0,661468687697163
0,656284307810177
0,658812251189716
0,64048157153248
0,640079363603657
0,632594904368892
0,616111217341105
0,609629876305273
0,59492139204165
0,590266710211544
0,573114215232614
0,563768302750097
0,551372347756222
0,544225478045162
0,528460384831635
0,508756086550056
0,50122164277092
0,481166536649466
0,468353095585088
0,450685438847491
0,433729276888414
0,419639847340076
0,398820696907159
0,388719949900875
0,368093112906756
0,355568987042165
0,342381561161969
0,326321343033195
0,309997354252819
0,295463523260643
0,288583376611611
0,275244649968075
0,267411290040995
0,2593767849493
0,246149681776156
0,240237828201378
0,234573198785524
0,229584410200742
0,221649631556867
0,217635818638568
0,213637899637979
0,206549359458589
0,204520370754701
0,206311721487648
0,197950691022726
0,19750877121626
0,194269393777506
0,194754731256779
0,193027092824222
0,193574505471938
0,19618498021161
0,193466011062968
0,194561332194797
0,1959604792034
0,196720216719936
0,199124363984423
0,201539604964728
0,202931242187516
0,202932893156154
0,200374282176693
0,201448419824387
0,203062366308237
0,20258961085171
0,206765978651492
0,204509973283514
0,209600304434787
0,205458230394672
0,208992874167779
0,206503196168372
0,20653303450027
0,206274184692197
0,207905954819961
0,206183658848011
0,210986321464826
0,214380439058911
0,210139728559102
0,207854015903381
0,213528360960408
0,210699434534172
0,213237936795652
0,216627044849399
0,215446561949802
0,21662561682831
0,213970453100357
0,213072227081247
0,219076331377561
0,212764631442571
0,217710860474814
0,223263624458213
0,22033219420957
0,212237697617023
0,217036667243081
0,216525529022585
0,218873579593897
0,21602116733468
0,215713356864566
0,213191812731961
0,21487314542544
0,214691513785429
0,212303817947989
0,215974739587517
0,219545668501034
0,223105055076399
0,221448050482427
0,223782108463333
0,227799855781056
0,229134338464108
0,234523033170131
0,242019616778031
0,24619335410431
0,251002870141044
0,254397350875499
0,259893092533447
0,262451439356674
0,262730986813173
0,264929396286305
0,269599123349961
0,266176308809066
0,264609419201793
0,26166060031438
0,261598126580558
0,256416564971996
0,252046996921202
0,24731812780467
0,241324163992839
0,242350581571882
0,23974615067365
0,250021658411133
0,241145726015549
0,245393517272825
0,241742650889493
0,248891613763804
0,238604685979372
0,246854328753088
0,244538731052844
0,247524967711548
0,247340297418796
0,24664197254397
0,240574127482848
0,248831806467229
0,245271530541069
0,245204851142622
0,24583890732488
0,245711210117293
0,234244555767783
0,240692700603108
0,243801924385167
0,241439770509686
0,233708725654879
0,242002022039018
0,237481119470627
0,234629812623289
0,241624269997732
0,253276997351163
0,240303662583437
0,241438184539308
0,244574437454182
0,240292946238112
0,236050489078538
0,23849361065952
0,243923603298369
0,235515815979179
0,229592700687947
0,236878553988483
0,232717714132703
0,237877800068093
0,239013546451519
0,245564711916263
0,228314949284837
0,23179511591177
0,242425383717773
0,237132110158548
0,234921689097398
0,235807897120179
0,221994749633243
0,228819403518738
0,224500683863674
0,232480153513418
0,228406767211807
0,234089984680435
0,221751643208604
0,232021400593173
0,22331155440707
0,231901989086238
0,229756105909041
0,224844641051987
0,225786169495766
0,227514300983683
0,224748565858541
0,238391103498099
0,236064356031662
0,23131384240508
0,234746660648979
0,236865351192114
0,23056790345496
0,261022201670014
0,242804814172915
0,242727219714695
0,237162438416753
0,250378215373979
0,246642721482281
0,245310219800289
0,251546027924612
0,256036571152474
0,247740988660283
0,247193640916852
0,251461586097453
0,257804887608081
0,25394922018549
0,256668355051502
0,255790935725904
0,269285936263576
0,269086786844127
0,277049575759499
0,266491255314236
0,275752996068746
0,27067475314409
0,276106042826706
0,288363955948262
0,292374210269613
0,29396746869779
0,303188651634532
0,304826691952669
0,329316536105587
0,323092003252358
0,320871224094068
0,334032442023343
0,333766030208055
0,341188506682968
0,366157118133214
0,343457251238547
0,376832514258539
0,368230656709224
0,362411365739118
0,362991447207802
0,365330554986203
0,370216038294666
0,366053643601906
0,357762447048592
0,370165901782731
0,363379483080889
0,371267690898535
0,359584106845494
0,37395179377147
0,345661197120786
0,361258843022289
0,366116640512569
0,367800823459814
0,363511193094989
0,37663317478608
0,360728980512293
0,360478885133191
0,370281716396394
0,385239777028184
0,371848872308238
0,360075742406633
0,361378236547262
0,375069926954224
0,35835680806107
0,378062289210273
0,359095072034098
0,369538077303929
0,373156076594481
0,366203452188799
0,347237593539597
0,347277467347903
0,363646215572111
0,35528238629903
0,346448985071623
0,36413994817688
0,365772927901189
0,361349197333765
0,348248467073599
0,352518897340437
0,346146192774543
0,383860317687473
0,339346143063305
0,35773112371977
0,345229725532047
0,366865733320706
0,370399424770771
0,350794483589448
0,335562887460907
0,401960072355473
0,376371944227119
0,362423948709125
0,358191042234527
0,374581488835908
0,361484081749486
0,399869128994877
0,384539105611474
0,376654876888097
0,363494322045719
0,4030606365594
0,383267226664074
0,390343480266016
0,36957259857144
0,371479399213385
0,387297089281835
0,405434412594543
0,357463522573466
0,437469930742595
0,405564732908432
0,428177362059143
0,397246016070367
0,435150490774235
0,392248074223144
0,413805455701528
0,406972190567651
0,448839915612922
0,407128605699296
0,48216188899566
0,456849723111622
0,495603079223148
0,493711047982099
0,497248688501584
0,418197810921977
0,478091102327831
0,439022659712619
0,482939892516317
0,463663727905642
0,476159404674595
0,48483215482573
0,490859067898832
0,447496101878937
0,492420671680875
0,440181814642412
0,468248970834403
0,435547370027491
0,467947446925307
0,432478319352633
0,418075149233429
0,429666876614947
0,499508322694652
0,408968398042154
0,512714023613791
0,415539324773193
0,514906057896764
0,372250692454231
0,44666969541861
0,405151326470484
0,503349577722011
0,402578745682824
0,428741703739197
0,382014751389505
0,457004855857439
0,493958792195208
0,548411154417499
0,41193884099995
0,438607626046316
0,506261910747251
0,601447406007468
0,387669746001076
0,508059235989526
0,42001510452059
0,459801467140295
0,501035729982233
0,481498919225626
0,280106870290594
0,532549614216819
0,359291562773868
0,584254523343914
0,353040994476021
0,512579168892341
0,585310676592033
0,419643010688238
0,318593072880711
0,52186097072337
0,733749168886001
0,530305894978573
0,433321500114614
0,473538282389061
0,378698182553616
0,664541824178409
0,646493127513641
0,488312324888733
0,453846411015178
0,817260873783756
