3596
4000,36533379555
650,420452594757
1
2
2
0,0431604532592419
0,0518697144814393
0,0329518940437548
0,0421513455706819
0,030758387979757
0,0481909125443178
0,0427372857045095
0,0509642738286659
0,0341580716036095
0,0537330661823312
0,041286972641941
0,0511191116196233
0,0380533639845854
0,042044684509425
0,0328669580297803
0,0471026394554189
0,0333286487623511
0,0506041459579424
0,0427250883393355
0,0468559736704468
0,0348529471567093
0,0471235531878291
0,0324750844390228
0,0497300091165684
0,0359967552604019
0,0493982918149744
0,0422617805319973
0,0500506776232622
0,0289388617059149
0,0509139412179362
0,0416426226196131
0,0475168493658269
0,0369219802354364
0,054475299587383
0,0344164601631811
0,0443546445528083
0,0347322069275074
0,0545793107616704
0,0350412934282108
0,0460068076022003
0,0392767883924918
0,0471622599561689
0,0339070110956723
0,0493718802522826
0,0370353154550556
0,0471139809183849
0,03921121906474
0,0451480212007034
0,0373760969637468
0,0485516185574922
0,0407239855224306
0,0420068738057606
0,0399164690516856
0,0510472220741734
0,0404997095928235
0,0625917382827434
0,0455218454417668
0,0508872471302971
0,0348927204644401
0,039677439250002
0,0411506566668935
0,0588613860215485
0,0373197940809812
0,0499762593043242
0,038833952368739
0,0503376975225866
0,0274939482598567
0,0485202777568717
0,0317736908389215
0,0458638734316686
0,0303464392001952
0,058471855917697
0,0394033877721475
0,0501087053836096
0,0450687248599652
0,0504807467699264
0,0350237399451251
0,0462432560012703
0,0318700196242194
0,0500340689459203
0,0338723955775109
0,0510841139468188
0,0387849250891306
0,0349464399996183
0,029712247458326
0,0594314276519373
0,0279266088433771
0,0340588851447932
0,0379984780797077
0,0563096353620531
0,0339950876116857
0,0492531168045778
0,0317360649375703
0,0489893884115958
0,0329096971856339
0,0473789253800258
0,034371994612579
0,052395030748578
0,0327249295333397
0,0477363622219935
0,0324871032073595
0,0403260314618254
0,0556983983778409
0,0312286040719907
0,0616052158933557
0,0579563164974144
0,0218154805571188
0,0793072679990356
0,0459773964158224
0,0509626763210134
0,0291500411547368
0,043002100400685
0,0293003178750985
0,0537579185577322
0,0191489119433555
0,0541378744793546
0,0609787489543214
0,0530686018298495
0,0300103446037269
0,0471775351309442
0,0111470823676751
0,0468557027418962
0,0582122000060624
0,0458115403071371
0,0356646746643752
0,0492956730562541
0,0211075904722945
0,0587360708658726
0,0477316691074678
0,0480048697087965
0,0329539626685962
0,0455357872187675
0,025173356338954
0,0348425016457728
0,0564519911486557
0,0547731399202139
0,0357465664259857
0,0219337201520663
0,0301270247422567
0,0796478047969539
0,0429150027831694
0,0503400575304616
0,0304318629579406
0,0359702707220476
0,0453547413822978
0,050352604826767
0,0264650429989874
0,0497281728110395
0,0428019549508601
0,0440792522118949
0,0334264809820802
0,0381124136881192
0,0454769941408799
0,0514279740110875
-0,00756953270151909
0,0448771223410024
0,0809904077954251
0,0495933540617623
0,0730313604572982
0,0420343218023652
0,043746237811936
0,0402495271800446
0,0332285064847472
0,0401055321767104
0,0403074353651561
0,0361101936239975
0,0259883968898373
0,0640043064799839
0,0320884154905961
0,0297139335903665
0,0519993418580699
0,0481241825376533
0,00671788780193149
0,0910326109748443
0,048567556538789
0,0329492056883807
0,0486643373871513
0,053593683064668
0,02195721096654
0,0494794993540538
0,054437329881765
0,0406478779821059
0,0362844209024209
0,036902890714782
0,0253782668293349
0,0561965063128611
0,0401496779582687
0,0410898277595042
0,0386373930410284
0,0282238466046881
0,0200303441464021
0,0820844465357068
0,0588555713150428
0,0488041211615899
0,0397702630777065
0,0160503217269745
0,0471668149750281
0,0734711397406697
0,0409347931806958
0,0417779163745045
0,028016542755778
0,0440351670537484
0,0295250477687669
0,041932911511083
0,0330344877607382
0,0147645808559481
0,0636748523286293
0,0630764054848806
0,0351094583712065
0,0304840647890805
0,0277641918826949
0,0270243581260618
0,0611087741006933
0,0701383345181475
0,0399917423679112
0,0506205200869781
0,0252108816567526
0,0453566868141693
0,0418972651432569
0,0467118310728486
0,0335094079479871
0,0423933664744773
0,0319321684173781
0,0436812633556069
0,0328820461826692
0,037454177155459
0,0345280267103237
0,044087670728434
0,0352101186856149
0,0385963668644189
0,0407302422572761
0,0453810490155233
0,035362261454629
0,0427621502210347
0,0245304892130683
0,0319570344131406
0,048357579050794
0,0481185528553886
0,0391968671664304
0,035046422004317
0,0327202762087647
0,0462775702314884
0,0338842370502594
0,0425133505127844
0,0318831282909285
0,0330062371319521
0,0534223411145594
0,0427616443109171
0,0392036920179634
0,0319288153445144
0,0377297311848272
0,0564130505387289
0,0347337381747682
0,0321927074800888
0,0392554655536733
0,0364342732379913
0,0281626874028421
0,0662004662450553
0,0471450912851165
0,0383446655997611
0,0350842441045751
0,0503247287227772
0,0370915057206843
0,0401964492577449
0,00723549479503701
0,0917165549335964
0,042305575846718
0,0171590431100819
0,0765054706716935
0,0617164788876552
0,041852463328616
0,0358492269892407
-0,010671739856963
0,126854754896838
0,0892820901653346
0,0481915816327689
0,0323061741762847
0,0624737507296834
0,0364395754882397
0,0420280052805662
0,0325261448308643
0,0408851285158794
0,0318521690290316
0,0552186346748251
0,0863192869147595
0,0328152262711894
0,0409208513191283
0,0689713166928644
0,0471955292170819
0,0452632097169512
0,0357884473931405
0,0424965569852775
0,0461460363506799
0,0611028890015629
0,0431621139440198
0,0480782434340269
0,0240849833818102
0,0627487726904127
0,0448947722892594
0,0357754892336526
0,036669960956204
0,0541534081366238
0,0397400134253896
0,04785429560047
0,0333130307009727
0,0543927436028261
0,0344481373085995
0,0250861874062639
0,0715032399226735
0,0576452635676645
0,0270430790252745
0,0675578328875666
0,0508462622839426
0,0537612872516434
0,0367480123959871
0,0460459247465786
0,0387280041860745
0,0425554884138966
0,0262818537420122
0,0651027395126647
0,0532704312900599
0,0499740019413657
0,0441326279681521
0,0455134212512258
0,037077877489295
0,0500444049966094
0,0374952124786295
0,0446541808559962
0,0439117462932662
0,0376168587123493
0,0438545676245328
0,075865417051597
0,0176968390432502
0,0673006541691568
0,079285076256193
0,0579325507753172
0,0464438765997915
0,0529677700190192
0,0441101371025771
0,0502667706019694
0,0481080059096379
0,0508946092788508
0,0442391099062544
0,0641563173703839
0,063163558075032
0,0532596218925725
0,0347022648898998
0,0735552821420202
0,0982566769473647
0,0806716135398667
0,0613375598448906
0,0406851131934284
0,0579113653765562
0,0829319766921838
0,0707830534269741
0,0965192583419094
0,0670302545728376
0,073221858265857
0,059161140824036
0,0755157115728861
0,0628696158610063
0,0672225591397424
0,0598978698046767
0,078931916826774
0,0695848177202311
0,0807082862540572
0,0626554990357892
0,073488592076625
0,0892489703976538
0,0889942366979505
0,0794921599442728
0,0881463689372874
0,063014212755657
0,0987890860031722
0,0879526194131551
0,111409340024171
0,0967574673920134
0,108961472589952
0,12418491186732
0,101965877439042
0,0941458295973999
0,0950039764921515
0,0945896282504975
0,1091309031814
0,09985847395705
0,10226772522167
0,0961651407727653
0,111445938240375
0,106184591453297
0,117025221644028
0,102218412743454
0,110952789585401
0,12142359089347
0,123927448417821
0,119152913244269
0,113735810844536
0,115629240252699
0,156750627309922
0,152324839915733
0,141954534404569
0,133993002695165
0,140239662180156
0,12779349274751
0,140387742171068
0,136841427556767
0,146520187045849
0,126278809892362
0,167321472955398
0,154183456366817
0,174808460724389
0,166212616779732
0,147562233248863
0,155591894648416
0,166752652686851
0,155751383940714
0,188600060907414
0,171853890603774
0,15829680903591
0,17222948234832
0,183902417367255
0,171414209853898
0,20121715199725
0,179940832254952
0,190891469183592
0,17637657561581
0,19993362410974
0,187864548525423
0,212776484012147
0,20372591334484
0,200909372007431
0,199714909263567
0,22060524023527
0,201153920095416
0,220908648391158
0,22039577208103
0,222624742902628
0,224952620614411
0,228005982982652
0,227490155893562
0,239689261226191
0,233462248942599
0,253722765946696
0,239478173751515
0,26844399741977
0,229477912951524
0,253851503157082
0,254754571685411
0,261161877353952
0,245535890546008
0,276018768270947
0,256548764470444
0,278602342649249
0,270087646504512
0,292741670959626
0,278043019948113
0,28753351480413
0,281325903230581
0,29319471004864
0,283492088077724
0,300052179053732
0,291035531047209
0,30545898626433
0,313178054501305
0,325609128090957
0,30744858904563
0,346786351754813
0,306868981169176
0,330611925116755
0,329271364289783
0,350982601423821
0,335836531349492
0,354007675630805
0,334524778787722
0,355788434799738
0,342849749599153
0,360218632411426
0,355408282258949
0,378747255902411
0,360408215385099
0,39208313663042
0,373725392638868
0,378111780135974
0,369634446286344
0,396664378812219
0,387091031682655
0,410974619338689
0,37814210663683
0,407289108735895
0,407155112212169
0,421032617864593
0,405505677860746
0,439548535548833
0,408143983447882
0,446292853074808
0,425105067923936
0,44343632485376
0,443643036204089
0,465861917748977
0,442564774293227
0,462260317085497
0,441780690981895
0,464100183105486
0,459668230013114
0,483321062361319
0,473262976536547
0,493102913441618
0,468537874284713
0,486087453229316
0,467561381263259
0,50545205380682
0,474328195748945
0,52336854530994
0,480118214327827
0,518919486309543
0,513755682195914
0,53099299498055
0,507035583279716
0,52033105022913
0,500586060535879
0,531963530232929
0,511921001024036
0,572661946253791
0,52901672417532
0,552990119425924
0,541384500097588
0,560644547345022
0,556818481485863
0,592434839995699
0,551660640755431
0,583886763798392
0,552763642344838
0,575639939979339
0,554439098918765
0,594889870519333
0,585414410415565
0,605323949826288
0,574264429775796
0,599250478302641
0,604376934982738
0,642810494058614
0,621558879430831
0,652414653770029
0,627403474582333
0,667831819020959
0,597438744105814
0,648766520103262
0,634810717192613
0,644045108114889
0,647384421410004
0,678747613898965
0,62549592490594
0,691285594457051
0,672225166577434
0,694902919041094
0,655193698929308
0,679998557857176
0,654594424243556
0,724137698947112
0,677730263802371
0,719285538021671
0,715802230917483
0,714666300044871
0,69792453164337
0,751583084375123
0,705195369648934
0,74149954880884
0,695162936515232
0,739960054260233
0,696836175730499
0,735027815619087
0,679945339391774
0,768429466832785
0,739507107277146
0,784460717419636
0,750664151526768
0,781500605286338
0,72765472517921
0,785783480001274
0,735326037500541
0,793744548164039
0,786674450433913
0,777217915220041
0,769206007812405
0,794782468724395
0,756067146352023
0,780440623366942
0,766334884803473
0,86394901908818
0,802053581960454
0,848199066982719
0,830378739392497
0,825653557494925
0,815546634242235
0,858578891308849
0,833180996356661
0,877013669342422
0,829854186507163
0,842188128271872
0,841834540458298
0,908405144837934
0,82307614397193
0,850286468938262
0,826449679186198
0,860154436635504
0,836900039807711
0,903091191464298
0,877455310915012
0,929040203563478
0,874162678573199
0,913677189307127
0,839869877849388
0,916387858704241
0,890146997917422
0,918159193520076
0,905105311696166
0,961020354640899
0,920523237617999
0,932290207259182
0,914913055247413
0,991010751496711
0,912161644712371
0,932718230649605
0,936138055400683
0,965754459589262
0,927305637257794
0,966008451778129
0,888457382060412
0,951558502863107
0,921640687400619
0,959750043300101
0,925341938456104
0,988718503767362
0,934263919545444
0,947922239299944
0,925854479233289
1,02043419831345
0,967146580766903
1,01736455498477
0,957520909429582
0,97583422115649
0,959005859270298
0,95169562106309
0,960886924276081
1,00678497315449
0,978732928063322
1,06911431942259
1,01175458804769
1,03834722791729
1,03150312962032
1,02343577726531
1,02405137834732
1,0247673187344
0,979855738731476
1,0389894238754
1,03014307130939
1,11886493118329
1,04454361918991
1,08801606307672
1,00028294121611
1,08941737374311
1,00104768355613
1,01589921260492
1,02342411723723
1,03743228922279
1,01970818179678
1,06863003298863
1,0402988512566
1,06381817761598
1,02545441592536
1,0726461471934
1,06333387993246
1,1610181569941
1,03662579273904
1,06301433758859
0,972211008283963
1,05875981728164
1,02313624865012
1,11429048567921
1,05802983225592
1,1452967814726
1,06033057682256
1,06261850018172
1,08827771710749
1,10843201704141
1,03520993480235
1,15240640415887
1,04275162155984
1,06828708961371
1,07850489784974
1,14659600090355
1,08057069845777
1,08835181387148
1,11150660251885
1,14511296574045
1,06437539463742
1,06047230887967
1,0874258982039
1,14637927041224
1,08241743907952
1,18440975885404
1,10664955756336
1,08219655335327
1,08398890477909
1,1415375966521
1,06204807654817
1,07778669576595
1,07336315128474
1,10208894235051
1,0668418052736
1,12172747107229
1,14157637598917
1,10118259468371
1,09843983867666
1,10564938132662
1,06182782459602
1,12300308228038
1,05600669978763
1,12033765885235
1,0967805826933
1,11645746086353
1,06230566624577
1,07648230636749
1,06262351501516
1,11667988488788
1,12395545427918
1,17307345701535
1,08927581930336
1,14538734679134
1,12762994001989
1,11693366372139
1,09851960013982
1,12378414953543
1,08351484912968
1,12810709267268
1,04543752693879
1,13620504315716
1,09520763603719
1,15995323109825
1,12851580452743
1,10562846282707
1,03492446826881
1,10585675442211
1,08755190475518
1,10044544275375
1,09986301683281
1,12217033162566
1,12427386373959
1,15356119755729
1,11608344899354
1,14836942882725
1,05261244910671
1,0811952100479
1,03114349031397
1,13370019991503
1,06057351577186
1,04557449885247
1,06099580604534
1,11856383542877
1,08644895917376
1,10520430805797
1,08006617654974
1,17232154163993
1,05889715733605
1,09314792883845
1,05319357744279
1,16040828378424
1,1019878070044
1,07275683325633
1,07957131723993
1,11949913742885
1,0858906051626
1,1196729179875
1,08171261861177
1,10579912316059
1,05203589009046
1,10122113344932
1,04154098050736
1,11680945641262
1,05900537648367
1,07503678664454
1,04971107574449
1,04695880909275
1,02097618420101
1,09303174352277
1,05621485135782
1,07224368827944
1,0412639265631
1,12218184928801
1,03197223637435
1,06830605294988
1,0672543986885
1,12318232747394
1,04448954414612
1,05505871486555
1,07279244243123
1,05323148002508
1,05963288221711
1,0907635995682
1,01422217813962
1,02647874515071
1,02437664982689
1,03913312011377
1,01478487759451
1,03051971550581
1,01769948435454
1,06048975971554
1,00565350185559
1,04423313558185
0,9750918655222
0,990019400698265
1,00403954928222
1,02232064859742
1,00353264322558
1,02417201247994
0,991441416360405
0,99517408353311
0,983707783577997
0,997226017529116
0,972961998657872
0,992289387459147
0,982855985063995
0,972551382833125
0,970495376567954
1,00066587624409
0,965126636777281
0,97551488421656
0,965083384203206
0,957278949007593
0,966840495674214
0,987715831842201
0,948675716965031
0,957326668621036
0,918542959819853
0,978079048849293
0,952378870932752
0,936514379500449
0,939208962442894
0,945636944752432
0,928333181440056
0,95621887556999
0,92808150337263
0,94859104124213
0,903889253410087
0,927208314811818
0,902246892075601
0,918367912388207
0,901683536125059
0,922589313971902
0,90361535709917
0,911467726578084
0,892480559141259
0,913480695756308
0,894622776827284
0,897607526974407
0,879977489051731
0,880709235024412
0,843871311270085
0,876366380393134
0,847602896429183
0,868700856105493
0,849739388390266
0,86544811061439
0,826195008321155
0,822447479185828
0,85190122858794
0,842315122803075
0,803022266404946
0,836319203611744
0,822190169306783
0,832341589173658
0,815463900451822
0,827230785069038
0,791090937445301
0,81365672896112
0,802751647842303
0,815783791323041
0,777343356381789
0,798951220383873
0,790154418662174
0,799301399449631
0,775936081614794
0,785076096654141
0,768942919398653
0,784416360165621
0,770109769253377
0,773348611550979
0,748875133762616
0,775896486799442
0,75370293809256
0,740045978392774
0,745148350682671
0,7521057179889
0,723944798023778
0,738985590851195
0,732618644809671
0,732475992240177
0,705829029859258
0,712660061689781
0,696162495054274
0,720238562141541
0,685413054726865
0,704918611021864
0,680034722123406
0,699645163300269
0,698041961063944
0,69035314482782
0,671973316324359
0,675935994582632
0,663698866973954
0,685738988433463
0,662508906352118
0,656499450659942
0,643687016722307
0,65310328745844
0,646257043636362
0,65252427489261
0,62911052199275
0,639230323469769
0,633518152797719
0,637624411669847
0,619492387264755
0,625012494472866
0,61772193650089
0,633426914603195
0,60847067561052
0,605309391069663
0,596402449029464
0,606209728981069
0,591112739086064
0,603064749163546
0,583149200132309
0,597060262657098
0,582160147968736
0,58179615413049
0,574751936912576
0,577112101869494
0,56514289656248
0,581903849551392
0,566770143666246
0,569272067005075
0,549192831334816
0,565779839922911
0,548374507287387
0,55644804252689
0,547450866137157
0,544889021038252
0,52725480513471
0,532252806514116
0,528895490401579
0,534967281746239
0,525516040987977
0,521771546678302
0,518252693052231
0,518279839302439
0,506421176180695
0,524037223839836
0,517492707886895
0,510000265805109
0,500923112989417
0,508379159451698
0,496172389360423
0,502174387158749
0,492145913669948
0,498894629452431
0,481533339765282
0,486818728514974
0,474119679735201
0,483619333604039
0,469242976143958
0,479911208013768
0,461540869190487
0,467374791133809
0,464305720706386
0,461248826948806
0,452727435210973
0,457514194180657
0,443992353893677
0,457660953584729
0,44896931400288
0,450428469549359
0,4423334154068
0,444194343176084
0,439249982358182
0,432998812943264
0,42665437221688
0,433955743937865
0,422386129611442
0,42828710591757
0,419091984655764
0,424001547603341
0,423865177750447
0,418155392292387
0,405701481617974
0,413606155008021
0,407721364269738
0,406890972874296
0,400092145629453
0,40443780558307
0,398011149557401
0,395472903746834
0,395741817558502
0,393418253360838
0,385443180307422
0,398053629335817
0,385174335130361
0,387884544241649
0,380931952496647
0,379794235191221
0,37592503966921
0,376387582543699
0,362851894086177
0,372195452445947
0,36405790010315
0,369020621900744
0,363245390188288
0,360317314375499
0,348037125772407
0,360012467502956
0,347067914588382
0,352272143761227
0,351017126079689
0,351815882630319
0,345320970631084
0,344295939359788
0,335378233651604
0,33668849411947
0,334534216280078
0,333895621396217
0,327047734489986
0,33548772178537
0,326648690443288
0,33013764751091
0,327052996591886
0,32496406319533
0,312281013378918
0,319131807384997
0,31171292204647
0,320230804988658
0,315739187541398
0,313336817195679
0,307941910242802
0,308129919205784
0,299680882197977
0,303398197949617
0,295760325714641
0,304567905340608
0,297065292926784
0,295988451191903
0,289828253385096
0,297568749949671
0,285862324853839
0,290251311251756
0,283795942464666
0,288827944164118
0,286467201108547
0,291471814146847
0,286834557107812
0,285945161188587
0,277434024196177
0,282936004545791
0,276383518768286
0,278352366952075
0,275069706784598
0,281948701148713
0,272801587972545
0,273415712924936
0,267534234239988
0,276094066271934
0,270636837522303
0,275613407679442
0,268027042223561
0,27221990810406
0,265471415172618
0,264059504409429
0,263142196750573
0,269335705147812
0,263738431620052
0,265720847813641
0,263335085170202
0,264660825708305
0,264892859868555
0,271549729408973
0,265247191758728
0,271196338072996
0,261076304913771
0,271704560097237
0,26708886275893
0,269372476293845
0,268337841024029
0,276812515257302
0,270851539993664
0,271747722966431
0,27348427567119
0,277253044640415
0,274926349488537
0,281345423844618
0,275552029830129
0,283517174224195
0,285068476665067
0,289050705233031
0,284805237533143
0,291486763218058
0,289478993046594
0,293808312522965
0,292647249363622
0,292275857992843
0,294426561404627
0,299166605175041
0,296340797876086
0,305166831455539
0,29966339746149
0,306037034793688
0,30390809730062
0,310100825540788
0,310477458436001
0,31537496384304
0,308963179823771
0,313709146206306
0,32006675436134
0,32567254003299
0,320366601588471
0,324068010048999
0,319921100734125
0,333351448486202
0,330654510839997
0,333744015303606
0,332599358482853
0,344497970232625
0,34539005960874
0,348477785567343
0,346642146112927
0,352000439773192
0,352533841692329
0,363922200127097
0,359386812159078
0,360847269581532
0,364356624831143
0,37509332508083
0,372257318903713
0,378492803569411
0,367738223358499
0,381583909288489
0,378742947781283
0,388404518625495
0,383090753131815
0,381719667804257
0,380916245793977
0,38809210283606
0,383293311994592
0,396603139772054
0,387097930708606
0,384416076257732
0,385385782939998
0,389649146403741
0,379981012490435
0,388371855271287
0,390034824594567
0,390463366178409
0,378986996961413
0,381361875853429
0,375796223025917
0,37834296861438
0,374424136777991
0,375959245038251
0,369010173770285
0,373130654650044
0,370069539852622
0,372113550280827
0,372625789489165
0,372317719630875
0,362160465319744
0,366379438050206
0,359039798750095
0,366285440094086
0,363029340654869
0,363084227291007
0,364307195314388
0,370545089179217
0,363793909319278
0,368815917818573
0,357554906069448
0,364277876737892
0,361659189346976
0,364265350375182
0,356168932829578
0,363797675932971
0,357945765041218
0,357326373358746
0,359308211151485
0,36306015783711
0,356138690372011
0,357847614042413
0,359260643283232
0,361493143009397
0,354226751839602
0,35687069055774
0,35040920314966
0,353272318447785
0,345248544159013
0,346502364359736
0,346613029838572
0,351827675960075
0,345366555286337
0,344266177369876
0,341306458450385
0,345841758874193
0,340820646418861
0,340443471061884
0,330552995424723
0,332320295443565
0,328577762131248
0,327244883125108
0,325560430555602
0,32757430894893
0,3196713767244
0,323903810037308
0,309709118478102
0,318239699248477
0,313006902457241
0,312735973091627
0,304452049023576
0,303346858498677
0,294437409661736
0,298751410983529
0,290774611935802
0,292072316017034
0,288795704154461
0,290178223696542
0,279576173982874
0,279686082969701
0,283867153480667
0,278350826808482
0,271992255112999
0,275597224478874
0,266123564044876
0,269585644472828
0,264193067122182
0,263032344141952
0,258742715316231
0,25885437580753
0,253842872436619
0,258682219273897
0,250250127692467
0,251014571992575
0,247582948268418
0,247353732009361
0,246244808625753
0,244297142533423
0,241411452345382
0,243146736306456
0,234259189109007
0,239805538990817
0,229974663475745
0,233372636672054
0,234226303173329
0,234777223552889
0,230599092953763
0,231018792184288
0,224936412132749
0,225499375676828
0,221257097295319
0,220681626246931
0,220076370240728
0,224366003525265
0,213653049054004
0,219983992230594
0,21757219742648
0,216715881307704
0,215310685973984
0,214383760504999
0,206303839161023
0,209843699393042
0,209240507539294
0,212344509306161
0,204333716579124
0,206260496684275
0,203686524038549
0,206749151497358
0,203295100380377
0,204290470944052
0,199780609109437
0,20290032069348
0,197275270334116
0,19996974501092
0,198204781662901
0,201211352957737
0,194607685120493
0,193193238050047
0,192483600297195
0,194897116536802
0,190245986945988
0,194148681654481
0,188534028505023
0,189036367846212
0,186028330160425
0,191357126418638
0,18804209000366
0,18701963040313
0,185155656610077
0,184828192896029
0,18176214474993
0,184405175605143
0,18597673831989
0,187166426549013
0,179993968488798
0,184125176079167
0,179919978528433
0,18178021572029
0,177866265473716
0,177863071348368
0,175529702966024
0,178764030762932
0,176281200930616
0,182175251811677
0,174744935391291
0,178529036581139
0,174607688239799
0,175693918549826
0,173728465600698
0,178614306702387
0,172081760613445
0,173113213029005
0,169896553982756
0,171781052097396
0,171599293598309
0,17277568305503
0,167297997692769
0,165109028019159
0,162147797925059
0,170033964963954
0,168857072660914
0,169703236377904
0,163293853339321
0,166934059806075
0,166633648722498
0,165533598770839
0,161734846702673
0,166813046002245
0,161049543747374
0,16501942977975
0,161391916052906
0,162245092878259
0,161344171573576
0,162185112650477
0,158073168791867
0,163445801961155
0,159187982169545
0,159113537555444
0,161436652082985
0,159796036478325
0,157510834380995
0,160623031660428
0,154761000699362
0,158555273437514
0,156518299205903
0,158591419872878
0,156700709719668
0,157306502715219
0,153126578499633
0,157353331250687
0,15365962724223
0,156200667604398
0,155986172677789
0,156527647767468
0,148749533260356
0,15251615457881
0,152912455235683
0,158305069305515
0,152854791457751
0,150246905561681
0,153037902002566
0,153470877007547
0,151199770826216
0,150739019496218
0,148669116306313
0,153857111935271
0,153310761747789
0,151300642915737
0,146134638025643
0,149557347974802
0,146288889064748
0,151015427521788
0,14846064171988
0,148560647889617
0,145891432409337
0,149202239930964
0,146716091812201
0,147072785640497
0,143358823384261
0,146763197038061
0,146232388083632
0,143630597849482
0,138522908742131
0,139608999441943
0,138892830944874
0,144525939266277
0,14264069483489
0,143592898204006
0,139220204505037
0,142513184752596
0,140795133348617
0,139707648290896
0,139366155667575
0,13918309521226
0,135720125327517
0,138892602233525
0,137429350507798
0,139158521839025
0,136373913191859
0,137611492052217
0,137297999084798
0,136957543011201
0,13428305903437
0,134938538190249
0,132214901022818
0,132779891930209
0,132306144651128
0,132185081791706
0,131751792685112
0,129819195938743
0,126041120561301
0,131821344839665
0,129212896904226
0,131327933888733
0,125288508256462
0,129078242131967
0,124893412810145
0,126729806764265
0,123887045717686
0,127425281730887
0,125585438699212
0,12560801199855
0,123328641173701
0,127352275985887
0,123574994153469
0,125664589273011
0,124062582512973
0,126155216444264
0,120023905187782
0,120393129973556
0,122230664045203
0,123501583996225
0,120021756306407
0,120465906429802
0,119235091142368
0,1189467508574
0,11673485788478
0,118403313080774
0,112720236507477
0,116687184767258
0,112537121827936
0,116783643631514
0,115307145351464
0,110552823683684
0,109791313869708
0,115168703173474
0,110628321649625
0,108409555240721
0,109487748744833
0,111449748274721
0,105312959244601
0,105185233666717
0,108178838909229
0,108225396078643
0,104070843551713
0,107870323490727
0,107302052827017
0,107974684681658
0,106928680593726
0,103010908492848
0,103233423984865
0,105494375329689
0,100618843704381
0,103044188632241
0,1014328088828
0,102189222963221
0,0995945684603828
0,102469367854538
0,0993009734483282
0,101399247701434
0,0996997736819001
0,101008952877395
0,0983785791973635
0,100339314313764
0,097039136607708
0,0978441804396726
0,0965757400621179
0,0976073646582263
0,0954361266911427
0,0975035261108171
0,0963797080495268
0,0933811692923236
0,0934526957859963
0,0980589313025729
0,0935652064696143
0,09516924526617
0,0914676600433533
0,0944502556943534
0,0943539601051911
0,0961689694513053
0,0935797129218573
0,0945751112853809
0,0927834183425552
0,093121322270548
0,0918362194477558
0,0897273723365734
0,0906329779554797
0,0914167847881317
0,0909002800501923
0,0915460809659977
0,0869408779940115
0,0920677038516349
0,0902542798458399
0,0895743232164974
0,0861795367227168
0,0898184714551698
0,0878095516516512
0,0881480344032633
0,088541664343365
0,0885979844488454
0,0864072299857254
0,0859936241363373
0,0858817685078058
0,0870356750835096
0,0853287476962821
0,0846811664391441
0,0866967476377263
0,0884823277083594
0,0847030424532352
0,0855267365979758
0,0834544500177873
0,0857047164144971
0,0833156412427624
0,0817442027305378
0,0815787945705055
0,0815297287153376
0,0826950421262154
0,0848668371339063
0,0819816241514457
0,0859484258367188
0,0840469100280402
0,0827306357397646
0,0813430311899157
0,0814524720331697
0,0799431036828516
0,0827227117728927
0,0812700312675911
0,0824269765143199
0,0785461934321488
0,0808098943249647
0,0812224513106537
0,0823085865304125
0,0820054960841071
0,0825373654646195
0,084206934212293
0,0824316768723768
0,0789049137324863
0,083393562396256
0,078106680571746
0,0792626062364076
0,0806662082218509
0,0811483563890516
0,0797507071901752
0,07921713471897
0,0738793737736722
0,0799585215868427
0,0775295615853073
0,0761685000872558
0,0782826291992189
0,0779620356841574
0,0767389474341265
0,0801388893040243
0,074532426547201
0,0766417137299857
0,0773635258084538
0,0759222630685044
0,0756674496651094
0,0777026378585671
0,0762955703449
0,0765933074847473
0,0735574682360881
0,0769239788723968
0,0750848748777677
0,0734984609345902
0,0759239710615296
0,0767360626147378
0,0743441427352551
0,0722735898691751
0,0731537530927908
0,077110868561923
0,0731477556441048
0,0752948106941455
0,072130838687421
0,0735049799003436
0,0733285125557622
0,0725660922155202
0,0721895514776564
0,0740995312935762
0,0717939220837419
0,0717232412581853
0,0721442028613365
0,0697548921381626
0,0709442703188375
0,0739972808363629
0,0697180567885143
0,0701770935444675
0,0703046391752632
0,0712282525251051
0,0700263891405335
0,0693284036103853
0,0708115983525345
0,0691698424093904
0,0698691628226878
0,069695936226135
0,0679479527440893
0,0700279113202002
0,0690120792929662
0,0719623993936923
0,0714214689710182
0,0702295594519288
0,0702005759079957
0,0709012555547994
0,0686320137307139
0,0700027830532248
0,0672852263216779
0,0664967454353568
0,0656468017599622
0,0659566253706166
0,0664941453108885
0,0678735780400242
0,0654702863062813
0,0664562399875558
0,0645212887032275
0,0666775071843526
0,0671904892434694
0,0675144306784086
0,0668173984807098
0,0652543519190897
0,0643781054192944
0,0630288128909232
0,0652477999609918
0,0628142191008124
0,0633937540559653
0,0650575295408537
0,0637774242536786
0,063216611361308
0,0613539912509427
0,0614476732981623
0,0638929113124186
0,0632804753059475
0,063202974836954
0,0593857914515371
0,0609646757092675
0,0623737681301389
0,0623402162841186
0,0603780355805589
0,0604148521577202
0,0595021425037056
0,0572013545377407
0,0603140952693568
0,0590880734452108
0,0596253985755862
0,0612144851360199
0,058915402125424
0,0572118757232348
0,0582199150907192
0,0585332603965796
0,0588960711517986
0,0585631380052191
0,0580043254675718
0,0557621217431457
0,0572535621224523
0,0576381476783982
0,0548270913960197
0,0544555989311013
0,0563457476977462
0,0566010093721107
0,0555629984922695
0,0567359894216418
0,0574280521447701
0,0554572769538036
0,0580008734904467
0,0559322759600581
0,0542962683977471
0,05534891678089
0,0551766225316061
0,0534240551640352
0,0518494980746343
0,0529966103248016
0,0552608482209054
0,0534560962621535
0,0543875526584186
0,055507986251658
0,0548669457290827
0,0550636455137469
0,0538770323520526
0,0505008702801984
0,0532320397471187
0,0507277292449957
0,0503449335437253
0,05285006010203
0,0518293025984089
0,0517985002113779
0,0524959616391083
0,0500510141257386
0,0483170750380803
0,050178176839011
0,0503652137415555
0,0505015279902013
0,0497579637996721
0,0515268614643018
0,0499176293086422
0,0479915661704674
0,0492298171798518
0,0499415522825342
0,0524292200958888
0,0483723063093976
0,0480796319859778
0,0515999376005755
0,0518143132054809
0,0492336629567293
0,0510798564403293
0,0504980923888919
0,0472243440244818
0,0488796521961828
0,0477937976730366
0,0480731655506493
0,047468952320493
0,0479028512187826
0,0463923902635902
0,0495501868870141
0,0477372451944544
0,0489297020430626
0,0499481678334878
0,0476691379189032
0,0457420226006524
0,0472013292262613
0,0488686287090851
0,049342280847995
0,0464158124872837
0,0501291831625242
0,0452400357728836
0,0487171163354519
0,0484186198090982
0,0511068469639594
0,0464361743576322
0,0492971031285593
0,0446532982174364
0,0416610484381385
0,0368539704456834
0,0410434396707733
0,0432926298543713
0,0549552391115922
0,0488052201389654
0,0461931685711055
0,0370928098785034
0,0501451424318306
0,0431377972528786
0,0440051165867629
0,0442557725200535
0,0485750651309652
0,0406209105232337
0,0491533713917309
0,041593551363287
0,0495234251919637
0,0392324881547244
0,0494323953492409
0,0447121916609982
0,0497970511832617
0,0482385260762512
0,0528358708397174
0,0401815660389966
0,0480119216040106
0,0402004586782311
0,0462636766920431
0,0404946480057544
0,0543732006535211
0,034144707379019
0,0526684478254317
0,035742216764031
0,0527217635992218
0,038049451146327
0,0534000178159561
0,0336777847949493
0,0559103213568749
0,0307117749107968
0,0534418163220709
0,0289742179828474
0,0570937094302842
0,0308118238430295
0,0624467459430192
0,03040968340198
0,0518302712046344
0,0217944341636233
0,0567861080909092
0,0345190497395835
0,0621341698410909
0,0287450080134968
0,0519413898409361
0,0352954242682851
0,0563839184836613
0,0385655158949675
0,0440367819381657
0,0428872153973792
0,0472658914621494
0,0474013832608971
0,0339084673204538
0,0600774364700099
0,0321581810598343
0,0571490085001793
0,0311335348049055
0,0592869837744942
0,0275261070920771
0,0574861253040116
0,0339459010445649
0,0518020870483791
0,0364531436469003
0,0506815220163598
0,0423389568226009
0,0465749061200801
0,0417420938511766
0,0444078789605282
0,0388956834536009
0,0436354406616947
0,03847459730194
0,0460852857615213
0,0402345022072424
0,0471644102883299
0,0390849756103289
0,045503888262736
0,0402220901849263
0,0453322636143794
0,039188919991753
0,0454022303531875
0,0395820976216534
0,0446960966667673
0,0407421027364799
0,0438808836532174
0,0389930991501983
0,0444853904025635
0,0406709878497673
0,0441781946959201
0,0418117801411168
0,0425860993150193
0,0389487374679579
0,0455029762454113
0,0404346770048358
0,0449883063741848
0,0406233654293438
0,0442009097180073
0,0403648837093579
0,0433386975383062
0,0399929284127919
0,0456091113566387
0,0407529698865002
0,0446364292361
0,0405506089550778
0,0429802658729729
0,0403150958002164
0,0444610088517136
0,0410857231370399
0,046073965749047
0,0412411241076799
0,0448698244697134
0,0433784560545888
0,0461317288297219
0,040764979298858
0,043667731638389
0,0415036561696103
0,0448280212255685
0,0422724175174955
0,0466831925566316
0,0414570545911216
0,0425654005685774
0,0438728457180179
0,047235177682711
0,0419171773193274
0,0443151501363561
0,0429145475404866
0,046121532654413
0,04009106611745
0,0430436720157072
0,0423657742098029
0,0441565298924716
0,0400796359527268
0,0446336672109845
0,0424574523000653
0,0446959081806117
0,0426244373565974
0,0448654073576275
0,0404363458111252
0,0456549880012129
0,0420951871576492
0,0451075439128481
0,041303609191398
0,0452086289112348
0,0441628066686538
0,0457485038110301
0,0429847902041313
0,0444509468059268
0,0419222052360658
0,0466147429210724
0,0446218317590389
0,0467731751698262
0,0412884013027035
0,0469971251684497
0,0446247848464978
0,0466396299010336
0,0427293903790008
0,0447823519379038
0,0450879654352338
0,0455423790903535
0,0441850610405539
0,0475249167002638
0,0412983948895867
0,0458511549467503
0,04405290670616
0,0457045879621782
0,041619446606105
0,0458514774850639
0,0453011946917817
0,0471814203549882
0,0444313160330248
0,0468648671330956
0,0462152555495849
0,0465275659745799
0,0437793269297524
0,0475178554562018
0,0432442478504597
0,0492607311376342
0,0460289451557099
0,0461163763156607
0,043533199637154
0,0475908194994469
0,0453049544870917
0,0460515458143268
0,0458435327561351
0,0480110287034821
0,0453093332637976
0,0476223625495798
0,0445077411019589
0,0477370798489517
0,047003566329997
0,0495844499630114
0,0458930149237929
0,0486828837617457
0,0448126920955657
0,0482316564405249
0,0449522377874139
0,0475798099978365
0,0485296218076203
0,0487712330761405
0,0464038820587569
0,0477391162117783
0,0454413604508126
0,0493077602623769
0,0462840345773767
0,0492817021310608
0,0446288252398965
0,0489976942506401
0,0475103192008047
0,0493191074026147
0,0482733329333174
0,0514264928991927
0,0479593986056371
0,0486340243542983
0,0470081946112129
0,0491015772422493
0,0461425433069056
0,0503448359932576
0,0487741214485077
0,0505700209689533
0,0499907705100504
0,0490296145752323
0,0493146127274783
0,0504241308919104
0,0505228085584268
0,0519972839365676
0,0473543813421806
0,0500144548279154
0,0490281283348669
0,0502735241207499
0,0496348730785326
0,050438835472428
0,0484919269051718
0,0501718802899452
0,0480978225421163
0,0501458805796778
0,0491056368557296
0,0500960439123176
0,049019228176605
0,0532468930594701
0,0491053804391596
0,0489042080347855
0,0491550224172509
0,05189801089356
0,0473680747862014
0,0488302927293249
0,0448246859923315
0,0493771899441586
0,0470206269348165
0,0494087055877225
0,0485623924313807
0,050277207436882
0,0492055568955549
0,0475203444837439
0,0469052307542223
0,0504167245828024
0,0468997059211439
0,0508351628963333
0,0474262850281919
0,0492636333838949
0,046683662493594
0,0468626458384434
0,0475966876335363
0,0512538869082595
0,048122138867648
0,0485759525727836
0,0463646998184954
0,0477389367848733
0,0462620544903602
0,0475278172134335
0,0459239804383889
0,0481041484728918
0,0462056369832845
0,0478461615108813
0,0464465871940306
0,045826169360538
0,0460460467550377
0,0476550839967122
0,0462126631942494
0,0469496491630852
0,0463339045575715
0,0481938595683195
0,0478558165784546
0,0473434704935247
0,0455574277671287
0,0474725125139299
0,0457736627091084
0,047478807535823
0,0475197009891893
0,0482206000079516
0,0464591237878493
0,0477667585316436
0,0441115529358511
0,0487926870333351
0,0474654556195842
0,0473701079965556
0,0450281752776812
0,0455428640322397
0,046113781721466
0,0478514095063641
0,0455731125704653
0,0481096008133171
0,0444330216882629
0,0477669557155665
0,0453847757272226
0,0457899188269231
0,0454825349128581
0,0485507938624503
0,0439656640090439
0,0460099113498045
0,0450595539734134
0,0470560941679853
0,04447434098004
0,0470288175482545
0,0454081535753075
0,0486618916029864
0,0454837424862363
0,0457476055862233
0,0438421429221058
0,0455476681604233
0,044004858897106
0,0459329920106061
0,0429500258832588
0,0464492340196492
0,0460134511190283
0,0475891780170274
0,0438769538972323
0,0448698192695113
0,0459941560191747
0,0432558912385176
0,0449694408241273
0,0451220032846894
0,0437084535906761
0,0454175925363543
0,0433710883507462
0,0457000257131447
0,044012396086669
0,0457049536826406
0,0439342779698255
0,046349561146796
0,0442146339778823
0,0444924648712729
0,0437987924265728
0,0455830737632426
0,0430212595874929
0,0439392376877411
0,0439753414258363
0,0440823168210695
0,0433877467253777
0,0452069870642932
0,0444270697793499
0,0449769295801589
0,0415559471941521
0,043669585814073
0,0413007833210016
0,044077244913389
0,0424122856643798
0,0430971225808015
0,0403428878329175
0,0438776146868732
0,04126547878721
0,0441470607248209
0,0410245904954906
0,0426793652793747
0,0421909859659876
0,0435027687998366
0,0402587514921088
0,0418060683376073
0,0404278694016013
0,0409332666380749
0,0387007654611177
0,0418169196111335
0,0375598686835821
0,0413790665203218
0,0392031254808996
0,0436288434022143
0,0406170338848574
0,0439445321741441
0,0384752383044455
0,038979446392071
0,0385073470014253
0,0404223683078719
0,0386780226929726
0,0405260731671529
0,0365901967269688
0,0392216944474035
0,0379061473222151
0,0391271680264954
0,0368356386537033
0,039805588539321
0,0372525892563561
0,0389462229217078
0,0361734576102495
0,0392707536443856
0,0379930247440893
0,0398807677986907
0,0385466112350716
0,0381219214126926
0,0359393166872335
0,0371580159693068
0,0389097423164745
0,0367168791635024
0,0394742292878538
0,0425239307722827
0,0391681051938231
0,0364501952889231
0,0390582824816677
0,0371379002241901
0,0382278305147893
0,0386804696900242
0,0370739827282186
0,0367588684132736
0,0364057624061226
0,0384882002215802
0,0352983249703005
0,0371385243640729
0,036128296010788
0,0367770638849657
0,0373931633355905
0,0347211261191758
0,0360872768900194
0,0364420710500367
0,0354284411160185
0,0354675477626012
0,0362688632120657
0,036391832486242
0,0363926917507622
0,0361086559744327
0,0367792239415216
0,0374979334942489
0,037653675714113
0,0378578449083012
0,0362822295089717
0,0341233963181858
0,035814721860437
0,0382191263833077
0,0346700369757963
0,0380653560626887
0,0360028881986295
0,0348802407264908
0,0350675630739155
0,0361228451455385
0,0357670543569103
0,0358088470026886
0,0341996118095244
0,0339393263926244
0,034367896184949
0,0350586304560838
0,0356677730512432
0,0352915139452673
0,033979812562765
0,0358426569873817
0,0346100766783648
0,036379901718306
0,0307301978697071
0,0398352148076777
0,0354606999656824
0,0422429503459
0,0312743352973395
0,0365201221785999
0,0329423337247961
0,0357686661881533
0,0327246738397862
0,034780853853551
0,0341745085947265
0,0378217250812666
0,0356841097905872
0,0374048207557183
0,0322480631485966
0,0361819736458714
0,0340003160811117
0,0355067886478085
0,0323641887774657
0,0337206331253792
0,032694057590213
0,0348146841089789
0,0321539463095507
0,0423625471280316
0,0366909200840097
0,0370311303006982
0,029190653536241
0,0360661342031253
0,0363012179582952
0,0442441202456715
0,0336923894964218
0,0359353791621587
0,0369721404635142
0,0347375236300681
0,0331562386559144
0,033741225359734
0,035471387624423
0,0313761186911688
0,0388420343159342
0,0336732898990158
0,0363426038426882
0,0321630868650371
0,0339027105340723
0,0334968742472882
0,0335090017248087
0,0338178362814007
0,0348609354193652
0,0338929080437203
0,0315763371143605
0,0347300308103469
0,0360908754519706
0,0347704024166901
0,0352927680735788
0,0362248057870676
0,0331791230404153
0,0331522975703823
0,0341254474150068
0,0295193296430021
0,0397933071918806
0,0353664246602847
0,0404199929050027
0,0310589973945875
0,0345559698296248
0,0323815317647461
0,0363870623967299
0,0326141096620501
0,0358220526007115
0,0329917351232511
0,0338448344481093
0,0341319270141577
0,0334934426213482
0,0341240021153815
0,032996061975763
0,0351468834222833
0,0316661851383206
0,0358969690543254
0,0340246482101244
0,0349808476155222
0,0326977555516435
0,0351390083188153
0,0406695834211836
0,0443759140850106
0,0408621961124745
0,0376537527288115
0,0372351315298173
0,0349221348315082
0,0368258776558691
0,0322632401065465
0,0359780979214022
0,030131376383761
0,0358973596397432
0,0292503139525998
0,0361747504644883
0,0333885773257305
0,0376798691841145
0,0323115683710205
0,0355504893483335
0,0323063392351482
0,0372834973774671
0,031462914951684
0,0392143263075685
0,0281232462062271
0,0360997674637848
0,0305426276283984
0,0440864177889618
0,0299091880483511
0,0365952656176381
0,0361352136069992
0,0441166131900716
0,045148573739226
0,031694338582828
0,0392155165370307
0,0295323982284167
0,0353595659466541
0,0327141409454237
0,0389688624582035
0,0334469307257803
0,0367038178530317
0,0333177072612288
0,0356144980121435
0,0322670268924763
0,0321080234115032
0,040873377461182
0,0455355845932597
0,0459486948023803
0,0385004470881037
0,0314340126945732
0,0402052437718734
0,0433601965141173
0,0460384862822437
0,0329494678153938
0,0399389773903492
0,0340466090109927
0,0371870582380845
0,0360078619943697
0,0391136229522675
0,0388387501948223
0,0384135115701242
0,0354826410794961
0,0350564734808843
0,0383431051145078
0,0363676963976457
0,0384717246498078
0,038183577348237
0,039179088581357
0,040923711789768
0,0363577336025573
0,0403342213926112
0,0350050089386635
0,0375222358520981
0,036162689574635
0,0366460786591325
0,0416919691594995
0,0401672937028581
0,0403684162953031
0,0402257836689439
0,042332013945
0,0395860043615039
0,0338776475979566
0,042509703640715
0,0402720431595482
0,0360821048163511
0,0444100101471433
0,04026308558964
0,0626094175287854
0,0377258296192343
0,0505503611681826
0,0285093766441873
0,0484641479527333
0,0311167749836311
0,0491767879566519
0,0346501117666207
0,0531525367513392
0,0338709220730979
0,0420161613959875
0,0396689685307464
0,0427408175698692
0,0445004042472954
0,0389085286784779
0,0396034117585429
0,0392207442846251
0,0476709917710776
0,0434034021543399
0,0425784071544752
0,0427619245138556
0,0589883899340151
0,0543786970395439
0,0455690047678473
0,0492398026063301
0,0422078532323876
0,0562380444787042
0,0408316306168849
0,0473620907584995
0,0450504544229538
0,040425960416894
0,0445051651720147
0,0543283450489505
0,0556927770705593
0,0458034944763769
0,0415188917660632
0,0505075571825965
0,0524284164959182
0,0590098131260264
0,0447120149546794
0,0541357781321454
0,0396690807024171
0,048199289675152
0,0494338252947801
0,0666374429962437
0,0544674414790465
0,050735600476524
0,0689701225297629
0,0518936291736681
0,0599624413028836
0,046788896705904
0,062802974251283
0,0565403496370488
0,0603135374853658
0,0460630690398322
0,0640992731052494
0,0602977915214327
0,0667177238889767
0,0510156500758241
0,0600328115562009
0,0447456548736601
0,0656976440554368
0,0855297753654417
0,0836667773195931
0,058424260031627
0,0657514158211739
0,0624208846961326
0,0718665548226447
0,0627469546554535
0,0648978157417817
0,0660450120302341
0,0663127502557609
0,0697705639987311
0,0697378764178475
0,070925953185167
0,07345732091625
0,0669216795441522
0,0695380272248643
0,0685129616052886
0,110648456684677
0,0808524171836718
0,0975744659695966
0,0699971993101315
0,0972244639604234
0,0803457772173919
0,081494743977113
0,081058358965592
0,0850156852961162
0,0866703784036214
0,0853790719698088
0,0872959104464648
0,0932327329455569
0,0914492731030698
0,112406750185164
0,0964594001387959
0,112468585098601
0,0781622332572688
0,131821866997422
0,0946291073931625
0,152397193109621
0,106701872013051
0,117865647858359
0,120086993770512
0,140437387233918
0,146705887605351
0,130668442296332
0,136097857354389
0,142265538751177
0,145090029553563
0,152432013097225
0,154361508821706
0,169425217202645
0,162177005200553
0,168457892986073
0,159316609902726
0,211559663763715
0,218782401198816
0,19901471158769
0,196695842101429
0,201953666114851
0,213748329636143
0,214343876070026
0,215006685686302
0,212726333222884
0,238566718753956
0,235836917945035
0,261626984308325
0,226335865379966
0,264442823297698
0,235135490307853
0,273563839715532
0,25066580104771
0,298319354181486
0,277394444851549
0,274776873330249
0,288442881425313
0,284397740588253
0,302289889517028
0,299854502223624
0,318134510575123
0,311460039483635
0,314499359021811
0,316256879675028
0,317752257176483
0,32414765867061
0,319999477230258
0,33851592101
0,320232889995572
0,379799542402746
0,378269404216011
0,372846597375592
0,352654802605121
0,340746529217871
0,358117415362734
0,347350807477809
0,36050582568686
0,364302433419848
0,365532531485471
0,355317265161628
0,340331299253555
0,356278182626762
0,341535822604298
0,36037310619571
0,336907923222078
0,348907029553483
0,336123041140743
0,348163567721563
0,34949142003501
0,363074357485523
0,360031485761368
0,330649118715875
0,334113008474621
0,324381983431743
0,332544727466913
0,316175823469904
0,331309989093485
0,315042171362497
0,333246389059861
0,298164248717223
0,30952014596666
0,301915219390858
0,313618926210928
0,297320518887419
0,288680255413513
0,296646497751046
0,282411396915247
0,274320974944348
0,29038487230612
0,292082970526401
0,291402285197404
0,260627802824443
0,268821591092331
0,252690447134299
0,258411914883068
0,244467113125468
0,254853552714786
0,242573282061554
0,244279877027135
0,235008509644807
0,240459992342496
0,226606338095497
0,235279339639226
0,23043691324879
0,233364833720924
0,226339528163727
0,228565902097031
0,2248913247781
0,22471309097107
0,225126472338357
0,223089150080545
0,220539334829051
0,222440057464308
0,218062221764266
0,219261382800126
0,213933509794498
0,219378388111033
0,215954812388938
0,219007685000443
0,212787753544453
0,212633898738297
0,213640997735232
0,215259909327118
0,21216835395557
0,208784034659484
0,211284795833563
0,211711416002846
0,216054572943827
0,208188502904602
0,216691329277365
0,206772359948232
0,213328862259978
0,219928319996498
0,235739014883056
0,222033441463393
0,206051160456231
0,220722604911932
0,197813533507385
0,214227258281508
0,208680630699324
0,232888831962256
0,212835965743764
0,212715762962574
0,204650367937687
0,220084213485049
0,208601773647662
0,217824794008338
0,197966315539464
0,214106762771864
0,201704766847591
0,24385840027277
0,248764148768617
0,249579274376286
0,230427334482124
0,198305078795608
0,220753358823739
0,213073760988054
0,226140988853228
0,195506477496415
0,217420504297349
0,203623039962314
0,214357253600712
0,212858578160205
0,203318142218912
0,207116238694576
0,204579986721234
0,218382782525869
0,213649514258253
0,211912760579211
0,219187418784947
0,222833224725577
0,207604824183391
0,257420511923338
0,215132296385554
0,198078594715624
0,193022322778556
0,192105118165761
0,206366535493089
0,194210321824457
0,207758426582958
0,189510102576283
0,187434367715383
0,182722691968259
0,178141999011749
0,199332428335165
0,177699877354056
0,196402130168382
0,17520422792136
0,194905939211012
0,1560401144879
0,195708746896697
0,1843858640838
0,20985293607205
0,178462173397214
0,166059480527244
0,181661733671459
0,186920990297021
0,178900032831228
0,165042948805969
0,163084770471154
0,165454919124919
0,162694038318187
0,165559279134308
0,155703381638668
0,157582452321083
0,166108651617761
0,157268664207242
0,195521374612589
0,17631122234646
0,156645740857463
0,14954486125872
0,142445798631983
0,157799897560881
0,138313883152227
0,147155516297008
0,146024054041141
0,150667186333646
0,156557934201975
0,143718535599882
0,16747828611174
0,147459190265068
0,147769200052218
0,147362098199537
0,150223181248659
0,167127824370861
0,175719660124952
0,160552113206099
0,159533982866327
0,161411967539141
0,172655792337479
0,158073181444142
0,171666575766551
0,163893045132017
0,174140959782519
0,171801055711043
0,184478941492294
0,18171375233359
0,187628416347627
0,182437810265674
0,211561362868489
0,199674042808732
0,220305710586904
0,187131692239681
0,24536411248951
0,221299729083497
0,241545324593865
0,226697578342297
0,228373014750369
0,241423457788044
0,240920751536208
0,243054756853515
0,261075494103489
0,252382467846761
0,270848617356309
0,246114516093973
0,272880558356975
0,256183602418558
0,279497661538684
0,27281565597276
0,295718735347843
0,284390126475758
0,301355508536492
0,301854272957189
0,284769742184803
0,29151477417838
0,279357981266117
0,292103409617593
0,289034641451804
0,285501791019655
0,296529425162642
0,300172924853119
0,303059797149416
0,293003591266932
0,296055483943676
0,297246868721362
0,295491577245433
0,298644105136831
0,301380881810347
0,301374782294242
0,306713270930022
0,295284627948557
0,316615385256143
0,323961254229081
0,334752441812942
0,306438090048391
0,315142098832207
0,318832456438407
0,312830748403898
0,318690402208685
0,321992768985926
0,331459837570936
0,32652868129
0,319528372522154
0,327251392111269
0,319049100306672
0,351685197154482
0,329730960692908
0,350120003951418
0,329160080510107
0,33724413842184
0,341054038031524
0,354057149467102
0,363570800255587
0,341179243835415
0,358027871665963
0,340415796190476
0,348334842442749
0,342969118559861
0,355675459132039
0,342867708031621
0,351584798748032
0,347675105334422
0,347657745020806
0,345064454854494
0,344120715173122
0,349851324299013
0,346161076019843
0,350920376866069
0,340149469893633
0,343322755008345
0,338123835659428
0,342389842933297
0,345168423755126
0,346126528079828
0,346384687483319
0,330534714916486
0,340663283973889
0,346410047789903
0,342776751298982
0,334089924550351
0,334341871579406
0,339396449053074
0,337105830561238
0,332615236456582
0,337814819071311
0,339177958657128
0,355428809625234
0,336890466867112
0,343957278915835
0,343417156892014
0,353841421440188
0,342195488927106
0,354696836946256
0,348223055018299
0,35873517122528
0,354132127249706
0,359256367799248
0,354330296760104
0,363566366039363
0,366425129902058
0,366673372065139
0,361157154392683
0,356127432599659
0,354309543933615
0,359209653754155
0,359967299095033
0,360402357172081
0,348689089159904
0,353941873315288
0,340760046445496
0,354323370802259
0,345316454677936
0,357454816363257
0,340684919605999
0,339497557635091
0,330962299443868
0,33777953366375
0,334766554342509
0,32851662720788
0,326986870693141
0,328991064898793
0,325144149580092
0,323760044169302
0,326420006552438
0,321210359476947
0,317568509516497
0,322248365045179
0,319061626870086
0,32194366028126
0,315054352056813
0,318551076943439
0,312126838097521
0,318485032677658
0,312511401222595
0,316498999533713
0,314574993319109
0,326354393814467
0,320414152140353
0,315092443422341
0,319807424258637
0,313583472518077
0,312816395215231
0,311382381419203
0,313915138098251
0,311306603297126
0,312361330891824
0,305530167012911
0,308579594828908
0,302578713761481
0,306953060905023
0,301507348695644
0,300162605606403
0,297209907926077
0,299617818850894
0,295362697673196
0,301280039613541
0,294519611412323
0,295313504433916
0,295040586620206
0,29334707725948
0,295845526161487
0,289199960592459
0,291566220924049
0,289393022160914
0,292295747984946
0,290810857364691
0,288921530454824
0,287261991495238
0,284955942529459
0,285710340213433
0,286983712407712
0,282732158145309
0,282506326672894
0,281413735682563
0,282798754244307
0,280993288630989
0,278947139994287
0,275986990675496
0,276802058414914
0,272853161366068
0,269390190474307
0,268555354754104
0,268776908173293
0,264659839550083
0,263495734550937
0,261428017471329
0,258895679818702
0,256920553790351
0,256821577727338
0,253030431157475
0,252128256573202
0,251756053238506
0,249516612032122
0,249957441568655
0,249101597961485
0,248466139147892
0,246095635020487
0,248065122495369
0,24854750741299
0,247764121541513
0,248296725309594
0,248538057516727
0,246754632412232
0,245941703523329
0,2479482925269
0,24851758537318
0,252187413799798
0,248176946164932
0,252538494000683
0,250448190789896
0,251922649285436
0,251965248938634
0,255367884373551
0,254630087829489
0,257375707411696
0,257489280390811
0,258777192358635
0,258830097870481
0,258920762637295
0,259983336896133
0,260971500946578
0,2608283087439
0,263572090206856
0,263427278106026
0,262926293363812
0,261206788145603
0,263459671493856
0,263082560451877
0,258423090575872
0,261047019444649
0,260470071692702
0,261002324570236
0,262695908290256
0,260878905986964
0,2583745133935
0,259771292527355
0,260709301955035
0,25776714835185
0,257611537914181
0,257783249654353
0,255535976352715
0,254364652799579
0,254667150991829
0,255266030903132
0,252672429089105
0,252981720354549
0,251046171218116
0,249011710271973
0,250158283159579
0,24723066011575
0,248018649650167
0,245739803109796
0,244181943244495
0,241485790339663
0,242039127087383
0,241287498232514
0,23980350648971
0,238512267627502
0,237268939855015
0,234588385048602
0,235139095759175
0,231200818702434
0,230028637390669
0,227384461999817
0,228035100459545
0,224719510682977
0,223305821000937
0,222436769414403
0,221710696253678
0,219756819376389
0,217844707824103
0,217030909679272
0,215981356429979
0,214498711629066
0,214584542727512
0,213907593925298
0,213526747890222
0,212199697006154
0,213354682098653
0,214212129191377
0,213981466677245
0,21182138661132
0,211865153269989
0,211778436122082
0,212008266117857
0,211404209244783
0,20624237539311
0,207662770396535
0,205634240011729
0,205497759095159
0,203427681086176
0,202085115120551
0,197685476840578
0,195222811394392
0,194996900481549
0,190634348134887
0,188581766291602
0,186349944771709
0,182791542273259
0,182122646032902
0,184689377586723
0,181959987497111
0,184235663890502
0,185117256878726
0,186565096351517
0,189980877738291
0,193545236250948
0,19665430340496
0,203042780089298
0,208713181134183
0,21604403818518
0,222975939404783
0,230281769906762
0,242239652043609
0,251612942387267
0,261003500284134
0,273001183156272
0,284411185428216
0,299038548199881
0,310969880370451
0,323963307086647
0,339915985255831
0,352845280665597
0,37102081785937
0,387698920757308
0,401436907101133
0,419412013138805
0,437920223011256
0,453530428762933
0,470082615931973
0,485554233978265
0,499031261566332
0,514435463283089
0,52789054114633
0,535257949938824
0,543331590382969
0,55227604303382
0,561680758996888
0,566084988323868
0,571022812160022
0,571600599194762
0,567753649654916
0,567143590891463
0,564581255756823
0,560583141775575
0,557586377875215
0,554812239330681
0,549128081592164
0,543569650369374
0,535456846188405
0,531566466785173
0,524300301878949
0,520492468507798
0,517869213672372
0,51657187932376
0,515089137471834
0,516948719486045
0,512423052932531
0,518301012002059
0,517646969350499
0,521681935619357
0,52485612436012
0,533095958507868
0,539611231111277
0,546824651479112
0,55021218938527
0,560261336570366
0,569722695754715
0,575628104278762
0,580987662912086
0,587350704681582
0,595679873654603
0,600101391575481
0,608099030570766
0,613646994345254
0,611942375454678
0,615547431690817
0,620084345143222
0,61994348701299
0,626064977224597
0,623994576012568
0,6236120522114
0,627338910901674
0,619195146912738
0,629444083166779
0,625695395934389
0,632001981837731
0,629316116952173
0,638513947950101
0,643247423207724
0,649139968743056
0,653161778609118
0,663155902626631
0,671291201164082
0,673890561062259
0,679477894022504
0,682096861421691
0,686519243998133
0,699886472691772
0,706162199812603
0,721522878766573
0,718600642275526
0,737312244186056
0,749216688305086
0,764348405609984
0,774966885004926
0,788598851081198
0,806721403170439
0,832130100215948
0,851526364808738
0,872534282400382
0,894229986347162
0,92909927023476
0,944864569340243
0,962563646876929
0,982079099209625
0,996304663312697
1,0170759020757
1,01415445542223
1,01952494909595
1,02617532360286
1,01660219935682
1,02730464466893
1,01510177225206
1,0146944129384
1,0084680732017
1,0013198382962
0,989141357912051
0,995199461588865
0,993162127724587
0,986538015541992
0,966679398324131
0,96479135937377
0,97257698638142
0,968811030579385
0,987618968504928
0,977993629269368
0,981217113051409
0,999348797926054
1,00866626561593
1,01689621390282
1,02369908651741
1,03885694976467
1,05668704207695
1,06920521973967
1,0832218306574
1,08303802754931
1,11001443278439
1,12078703144131
1,12645281390333
1,15118385034063
1,14422282108053
1,17381577075306
1,18448474795624
1,19924782014662
1,19035991189805
1,22979884713414
1,2306198434397
1,25481658417651
1,25654901128387
1,26083068971656
1,24383148666033
1,26861891417131
1,25621310171996
1,30047566136429
1,29329144697522
1,3292371149868
1,31780185673683
1,31553146056637
1,32589163450782
1,35368311608909
1,35510444264895
1,35626922807386
1,35537716182255
1,36761850957833
1,35130531575925
1,3838084476547
1,34184965660397
1,3484424646098
1,35179660746405
1,33371442982013
1,29783537738722
1,26917547941038
1,23578199314456
1,19966184813966
1,18645297015091
1,1411061028782
1,09649818657882
1,06383246617602
1,03030671185706
1,01119857105874
0,965561825782893
0,938555521407652
0,904104243372886
0,881992759127991
0,870787438022873
0,848633190252508
0,824707703689252
0,817572322652623
0,802867222739143
0,798111178562807
0,781863615371529
0,764119618100555
0,758789335853491
0,736290917214027
0,723286548025351
0,70590892706054
0,686789941437174
0,678235005811005
0,659931079799734
0,64624164802809
0,617106434858002
0,59855216706939
0,565969732218019
0,557127867597363
0,528752377658344
0,502671861655417
0,481675021312355
0,457571761831529
0,432329376189473
0,410700317146483
0,390591750567461
0,375996141420363
0,354727659435623
0,337666694042962
0,319940151753564
0,301043530913725
0,285810745749621
0,270584557114702
0,262571748977743
0,249060430266654
0,242470128587405
0,231074433362728
0,223728192712713
0,217962677764284
0,210051721109817
0,200232467278058
0,195794496619003
0,19556263257479
0,191118013900286
0,184768361426119
0,182113234316734
0,180212204824107
0,177271332305353
0,178046277977166
0,176383026867226
0,17841845459501
0,170313819956627
0,171400461517227
0,174147086317272
0,175372714365165
0,177476432763085
0,17714133850522
0,178102110883959
0,180894679744423
0,183646629740194
0,183059695995883
0,186072664711868
0,189883917719912
0,190689157677183
0,193606809696922
0,193220083475296
0,198161234195862
0,198608126089751
0,20454866858952
0,201237573794061
0,204774411726382
0,205448944307146
0,208960706750723
0,21057611373871
0,209451358474092
0,21133908108765
0,211832390047728
0,212627566895244
0,213826333538849
0,213808887483145
0,215443861090814
0,210495926786302
0,210476081592414
0,212144434229621
0,214236040872109
0,219008593612962
0,216773334437983
0,217648159746329
0,214626243948327
0,214307275629082
0,218057326607186
0,215142494030872
0,215793248077226
0,211458447595723
0,212409908878139
0,214598720178984
0,212933253928601
0,211387128353067
0,210805166506776
0,204881548924188
0,208612024159333
0,206098094462221
0,206293369365311
0,209593949543173
0,209796414126319
0,210078636538593
0,212283407847024
0,212543793097029
0,216426123979142
0,217301878332079
0,225211038260579
0,233148892537604
0,239947160208096
0,239293066699075
0,242554813354875
0,247653063578335
0,248365496830751
0,247613918742178
0,251317695587043
0,251310912376352
0,253299539715319
0,245025047955471
0,240502524584531
0,240006279921342
0,237710093707078
0,233980191174732
0,231087577523646
0,226739476980305
0,227283188204627
0,226569663575313
0,227557795280519
0,219801592845804
0,224416660877204
0,225783721113052
0,227518619799154
0,222913906411726
0,229186267675976
0,229749454585024
0,232180697670445
0,23281437549644
0,229133963055469
0,226946752855684
0,229857015522053
0,226795871172081
0,232295452905869
0,230457864798406
0,233693998989396
0,22450051090917
0,237643610354898
0,232835923298791
0,236493229952481
0,228747819946892
0,233597664348608
0,232840950951762
0,236224562184401
0,23714677463486
0,239221774125605
0,228363483287272
0,231158214824157
0,236222896298204
0,231362466331463
0,230268719379366
0,235647153106442
0,236543603513722
0,229936320566359
0,228801175971627
0,230286369181365
0,217673532241903
0,230410659807125
0,227421848950564
0,23305424170493
0,226497073346825
0,224666961208898
0,231180735980862
0,231927589278758
0,233391017582964
0,23716789780576
0,21981016828198
0,229421296101049
0,220877215822257
0,217795622378697
0,218463034669714
0,228778552404208
0,207066408661244
0,210132091092131
0,211950375654918
0,214759638431578
0,221213637530007
0,216351366388661
0,21156469587159
0,222272104723334
0,208821949985886
0,217158700143644
0,216193788650009
0,216035703443909
0,214205421111584
0,220057629390012
0,214421135730696
0,223272785542028
0,216375443336288
0,223322766361037
0,217206057166277
0,236762592430623
0,233529821116927
0,229532332923386
0,226955059905573
0,236329754400139
0,230373005450757
0,233219691063731
0,229944618968497
0,242224936250987
0,246062370084206
0,246347280783093
0,249873977469867
0,24992214106592
0,244091932114493
0,257900287611141
0,263794278372755
0,25584975933027
0,266811268756479
0,267261992399041
0,26622454223897
0,278369707094222
0,284529013186397
0,300591283446692
0,303707216383326
0,310757400823278
0,308157369897395
0,326835575921684
0,321653117487932
0,328841624071887
0,337628224774336
0,337185400300283
0,351714100739342
0,35478188681693
0,359470587117569
0,356430885216209
0,346719946756557
0,36764857280438
0,355943488058999
0,356939384383507
0,350499417557445
0,361186583192648
0,3544455903763
0,360965996811757
0,34669805902419
0,362974471671746
0,350161908573913
0,342745959436843
0,360077268121964
0,347093117415967
0,345625657780101
0,356745152186388
0,37027687483792
0,352637729229729
0,372115626684571
0,366799034845767
0,354165181590076
0,36317877786129
0,378848558491401
0,354421378773273
0,370383979338873
0,362638957633633
0,358739328390824
0,358617686281539
0,356754644192064
0,35239819560046
0,346379472915688
0,362764222854637
0,377156585034736
0,360253329373093
0,349638532431465
0,336795361071811
0,324181635238221
0,328497584586436
0,345837918403205
0,352932650349371
0,34225779309716
0,356464217007516
0,341506670050792
0,357231472812187
0,320073562091591
0,355223056453788
0,370354944337192
0,349500382289767
0,350683157260643
0,364086875821638
0,342406535436675
0,347473955758999
0,333874622400411
0,35001188852448
0,357331020048111
0,394716559304249
0,373140374684887
0,376112139793269
0,341613028456467
0,370123349135557
0,375864935263996
0,368019702373785
0,355844451394599
0,351369940572006
0,37729112912491
0,389902814567078
0,373290446129517
0,412072160658688
0,352482271126852
0,418460939684583
0,446756206942812
0,426559947826251
0,432911395977897
0,431799783194029
0,410421145209856
0,453070086219677
0,40069734346104
0,392864458330719
0,459423449333849
0,429569126187449
0,417812238686679
0,433589157051974
0,43860138993754
0,490319463784442
0,460568346616093
0,517752350780764
0,424403744888723
0,481650098268872
0,467787315823359
0,500001343890041
0,441900714516909
0,486190886247517
0,406106399694192
0,448416402646603
0,451341562138659
0,472869820295095
0,463865062759965
0,415036822994447
0,400609876973113
0,545065118283028
0,485071747608766
0,443087136117423
0,387374073294111
0,438723815476548
0,418804965821829
0,456805365329842
0,476877461962268
0,54954614263654
0,429612100085763
0,446240335452228
0,408940880997161
0,489995378920987
0,52572092655095
0,480232416486405
0,449059079235378
0,451162686574001
0,391006300620751
0,405154048349277
0,426759911502025
0,54593118926239
0,506550199050993
0,474018195177719
0,490790644965432
0,486760406854762
0,539326650611354
0,406846487743373
0,395754384508193
0,465657903444685
0,445343581842162
0,54654097561345
0,473453820297242
0,703915970872549
0,369275948542264
0,357412909430086
0,517475014673848
0,524586241893833
0,461331317749055
0,443061495289585
0,622669163937866
0,605133332995863
0,544094274079377
0,512499022263681
0,624839138016537
0,422053643014359
