3596
4000,36533379555
650,420452594757
1
2
2
0,0195591844782273
0,00854873804736792
0,0171907098402929
0,0106228079918971
0,0125843731220455
0,00974405879819422
0,0210990191774537
0,0113962350933368
0,0207626238324004
0,0135628363577971
0,0164632693775754
0,0158517823278791
0,0180362119658778
0,0104320947645239
0,0144938873024987
0,0155936437606725
0,0176528717817371
0,0129732227135363
0,0215683271235174
0,00972822547507913
0,0175466603224352
0,0121761999210142
0,0163837115277888
0,0108955402270181
0,0128464946741253
0,0143060834517072
0,0220543340604493
0,0118936852680005
0,0190602765354162
0,0124196847823386
0,0141463775100767
0,0204380771764214
0,0139313805366898
0,0149083111327875
0,0169249372527827
0,00787904298152561
0,0210060798177493
0,0120931288775966
0,0155795065599527
0,0129371986633675
0,0233754102920036
0,0123253722482784
0,0222655709734673
0,0123645860703515
0,0187333641429335
0,009244252339287
0,0171221932423385
0,0070860387158728
0,0178396971444226
0,00957396736404274
0,0202337357347341
0,00748667425189023
0,0207300223809084
0,00621117809243057
0,0177418348622458
0,0177617329614377
0,0228754452111658
0,0126093257645556
0,0184549312320305
0,00281421085236435
0,017320513014745
0,0146314917635516
0,0241959578731612
0,0109628718138454
0,0148537722586026
0,0110567894080348
0,018165649195958
0,0123345297645706
0,0110277542030013
0,0148474463694214
0,0173427917212327
0,0228916542775465
0,0188409852670525
0,0100227756366096
0,0180150952120658
0,0104320880758713
0,0159950565751986
0,0128259545046318
0,0141428308621703
0,0112966090856903
0,00543703526080692
0,0206332514928676
0,0161281175614084
0,0107788117685924
0,0121935392697615
0,0148888964477473
0,0133403996420349
0,00849118625503647
0,0150198792819099
0,0198933444979227
0,0126344365224829
0,0150350123205608
0,0132366154295296
0,0183247463195802
0,0202397369147201
0,0193597887594911
0,01414156289485
0,0177932176985579
0,0115247999329751
0,0155140063369354
0,00254342901590332
0,0120405786669876
0,0220286688049144
0,0123291087657359
0,0345345364049255
0,00392321552135768
0,0221148559970792
0,0115104503187968
0,0205985360800328
0,0143131301913928
0,00936628275300928
0,00971737049781857
0,0137511324308171
0,0109770730585834
0,00446427350475381
0,0200984669840845
0,0138153282200431
0,0156146610278823
0,0111936193794755
0,0180061240284309
0,00622192067295569
0,0275313318189109
0,0171636317680168
0,0157553452822712
0,0147063920009039
0,0152263217586753
0,00724333431423404
0,0188928919602061
0,00740535481854855
0,015926198750477
0,0119988498172444
0,0135849588406555
0,00918810987984616
0,0128062694625229
0,0288630015511061
0,0110127276767853
0,0197185005601689
0,00391144378694468
0,0195521681810845
0,0186006575069693
0,0100284508601188
0,018337553549571
0,0141514218137893
0,0184679948404366
0,0225215558257472
0,00532828222545164
0,010683548154268
0,0176167276222941
0,0125948933471399
0,0149733633134798
0,0142792496141352
0,0123838078947849
0,0182745455404517
0,0135650175127759
-0,00404370761491143
0,049232197812291
0,0135602583108542
0,0344907635894869
0,019024080300304
0,0115380762507334
0,0169767899134285
0,00723576093660157
0,0134201919020469
0,00833721533455346
0,0216626043337404
0,00768496904468491
0,0159698319708492
0,0125344091466294
0,018605328150575
0,0110196157743641
0,024892031313306
0,00592844871129421
0,00882908528273899
0,0281970796216683
0,00939059875244473
0,0191754359655039
0,0171386803981104
0,0109030438252987
0,00747412246221583
0,0237609382084839
0,0138587858521253
0,00935307399126298
0,0185356683096082
0,0125919749990314
0,0163510596663608
0,0124541226773028
0,0118956505591958
0,0155219458836652
0,0155245800426291
0,0131673572849621
0,00599540073676555
0,0244710251242654
0,0167522657045085
0,015636999528923
0,0173599789625828
0,00183080363032028
0,0356562343123527
0,0134699801565717
0,019405250988633
0,00793285101493139
0,0146039070388237
0,0100095359283023
0,00896183647294538
0,0121045483887377
0,0121279706934752
0,0072814102506254
0,0274186690741181
0,015824745260849
0,020322441841076
0,00339827634057961
0,0162893161859936
0,0123737668442236
0,0338526732049757
0,00831405647032135
0,0200332121032272
0,0138407759920066
0,0179256347284253
0,014997097584254
0,0150633250845419
0,0101521892942384
0,0190434678611122
0,0121172402977365
0,018337014012633
0,0148741047738274
0,0173247445142938
0,00729029165196748
0,0123257017472088
0,0110394023643134
0,0145797319330146
0,00915731429890859
0,0161748001896493
0,0152097632147864
0,0154101130540251
0,00916479811874097
0,00823841802862232
0,0118839159711292
0,0180709675929268
0,0148216098336865
0,0200380520569369
0,00790145568488556
0,0121854290698729
0,0149336763089405
0,0143998799502351
0,0153198645635706
0,0171667029668786
0,0147626928444643
0,0235603505097218
0,00440693041226777
0,0192699945176382
0,0023936326474186
0,0203549784762941
0,00800528085593672
0,0199506675104602
0,000113956692261358
0,0196188813430511
0,00525612897623877
0,0154873388291944
0,00997393244517431
0,0207621775733252
0,00979076834759808
0,0213466093302225
0,00518240242828376
0,0257018648536879
0,00364931837390573
0,0170060478670194
0,0247884689346969
0,00494187745928797
0,014299865659226
0,0288221537406534
0,00356665551777654
0,0236066264689785
0,00195264751006412
0,0241409515078901
0,0240402813536224
0,0194113331011037
0,013237565034244
0,0197143919887051
0,0190673813297427
0,0174871919022118
0,0148545739739759
0,0025932412563808
0,0152031662208306
0,0145329080829866
0,0219245714603926
0,0263397227263096
0,00408123172783492
0,0291844100462208
0,0048614574553591
0,0208010182640265
0,00258227651988653
0,018980879715329
0,00879085626215768
0,0235402516251868
0,00992005217735485
0,0230724827621009
-0,000599202299582736
0,0188495187701002
0,0159757689034535
0,0146308219725488
0,00356974940980691
0,0166632147788397
0,00833587080299581
0,0166198930228217
0,0154723553424403
0,012431620770379
0,0148307265386163
0,0115215314057669
0,0110967034859149
0,0258011562084021
0,00497926281041573
0,0185953889642454
0,0139409181364322
0,0224431903968522
0,0116655861854226
0,0128332766771479
0,0115165088417526
0,0152731708549383
0,0107811381871689
0,011079167762829
0,0211653590317412
0,0131109887437666
0,013247378985185
0,0123412180431766
0,0127824068741103
0,0085741451319598
0,0109777821105707
0,0113587300674508
0,0109500878402516
0,0131126486990878
0,0115224359736635
0,0199802996660368
0,0157350734481593
0,00930487019884829
0,0226778751227109
0,0193707121376224
0,00893487011863396
0,011415945789364
0,0202783985569921
0,0142894885772011
0,00985809027188838
0,0169648842396135
0,0121650130050273
0,0152308379841071
0,0173721442221249
0,0165138742531708
0,0122187374476979
0,0114940757148292
0,0222912434739161
0,0301506223820727
0,0194862184877854
0,0201282405460082
0,00418810630449939
0,0345367161598798
0,00342934072026922
0,0369674221427821
0,0153010600682348
0,0240014672284286
0,010072306779331
0,0178883655989583
0,0185611695266773
0,0204326651665184
0,0162210043023234
0,00959543700740448
0,0172447795126537
0,0207054925421464
0,0166140886919152
0,015898227147852
0,0251832443694912
0,0292678238069529
0,0128043551970159
0,0183195416583864
0,0163450325696222
0,0190306100953075
0,0222679137540925
0,0137929156318341
0,026862266536801
0,0121396760133205
0,0279648152103938
0,0263051684129801
0,0208210111319725
0,0194186309877768
0,0178157024325
0,0208320637364432
0,0187869266595169
0,0204163389678793
0,0185958719628787
0,0206015863915074
0,0245930834036201
0,0223877462839996
0,0219791075348544
0,0203402751085492
0,0226085389238695
0,0287514775558241
0,0226977583327088
0,0304510932357236
0,0107406919345823
0,0240815267873828
0,0250397998031724
0,0410590832361448
0,0172138108010462
0,0291816309179395
0,0220742252252367
0,0298217200513461
0,0198487858393674
0,0323948358742149
0,022856389812984
0,0217246742228479
0,0285977517480427
0,0296975936151763
0,0409551209803136
0,0303734940461342
0,0271393027478983
0,0423298774068923
0,0230806771449824
0,0271426450372734
0,0304756704963892
0,0373130287079497
0,0125783482149506
0,0411858812124927
0,0195493608768221
0,0394400906380561
0,0331843813750149
0,0338904249555603
0,0293189590440067
0,0342983925462924
0,0316198980832352
0,0390445981822639
0,0365522118570434
0,0431858852832161
0,0380861060930338
0,036123934966538
0,0377477692569065
0,0420694272079217
0,0365903163078706
0,0389808794655616
0,0394050628208018
0,0456096450351498
0,0343983241395126
0,0409280963533272
0,0320951779230358
0,0486114557909985
0,0367036830263301
0,0582637470706297
0,0403006257505442
0,0423057156137996
0,0374337904617317
0,0508772504360635
0,0345600158468238
0,0517517153746966
0,0443069563510929
0,0501284712167855
0,0448039854991599
0,052099568264395
0,0450030055655329
0,0466405804562737
0,0409884876829361
0,0569997165546138
0,0394037230793587
0,0471711643008342
0,0587701556651424
0,0550891757252735
0,0491638711797411
0,0640820116948041
0,0491401823744702
0,0629344574029409
0,0589738323777868
0,0595668496171853
0,0572901202087
0,055752103651523
0,0494119431579225
0,0652693873575138
0,0541260544754933
0,0570033808139236
0,0601210886812958
0,0613083675347239
0,0499633706443206
0,0671741738002758
0,0560465437769078
0,0672957434500098
0,0640697849585531
0,0649811322668698
0,0628208574030214
0,0624749847851302
0,0578534870551105
0,070645413882288
0,0630111957406121
0,0664894948491735
0,0749242187687661
0,0713376414557145
0,0753762390214418
0,087926594435968
0,070955297101161
0,075806400670161
0,0704428153461331
0,0702324476539787
0,0733354629082785
0,0686160438705902
0,0776010844079373
0,0775593468044493
0,0710388393350454
0,0890437926030094
0,0749766368245881
0,0807689448659264
0,0765106982463045
0,0796870681299694
0,0765390851811383
0,09088590052456
0,0832130262118351
0,0861925513403209
0,0841374498492866
0,0866442283868869
0,0846001684885693
0,0844267180061799
0,0879102612809054
0,0941455834445139
0,0889915668916868
0,0993983451625089
0,0827008965419363
0,09359584473782
0,0938570863993747
0,09491024200832
0,0950465266178356
0,0991486896518057
0,0874537930327883
0,102229839131263
0,0908394428031653
0,0995391874845092
0,0894775599940979
0,100514370892959
0,100909535931965
0,112472845089791
0,103580617391352
0,117537419938206
0,0888769063865328
0,106048965961089
0,106608236057002
0,111927272585667
0,102310715344052
0,106183136623193
0,104735135676917
0,112847797784278
0,101872124180899
0,108588904777615
0,109373824637935
0,121555996457466
0,109270796724676
0,123176578527235
0,107168419258477
0,117960064273243
0,112482283589932
0,118212374841402
0,105550092083034
0,12412511082613
0,113761828673313
0,114824142674473
0,11824364510242
0,116435578758893
0,112511358131936
0,124336087311363
0,116774592412446
0,133616485698507
0,116195175283557
0,125525181672892
0,125612423519749
0,127539839038318
0,123918612033881
0,123600132252588
0,125560665983453
0,135863240263421
0,117606209845526
0,119196522635202
0,1268320741967
0,131373005957985
0,133725445016594
0,13320266831047
0,131443639036402
0,136655377919968
0,124075026682452
0,142708846711702
0,128417411606587
0,138901050279024
0,137235784760629
0,142533094158617
0,138069336821574
0,1541451856066
0,13090619524206
0,141458789431154
0,15053980646889
0,141081634291913
0,137051975663911
0,142512017912825
0,130142556595114
0,16443804359397
0,143563717150472
0,149736495579671
0,139086450639308
0,154629647870114
0,136990557530337
0,156224976089936
0,143148657439648
0,147068936995443
0,146820498118715
0,155573496396679
0,148995199482166
0,159871575600423
0,147688844170903
0,148707064541879
0,142675203882403
0,160274394746414
0,145879269961605
0,146958814092498
0,154727658325824
0,165817121458662
0,154377564282602
0,163335789815013
0,152497356631274
0,163179005233553
0,161050839352844
0,163463192974355
0,139137369086132
0,157801826291687
0,157213682838615
0,163829175850307
0,154785722157733
0,16548446204733
0,163707606579544
0,164343411417459
0,157321588726733
0,163709223108275
0,162219925777022
0,166332140993926
0,1585972594008
0,167254217003351
0,157513420917053
0,172703639714029
0,165550842250245
0,174843684043488
0,16582223585255
0,176581781928817
0,163066563944063
0,17361793878349
0,161861034218655
0,176238871316184
0,162402557545403
0,176392103343616
0,167943592121927
0,17882157603974
0,17538069540678
0,169204885606388
0,163402162982893
0,170530187527891
0,168694238809379
0,177642989616041
0,175668343645391
0,17145355138639
0,167630071708998
0,178497668836166
0,166869787478769
0,171675795899099
0,172020256409106
0,181266706657908
0,173925965533278
0,175722827279723
0,176961477281452
0,177494129773081
0,170868184688547
0,172039680280636
0,170670296331759
0,180274849240513
0,170583110523656
0,181770829007887
0,170336981382322
0,177669889057094
0,176242354757198
0,170948486821441
0,16969001491116
0,179808013198269
0,178207050436479
0,175803872674759
0,175332341405716
0,17503959366279
0,168131929014247
0,187452850146578
0,172370061700569
0,180453571103196
0,182148526901867
0,179769732313477
0,169909839115335
0,177577668401552
0,169946314115704
0,183202103712174
0,179969481971663
0,184066074100557
0,173077159015932
0,174176903309066
0,169505179969254
0,178422964001726
0,177230845044852
0,180898428151141
0,170221689663411
0,180822060670855
0,175776748965694
0,178962354190016
0,170460545135306
0,163535898541725
0,174564870372059
0,176660456451675
0,1697091557099
0,173338280488771
0,170252358594689
0,18390882880233
0,172580111535389
0,180924711766286
0,170543381420148
0,17914421770285
0,173575132038988
0,177078249282039
0,175589315931195
0,184055927898953
0,169821544610331
0,171517951930733
0,173170391851054
0,168209767333755
0,169488462185315
0,177538471158606
0,171652944952859
0,180022895051513
0,166750754331291
0,175476242545564
0,164828837099942
0,177472891093178
0,171701438088982
0,174291207277362
0,168993657894789
0,178106870108785
0,172402991167765
0,176109291066283
0,17103340166675
0,169420556045733
0,164636536662145
0,17152547953496
0,17117994573683
0,172904967554916
0,166310050955107
0,1740599559327
0,160508080522283
0,172792454213789
0,165371656923319
0,165692880621746
0,168933667814975
0,175061526984896
0,162883232058622
0,17452543789898
0,162032555177612
0,163335033656881
0,162219687174124
0,175159857718705
0,161490164321215
0,168083472192238
0,157603164845372
0,171059681329356
0,165086660379015
0,164906430260668
0,162479313132606
0,169839621290661
0,159947293301987
0,168451366331917
0,161937854684678
0,168422268234968
0,158739848284299
0,164460742384459
0,163275186120804
0,160734916889764
0,160006163428335
0,159334978650349
0,16047321860949
0,161834705465841
0,162863205782152
0,167662005936983
0,157819185160175
0,163183037457104
0,16025933259722
0,15811259094655
0,155125697561762
0,159223789009301
0,156584919125607
0,159285110437415
0,151058745123704
0,163719485341791
0,150688859274992
0,153900802304327
0,149029921559169
0,148628200649342
0,149036527643125
0,155616487724828
0,151434600634664
0,162481434070097
0,147149655696158
0,159838636826881
0,155366507444097
0,154091326653203
0,146341589923527
0,15471840433816
0,147850248751372
0,145315576278732
0,140042832736982
0,143080510605282
0,147653047291462
0,147076441465595
0,139327029325771
0,144148997670914
0,137823683613414
0,145383509450437
0,142946456243775
0,147520931674871
0,140447899564941
0,145782222919142
0,139613072983989
0,139630461273225
0,136699834063993
0,145070839968258
0,137525709234075
0,136794011342932
0,130934776412125
0,134547218158961
0,134537425036656
0,139303852670644
0,130842888158836
0,134651110924484
0,130542507517094
0,138562826534483
0,128630575612703
0,135594508492626
0,129151501387844
0,131086348248504
0,125171070431827
0,129699240082588
0,128093881389972
0,12645611804891
0,1313821451105
0,130884982930428
0,124070872252764
0,129482988736304
0,122830889086617
0,128278738067515
0,1221203150577
0,128817411059985
0,127691415207398
0,12807652726289
0,122169249421946
0,125775232017853
0,120554388802494
0,120640350527539
0,123292626260472
0,117521313093761
0,114998066618336
0,122151812146819
0,117220359802478
0,120195781975574
0,116789414221791
0,12071360747435
0,117107381934219
0,114181627203773
0,112498737611793
0,120286050625522
0,111270622778358
0,116148101246531
0,112901797260611
0,117246370491682
0,111408490248422
0,114878523932495
0,109160084720848
0,117019731983025
0,112568121064004
0,106345441288003
0,106657075922242
0,113788877945918
0,103268425945377
0,106747287666159
0,105427775575398
0,106670298183254
0,105601281719944
0,108816308092139
0,104977843912636
0,10628228741929
0,101297286361419
0,106975688702291
0,101347793407623
0,104304196061579
0,0965749076120374
0,101514197484643
0,0996787148859916
0,101291131774287
0,0973384207151602
0,0993883124092794
0,0965015766181497
0,0921673728293259
0,0970781434377199
0,0958858924737133
0,0894951319457413
0,095357063228076
0,0906092564330688
0,093436890663429
0,0886185990492073
0,0974564994189723
0,0926327640074913
0,0932020812113074
0,0860028480706107
0,0912014540191148
0,0946231274495544
0,0861804148917163
0,085730527423327
0,0914683282918152
0,0881060958971078
0,0853621685343243
0,0828505897145106
0,0896162723076661
0,086319610043452
0,0874486500226007
0,0862847171463218
0,0806837891318731
0,0825895362931259
0,0836619098161268
0,0785101635460983
0,0825244780285941
0,0803228392959142
0,0859078610684594
0,0834533419686442
0,0775787178122791
0,0775492639625395
0,0784085471471806
0,0752338737767057
0,0846849784835812
0,0777152004202128
0,0834271205125045
0,0764349705016611
0,0807898891409312
0,0732815824108397
0,0776686272425228
0,0706999224683089
0,0750662857319951
0,073049244386117
0,0785114267057114
0,0701614305212721
0,0731141011205983
0,071299923397121
0,0735524053618728
0,0710513389203704
0,0710554767375746
0,0718744509431148
0,0704213202780127
0,0682657880422343
0,0723771695811156
0,0659172623083142
0,0762962635597733
0,0686314124598324
0,0705452253195097
0,0690532190445154
0,0669386096160018
0,0679571434234548
0,0696125210972151
0,0675024113240296
0,0668014257257759
0,0660958692846371
0,0688340452898719
0,0671124708287518
0,0620525126901767
0,0636534947820901
0,0623449980351176
0,0660864047736603
0,0642518443935314
0,0583413321736357
0,0649306733479042
0,0570243225440958
0,0624563743497494
0,0627703393864707
0,061364262920761
0,0627138724344857
0,0673247916735702
0,0567007641031326
0,0606983958702826
0,0583535271626527
0,0634013546536987
0,0586425793126752
0,0605845271842129
0,0523724674154527
0,0599157177097086
0,0578763566836904
0,0599310575174375
0,0567066643093061
0,0602662906575659
0,0560232014863587
0,0566156511513147
0,059058252503832
0,0541772794188862
0,0548908661583378
0,0566508441543616
0,0566851323379308
0,06116032134173
0,0533026811658102
0,0585877268064377
0,0514789637191462
0,053537896044361
0,0547816227646982
0,0513580118669886
0,0525124890708926
0,0590654352254599
0,0507467097907918
0,0523162164537269
0,0498899665105186
0,04955379138435
0,0488956950849443
0,0533552407841778
0,0494952328179253
0,0522435536722783
0,0517561960658616
0,0454188231567335
0,0452330990376799
0,0511930597233804
0,048333577609856
0,0488196085204656
0,0459594772943335
0,0502675779027209
0,0499927097607491
0,0473357170682932
0,0465166300723737
0,0478725542973006
0,0435248191250401
0,0442192625003114
0,0460570810846295
0,0499572622101153
0,0434953534820149
0,0455257762390884
0,0449876445410996
0,0422693766856802
0,0399094754995272
0,0466767921609116
0,045593438427986
0,0433638997228941
0,0399826585114626
0,046929341114958
0,0410533294252343
0,0391508843542159
0,0389520124662869
0,0437812243178111
0,0440798311451941
0,0458852956046603
0,039986601618209
0,0390883936441673
0,0375829177709715
0,0426703555316329
0,0368674152407867
0,0420479868393303
0,0420161448290455
0,0435381191158162
0,0425719489251124
0,0422321285964006
0,0416893567044819
0,0404957579175015
0,0382911115339125
0,0429873953334126
0,0356829311012704
0,0397156255818029
0,0359184087480648
0,0392471582311829
0,0399722370038196
0,0399534264076106
0,0363551480026473
0,0361432676215651
0,0364530239337715
0,0413606903193622
0,0384421235109346
0,0370410678799986
0,0385004653842209
0,0402907762059126
0,0360069009261603
0,0391197027326011
0,0368680392761085
0,0404615458014352
0,035562920669234
0,0387407921983167
0,0393056846365832
0,0432247566654125
0,0391832983267691
0,0367425455429534
0,0373768729141088
0,0395789976061085
0,0350462386058763
0,0373590445922167
0,0381294182336579
0,0389376972227077
0,0404814726951707
0,039505402704074
0,0369074422927044
0,0398287232144852
0,0395701497624873
0,0411764366823728
0,0383129470146629
0,0398677789122348
0,0391692241368062
0,0416533430725189
0,0398805483133787
0,0446840287823032
0,0440805106514803
0,0412086318089167
0,0411958920839573
0,0473114198867975
0,037892528555365
0,0411626228597587
0,04126575512366
0,0459817648096493
0,0432538744116528
0,0434727803104092
0,0434024369163545
0,046579048129219
0,0449866196028825
0,0476823190016805
0,0415237157655437
0,0463062999980976
0,0442544124996544
0,0450787362316888
0,0451691540824002
0,0424492145264544
0,047513755662669
0,0483561333985596
0,0422899729662534
0,0484673437359188
0,0493518399135926
0,0483377610491905
0,0477771728178539
0,051548256113353
0,0439226060917459
0,047918568404537
0,0484934006586778
0,0524474735134024
0,0450662837312984
0,0496067876553597
0,0524997463328573
0,0483927922451313
0,0535369675473429
0,0486259683492601
0,0506525492709472
0,0535144887927994
0,0523983258293663
0,0557591986820113
0,051388694885824
0,0552849558010393
0,0506226767809825
0,0511964893142069
0,0510419027940197
0,0557185778801819
0,0497643907534874
0,0546441424195314
0,0495387776779053
0,0516209119833585
0,0489688143305906
0,0564119799757674
0,0508662521136051
0,0540547943088987
0,0506829421641018
0,0537531836694374
0,0515038552365281
0,0489107431029009
0,0511826908677461
0,0548962941945089
0,0543528896906833
0,0506035529670923
0,0491206371043545
0,0528584761863285
0,0514307498948122
0,0486405723399221
0,0453689724118534
0,048186762925205
0,0502144217128058
0,0514703597434442
0,05008419751179
0,0544634014055538
0,0491549431169411
0,0515817747294586
0,047132089271065
0,0487405282084053
0,0519805696437364
0,0515543613832432
0,0502618059095198
0,0501159448646865
0,0472519842394548
0,0535663923995289
0,0462359288078846
0,0470432831575837
0,0495514034940264
0,0504881070696014
0,0488471218831186
0,0483831596215001
0,0481267943113167
0,0543090884792068
0,049209655321547
0,0482259126682585
0,0495881309363341
0,0488877462508918
0,0504805727768178
0,0504818980222227
0,0506808192127122
0,0493271596752459
0,0505706966441717
0,0488770083231994
0,0481696884375703
0,0498885318523613
0,0438924525544541
0,0484557440150392
0,0483927369029587
0,0459648410951868
0,0426795299771852
0,0468695552953362
0,0440212038848976
0,0449513459740418
0,046505181481046
0,0455992144314568
0,0479614952771051
0,0429175258020517
0,0457077010021905
0,0498083306971517
0,0432876216207136
0,0383263034375942
0,0427491011273171
0,0437675005414635
0,0375157871359701
0,04265943994515
0,0396760626182809
0,0437537889744264
0,0416123101172934
0,0431593270495192
0,0400828907015073
0,0404540602875611
0,0385983137527512
0,0378827292862617
0,0327154232455638
0,0392181252994892
0,0380482173296744
0,0382835718037294
0,0368028594132204
0,0373483654621743
0,0376352778579867
0,0390335149620691
0,0351380432927284
0,0343493442428278
0,0340406067448815
0,0372864940011327
0,0339944310223977
0,0364352482449478
0,0345155231314237
0,0366257625902945
0,0327432382867232
0,0352485496498247
0,0331312922996749
0,0352717842508923
0,035514168116402
0,0347756791843911
0,0310704279958535
0,0321994285211732
0,0315367511117462
0,0343823264195355
0,0302123596653413
0,0335402745655359
0,0342742171613814
0,0289564754187538
0,0312375221670602
0,0339341337913067
0,0289792918803681
0,0327595687017251
0,0324288193763791
0,033008399682316
0,0279566305272961
0,0304593570357437
0,0283340999663863
0,0317913172172618
0,0286847655462722
0,0298112895671686
0,0291134364106506
0,0326992530983469
0,0285228847085767
0,0302346540566531
0,0285533530531738
0,0265308059142757
0,0315178843652383
0,0304771005773456
0,0259233937530844
0,0289045475800516
0,028500347100997
0,0325960460359289
0,0274674438919199
0,0280770739851523
0,0295202133440466
0,02801570907666
0,0299728524233034
0,027490859970703
0,028236283330677
0,0277666777301062
0,0263557383923744
0,0302310224832902
0,0262738313016532
0,0285874209614835
0,0259665693864676
0,0289251353180265
0,0285682799161754
0,0254235366586088
0,0293138606787937
0,02882429767009
0,0237223955993899
0,0267927002426742
0,0267965248200091
0,0257958932853484
0,0241444626950216
0,029383182885912
0,025732384709758
0,0269002331440304
0,0258767759002418
0,0247464995086919
0,0251429697553752
0,0273568011427706
0,0247138645436279
0,0282594102717017
0,0243114684773316
0,0263560597954686
0,0225471136805317
0,0234453265754533
0,0240960056769617
0,0269441320805166
0,0243305592440027
0,024387670166817
0,0240357603066131
0,0253079002756273
0,0257612751483483
0,0249722439474014
0,0240632003209046
0,0257465252490985
0,0226095715038041
0,0254234575513976
0,0249316401899155
0,0244191750673209
0,0238651095545207
0,0247597627735751
0,0237212381485887
0,0257054197081837
0,0250147397151836
0,0256952261053626
0,0266010257024346
0,0211097320104056
0,0209146585111144
0,024568253193433
0,0242641647006165
0,0290299352650632
0,0226328040623413
0,0212154584051851
0,0212501394731701
0,0242125872572392
0,0238348115107294
0,0221071238825849
0,0215326964386377
0,0225483917211912
0,0229474314437173
0,0242694915784624
0,0243522499924673
0,0264014711813229
0,0214396619874902
0,0233862498392595
0,0205880983773822
0,0234812991301004
0,0251219214310653
0,0216086496152434
0,020546506870946
0,0283675195952542
0,0239976468905307
0,0216441831997671
0,023182070783118
0,0234652282749214
0,025609904778874
0,0244122932857421
0,0234179710426295
0,0237181197913358
0,0202335598593724
0,0214057561825039
0,0220642992624014
0,026416862440635
0,0210691911376998
0,0241534500124411
0,0242865681534919
0,022699542338572
0,023432256364977
0,0200548658706455
0,0223830919535617
0,0265173949110631
0,0198128885269284
0,0205196359456293
0,0201873122300442
0,0213127419319987
0,0216487573203125
0,0221689329951031
0,0244366041193061
0,0230109302244602
0,0208086021440403
0,0239481472119249
0,0209874584036494
0,0220967188072626
0,0218085114579745
0,0215349340220275
0,0181175143021719
0,0223243824792608
0,0200986789772335
0,0215811978455312
0,0214997554931055
0,0240493318523234
0,0192447274056799
0,0199245470311938
0,0218182084348493
0,0184922002815791
0,0166058889765256
0,0216045526546704
0,0210195804885511
0,021098711758767
0,0202831731479064
0,0169427997437186
0,0198191672629958
0,0212251197190828
0,0179222244079954
0,020256102607414
0,0225388151553444
0,0207276222106492
0,0213508537892014
0,0202684681689928
0,0182117571111597
0,0199410713148908
0,0204939216757894
0,0225174058620386
0,0187659981145004
0,0166981553164645
0,018153655840318
0,0199622638220254
0,0203952726650237
0,0194617508236892
0,0185506575871859
0,0204101908471996
0,0194060982551323
0,0212761366205123
0,0182811344373636
0,0190842931531571
0,0179999904739132
0,0198865998680941
0,0189962067234321
0,0167275315589368
0,0179935513147043
0,0177555591238094
0,0192733989210092
0,0226241321058777
0,0157193200751671
0,0176336804592209
0,0177918337400226
0,0195229762348708
0,0169261538910822
0,0199154592435042
0,0177185946469275
0,0145130215804573
0,0166616692350026
0,0163260665651457
0,0166143332156
0,0171138731644001
0,0186637459063177
0,0211853260161325
0,016076149723309
0,0170263321114684
0,0176598601277714
0,0155787531759961
0,0158860788109798
0,0170933884509804
0,0165050740615674
0,0161256698632468
0,0153806959114113
0,016559013261377
0,0147296775864859
0,0162651900089392
0,0154735655009247
0,0175800748134453
0,0175296859777663
0,0150289516990509
0,017835435247086
0,0178682377918663
0,0172804948654786
0,0194880210029521
0,0137512162582363
0,0151179350619497
0,0185999419879013
0,0192584257232698
0,014389626519296
0,0154742726338856
0,0161136354126587
0,0156269211920032
0,0162532118787601
0,0133564113918278
0,014580891096091
0,0176553013831162
0,0173660087829754
0,0148267477205348
0,0120039037761015
0,0178826267342737
0,0149480498563277
0,0151592400913788
0,0130963385612585
0,0147971192715774
0,015477960815122
0,0148727271838705
0,0144931103698535
0,014182283648263
0,0158869585067048
0,0167744394174207
0,0121354754386374
0,0124538734361533
0,0140441046596535
0,0161069597286443
0,0145452810843683
0,0169747093052569
0,0125477553830388
0,0164402949384932
0,0147730351676279
0,0151465727719967
0,0148073586508083
0,0145229018245895
0,0105133954312293
0,0167641711500295
0,0159919984204829
0,0150414136651084
0,0144650126842014
0,0155773162765344
0,0128804425085473
0,0138230817671975
0,0114864431158652
0,0139003254567732
0,0117762772835867
0,0144991296891637
0,012519910550916
0,0134148716674109
0,0131446155024624
0,016599357495539
0,0146787754731783
0,0146050985047057
0,0117031073290418
0,0126734235899639
0,0123073428665598
0,0139274957949486
0,0141106470815608
0,0154444656546818
0,0119790054268674
0,0150943686355344
0,0160270597144832
0,0142331822235646
0,0127644020903741
0,0163544379678687
0,0119543819633332
0,0129882788346766
0,0147110026135274
0,0107854452221349
0,0116597165944947
0,0161009449648795
0,0163034800848587
0,0133281169892383
0,0132277172435126
0,0137655570742019
0,0130970712084778
0,0130720402278147
0,0110186048722783
0,0152349099579911
0,0131863301309122
0,0138369791836053
0,0159144901298947
0,0151080729181552
0,0136216996604811
0,0127326948572363
0,0119763555218408
0,0152682467928857
0,0133167603655418
0,0112125828294973
0,0126431524756047
0,0141740144410523
0,0121295894585099
0,0137964904414096
0,0101987137962837
0,0142980929407232
0,0137058548526944
0,0140038833549729
0,0126481618304935
0,0129428362094485
0,0147998914538873
0,0129301771742507
0,0131311670071678
0,012312181740157
0,0127183128130752
0,0133885587991862
0,0105593117992615
0,0136665985855266
0,0165939857679416
0,0141753321672489
0,011070181408226
0,0116957372343485
0,0116864857470222
0,014979516696202
0,0127514203608316
0,0121485724094795
0,0116424904433993
0,012419499338916
0,0111772496706061
0,0112461112002875
0,010387655377348
0,0147811527154206
0,0127799055925431
0,0118528620930999
0,0130062738842591
0,0123892653331937
0,0114973318878369
0,0127092167218295
0,0126134352578441
0,0139051806113431
0,013353049253751
0,0121029363877486
0,0111822021042517
0,0140097263961452
0,0119743915333499
0,0117506389231641
0,0119136889923036
0,0113691000123729
0,0117472714899329
0,0137323827075248
0,0122628321103307
0,0133399174607841
0,0128635316033084
0,0122198291822285
0,0102308635918839
0,013066042875744
0,0112477819771965
0,0157762715404325
0,0112664909649359
0,0120894784344604
0,0104138831336423
0,0151594128101441
0,00853955068249154
0,0100373716130086
0,0111899060890716
0,0115267098684016
0,0103637642224956
0,0130391482001552
0,0107737003518055
0,0119749720087037
0,0107479636485003
0,0130484800649795
0,00812314155707113
0,0131492418908566
0,0119439333661421
0,0140672084987676
0,00950802661274246
0,0103073298738852
0,00831766414448677
0,00975257361654166
0,0119936464621313
0,0125144095153892
0,01016040451396
0,0115735173728858
0,0116410698959082
0,0107701238243743
0,0108312426625468
0,0113603072659342
0,00970379370251971
0,0104396844409005
0,0107276164365644
0,0111053921281045
0,0110443929022238
0,01187211834853
0,00884605652236079
0,0103823379847903
0,0117625040493168
0,0118026409870415
0,0101587676134571
0,0115866089914269
0,0111755677385252
0,0115631896345373
0,0107537811853511
0,0109121957988993
0,00958638118525425
0,00991384016802459
0,0107026837475483
0,0114727962959308
0,00896173245296839
0,0099556311986826
0,0101744944458713
0,00970301325978994
0,00993328225949139
0,0109976823951916
0,0102289716396482
0,0122786378002387
0,00946212204104655
0,0110821279120521
0,00842597952152226
0,0096759964937475
0,00960484626111554
0,0108632083103311
0,0115085817396041
0,0102924411329107
0,00964962579002948
0,00849784552948977
0,00808376748610036
0,0085258567380114
0,0102233834291207
0,00898455022121402
0,00775584859793499
0,0110508629516327
0,00752037305609011
0,00986354634627604
0,00903337179781826
0,0119324958144641
0,0140468032690399
0,0063769569713472
0,00916947476505753
0,008580527200522
0,01032760712386
0,0087799155127822
0,0118330596519964
0,0141719647309341
0,00878256302534712
0,00945607491527791
0,0120356228963131
0,00834594052620803
0,00808746836714571
0,00858838856104921
0,00816519091939905
0,0106766097434702
0,00941349045623023
0,0105287034336589
0,010075633474186
0,00874863420343079
0,00874168736819496
0,00903542666128146
0,00845137003111377
0,0105849522777199
0,00908445615368448
0,00975754396007914
0,00861669117017739
0,00999146961808548
0,0091363245217591
0,00799939489073648
0,00645408330239921
0,00849727310187933
0,00819968584056138
0,0053319215536167
0,00478587532191832
0,00737117427442154
0,00766480232734754
0,0119206358785026
0,00812755840711154
0,00890947927982467
0,00741034898080197
0,0100838724286221
0,00730331301503989
0,00671677421518557
0,00729687612856693
0,0132002842396488
0,00753073201395054
0,00913487833033323
0,00895681771819357
0,00825113806084092
0,00868855725781656
0,0101789594237144
0,00822216174890961
0,00883787364756379
0,00842782044325031
0,0104384226705854
0,00677498199033067
0,00774013779136041
0,00456318718792627
0,00822407940480113
0,00833058895363013
0,00746394655002307
0,010003750613758
0,0103996603040431
0,0084271629687544
0,00826331456969924
0,00824020764609612
0,00619117506776632
0,00479932870296527
0,00894486146184296
0,0102756868555095
0,0077381328682635
0,0123237613572895
0,0101169514975047
0,0114799338829054
0,00411685626088349
0,00817735965569501
-0,00190031643628216
0,0153283895864862
0,0031315958346355
0,0181098760928763
-0,00028088482034234
0,0176748821876431
-0,00107149557693706
0,0232641989937892
-0,00406178373339516
0,0200511387725714
-0,00309471355720527
0,0190543682171498
-0,00186942391615076
0,0197669954240798
0,00082241661829231
0,0152409690657348
0,00237718637802658
0,0111869863275597
0,00993318993965811
0,0066148711462999
0,0064155386081525
0,00590083081336167
0,0131723040382424
0,00590130836968901
0,0120142388160241
0,0091005588738201
0,0104763287006314
0,008614110239185
0,0077918308391665
0,00917703386658222
0,00801893886769733
0,00870473068795493
0,00682054934150302
0,00729947821292081
0,0089877648040797
0,00886621086131952
0,00963978762739385
0,00847579458205038
0,0105682567467588
0,00736241335081276
0,00743969551056618
0,009187129020159
0,00893815047333395
0,00871781192065352
0,00853948413172016
0,00530815850224956
0,00752844952229181
0,0087821857679346
0,00861441825003486
0,00944630030076612
0,00847738487769149
0,00745920064657839
0,00760518991252792
0,00639374588218245
0,0065734718759877
0,00864245281086884
0,00769278945539293
0,00812373617529312
0,00744641194897682
0,00784796368050659
0,00849204789510467
0,00949446006572088
0,00876653342991059
0,00759800193598267
0,00632855067444303
0,00745019639343624
0,00801453704045326
0,00925219407207306
0,0075252437780281
0,00951298613899979
0,00773731993781162
0,00911883641658097
0,00850661326216851
0,0081709984449884
0,0072059733163162
0,00624252606825465
0,00569366463065142
0,0084847558014862
0,00896407690280271
0,00865413303040215
0,00914683576719785
0,00633997749959943
0,00895266982768259
0,00852326717421953
0,00920942527476254
0,00817266104334254
0,00940507356376403
0,00848163115946503
0,0089302407299916
0,00719155285858937
0,0114936086020086
0,00784733170623809
0,00846463256615619
0,00784935143023312
0,00987252394930137
0,00803787379570289
0,0102154888056649
0,00902543182580243
0,00851724985953612
0,0069349730744126
0,00807131463260566
0,00662744059651087
0,00870980809290645
0,00754584851422324
0,00849720791037741
0,00747407462302138
0,00894086003926339
0,00700226765231328
0,008602197575798
0,00889652677683035
0,00908145973531073
0,00924101659391345
0,0082527542587399
0,0077597979012102
0,0101401309964277
0,00872958860400308
0,00839863699618624
0,00612288046012136
0,0101760205869735
0,00823479002055745
0,00923495823322938
0,00856124296273537
0,00686424335334954
0,00772597892258958
0,00743491166776728
0,00881090204861064
0,00750340344528141
0,00923962415229496
0,00998568779382309
0,00672705359933283
0,0100482191681938
0,00863179266969915
0,0108849057233677
0,00777552607149203
0,0068480505040163
0,00956478692202327
0,00795467567772094
0,0078654929508681
0,00812987295728324
0,00696810525986199
0,00835717013137596
0,00808340713285989
0,00887042882627856
0,00765733067412613
0,00937553841718961
0,00847697063043579
0,0081807478949604
0,00665087048114956
0,00831314137277118
0,00895917744327351
0,0100459027919131
0,00855232195076576
0,00785971424032885
0,00918960278475671
0,00795662534734596
0,0078498964225295
0,00760760582955039
0,00824010083606451
0,00962582573572502
0,00930881244372269
0,00924240952125596
0,00683712008616898
0,00792771519353048
0,00832802443474783
0,00934926680973028
0,00790954284500137
0,007072039995672
0,00907134994442276
0,00834493326366706
0,00742036599240821
0,00690336464818563
0,0111589153734333
0,0108907045279549
0,00794290353658102
0,0093895751329851
0,00774793294877223
0,00874963569960289
0,00910478324406136
0,00786835719390919
0,00856719026878795
0,0102077860887625
0,00756562778250223
0,00929809282808183
0,00934954568382361
0,00924236619267229
0,00854232618447182
0,0106807686887194
0,00758203590336451
0,00809748561427017
0,00721893073848721
0,00912623760755347
0,0076409633542221
0,0109379176540049
0,00783046548337561
0,00898932777813262
0,00754272203680503
0,0078829750315712
0,00867180394527589
0,00902871205504603
0,00977578810974887
0,0101090968217408
0,00745037572734768
0,00899565994131401
0,00782254415135906
0,00907979334461191
0,00626758302863569
0,00638695759986808
0,00784724375439838
0,00738757186697364
0,00826024770508015
0,00856183311795312
0,00803807203025481
0,00883278682228072
0,00645326810350569
0,00876665203119979
0,00875398182427869
0,00662377391155105
0,00803939817619839
0,00758309130608523
0,00839659770583273
0,00755000245282509
0,00851975496422731
0,00882941166014848
0,0109887433305204
0,00836069448360042
0,00841572956426033
0,00817066779160558
0,00738236020096131
0,00811459097430709
0,00842161244992668
0,00811646126722669
0,00734573338231925
0,00745987222086611
0,00778661811815216
0,00843827207363624
0,00603609640245885
0,0101373045512297
0,00673852692728887
0,00994935454554242
0,00625157412946048
0,00891124231535252
0,00886986607952768
0,0093668996475451
0,00735388410274109
0,00965481460512579
0,00763554972820041
0,00800832772026631
0,00652608393804752
0,00906488294077587
0,00769296229183686
0,00938209269337537
0,00851305707035423
0,00517661547903176
0,00715209548913189
0,00891108771014359
0,00835018568459196
0,0083033127568575
0,00728054003917628
0,00679057723750785
0,00814384409562283
0,00559940427224687
0,00671685845410792
0,00964183712673303
0,00812321953920253
0,00889898758495533
0,00834812322467895
0,00796213270334455
0,00981083750303163
0,00797519136144998
0,00686772195751072
0,00652060303305904
0,00783701633864818
0,0088741260590107
0,00646728892048938
0,00721503708857631
0,00853336754645887
0,00849265254147476
0,00826616066941876
0,00902896023366335
0,00759263200872958
0,00825530944649248
0,00647323693892711
0,00810173752326955
0,00878583408821947
0,00911602066919247
0,00763801416807775
0,00622488549413417
0,00747493832079089
0,00894276575528398
0,00685443772431123
0,00786640855442766
0,00637895381489022
0,00772013347715889
0,00545432890614586
0,00676809548166039
0,0095502180028166
0,00754207764403932
0,00866887550782565
0,00656689702017443
0,00822843925714616
0,00825788407173012
0,00747423834461958
0,00702067526454617
0,00834441841754816
0,00827264999155061
0,00617518843588931
0,00825943225623618
0,00710787494691851
0,00753593915801274
0,00758812003113411
0,00703246553269128
0,00713968233775489
0,0071170914876032
0,00857817134606118
0,00641889181929435
0,00827232768443529
0,00722435048862455
0,00830160647070298
0,0079196401473238
0,0077629281945473
0,00561984109490703
0,00710765008147714
0,00984498166391457
0,00801057649566298
0,00643439049000179
0,00731610326314226
0,00842185518147016
0,00906922057327229
0,00740660978650101
0,00885659072923593
0,00541881468413753
0,00910102133778411
0,007164547521102
0,00637128918203079
0,00705739669925974
0,00662051711617886
0,00849380749904741
0,00640196046512503
0,00794233101260847
0,0050247273671003
0,00859942917929547
0,00675830540904586
0,00829232153109869
0,00686589520080144
0,0080640260000229
0,00697229799822274
0,00722921357540626
0,00604833833179796
0,00549820047729462
0,00740344742966486
0,00775141607422088
0,00738933398718303
0,0069506377204507
0,00772433713403124
0,00889604675576612
0,00650125988828175
0,00786781519943423
0,00770767350286239
0,00761221072647561
0,00388059870203619
0,00860261530184712
0,00554627734885189
0,00793642912290939
0,00770356723701691
0,00585880473976051
0,00443556048741669
0,00645388679438968
0,00733533232921073
0,00540498662870972
0,00757960313520461
0,00706639639606531
0,0071433368430654
0,0049780678498842
0,00877974214524415
0,00642973714456455
0,00695780692890917
0,00600334653268169
0,00812204704959958
0,00747802384091758
0,0056199379424164
0,0073544815405353
0,0072695969478032
0,0068470562694764
0,00510730512173647
0,0064890354843864
0,00712123930433951
0,00714354967025532
0,00658616510339995
0,00698388780944227
0,00594506434909923
0,00476200248045593
0,00671006941184486
0,0064862095702814
0,00599317145247174
0,00570115705638878
0,00646813297828283
0,00682260225211024
0,00761565879435016
0,00766733980795232
0,00726064137294202
0,00501442884966902
0,00604649013408722
0,00660378668035185
0,00661880360380084
0,00680913860587679
0,00507438554016388
0,00552310978314972
0,00670786073002125
0,00648612368193921
0,00605462956515914
0,00440479520019899
0,00729979579420591
0,00398509471035575
0,00807334647468554
0,00429879537004336
0,00706837228143621
0,00659077832978038
0,00731465732749332
0,00833442806430209
0,00506902615353865
0,00656209345658235
0,00587312093666487
0,00575969310463797
0,00492130991884366
0,0070251353505
0,00661843139358622
0,00745071729964268
0,00625185769000146
0,00659823894311955
0,00684232260652123
0,00794933410691057
0,00442651001321797
0,00651229661429149
0,00344749233574731
0,00641176240943487
0,00547260666439275
0,00533775817541445
0,00802603345295012
0,00831930281494331
0,00646571944751006
0,00593175143682523
0,00332459022770658
0,0100978540858169
0,0037356156214617
0,008941725432837
0,0043972189193417
0,00713980144007276
0,00383744654666608
0,00754240465199264
0,00421580590155105
0,00713938945342142
0,00458541254723415
0,00860642851502592
0,00537113593512404
0,00820367617145106
0,0051347716761968
0,00721352085352738
0,00600934481830245
0,00716997924095788
0,00614962007637904
0,00644763123072226
0,00493412478888735
0,0054765016796282
0,00547118103052934
0,00712300746320519
0,00493583856078012
0,00803572604594707
0,00482858980010844
0,00514205698982485
0,00563822328771807
0,00690122218293145
0,0035483117970537
0,00824200955161774
0,0060148088195802
0,00670604031743422
0,00597534731890901
0,00491420069318242
0,00575191705258509
0,00672616713047871
0,0055928599616588
0,00844051871080495
0,00777299300792723
0,00657935503185272
0,00722168732327276
0,00789519082986668
0,00795737270955909
0,00626746675657183
0,00772788788519164
0,00485946130384181
0,00806291429659947
0,00805289548118842
0,00393993226634011
0,00706093228462907
0,00561330616271997
0,0120890308401314
0,00749002277399187
0,00686665472269592
0,00604895252596955
0,00649679458429056
0,00705711621740589
0,00776748985159225
0,00568874153303608
0,00721156027322087
0,0044757115575695
0,00709920203564259
0,00240752306882305
0,00695403104050958
0,00614232683892964
0,00674637457280982
0,00559721830532349
0,0045399678756011
0,00755451163998129
0,00668276485627872
0,00464031161448696
0,00669180395045794
0,00551351287050451
0,00379712456821226
0,00698249737218723
0,00639266634717846
0,00707294054565629
0,00334786313250391
0,0146337935441169
0,004984887269614
0,00877881656600888
0,00400307333915276
0,00654177278893273
0,00573819729016378
0,00570219525334337
0,00636256007931999
0,00574830118870832
0,00666952704425694
0,00698898366743905
0,00812093462644866
0,00531457741811317
0,00571751866970438
0,0024877000430293
0,0111741484994789
0,0103333769334322
0,00899050305022974
0,00887940203244157
0,00251644331733526
0,00922457385388977
0,00930121767591811
0,00554224494946679
0,00793328355380752
0,00485013014693923
0,00563697723880303
0,00576147811211613
0,00775982949324346
0,00520857251708203
0,0093969014773351
0,0055206006843414
0,00745425434346003
0,0067233196080938
0,00761194444321671
0,00641596220899244
0,00694984309778608
0,00755650478020964
0,0087673386085131
0,00539470106266356
0,00999033775014744
0,0074834070203262
0,00608921427707696
0,00536216822949233
0,00506421291743459
0,0052325943255496
0,00921732189590419
0,00578108798412028
0,00659258329303556
0,00633510848913879
0,00711962918273649
0,00350519400773401
0,00694613101563893
0,00444673492185778
0,0101886672379721
-0,000931259638099602
0,0145636251490149
0,00773536111450071
0,0144348426545273
0,00917890410211531
0,00597923647760237
0,00531757564844227
0,00792731113451159
0,00535349994734462
0,00936517314128051
0,0102908694523648
0,00620208797852312
0,00985219594027614
0,00126413812975903
0,0107811915039796
0,00303548200940534
0,00897478880581232
0,00407437680217338
0,0068635064892099
0,00480819244015755
0,0131637849260763
0,00379733706171703
0,00766523675816993
0,0100436878430935
0,00623574079068877
0,0128039513866062
0,00495093294341157
0,00982477140773546
0,00725781833686998
0,00690173266636776
0,00943260946682072
0,00666289188306802
0,00958044994655147
0,00293081198540119
0,00762769495721747
0,00957881016380611
0,00817581216513939
0,00947447809189087
0,00749829005405992
0,00692169438963058
0,0123325213323976
0,00740393448342983
0,00961872041194668
0,0087349013097659
0,00717534775723891
0,00193725787282923
0,0191153471766
0,00539691017869126
0,0144867653774233
0,00343566655560313
0,0118206299238513
0,00658822813244208
0,0102081097872439
0,00624872319309204
0,0118113007571963
0,00946990775001584
0,00981600797640803
0,00624702773357751
0,0152891605574083
0,0105691181714707
0,0105746009586209
0,0100226714560848
0,007166234450907
0,00747846591198282
0,0172830662212052
0,0132519599302218
0,0147501207067914
0,00627261936487144
0,0116896300050748
0,0124213855332784
0,00758155300868945
0,0105057050620141
0,00890209312894907
0,0116413575329193
0,0105665659315518
0,0120229034467237
0,0115886298075712
0,00927650002239639
0,0144260762549442
0,00860008889129289
0,0108843635715341
0,00542705311367048
0,0218095912867008
0,0122748233720439
0,0116665639750575
0,0169410174395207
0,0114857887814337
0,0143325195153936
0,00840520895396996
0,0132845407126175
0,0111220281339933
0,0114370553267378
0,0138203716879907
0,00984455837512776
0,0175803233296429
0,0118218389463227
0,0209615685597111
0,0101551686852701
0,0170728478022111
0,00947964880334191
0,0153773782267922
0,0428099655599975
0,01223455357729
0,0215558394256611
0,00945117926139739
0,029826837780619
0,0177780599816973
0,0191473075276414
0,0182501502945301
0,0228689275147947
0,0182004254020945
0,0244123244032637
0,0207752463418486
0,0221510608730389
0,0243138379946732
0,0257424635630663
0,0201413339178729
0,0288921417756696
0,0225591379666337
0,0353716584350712
0,0255158687751756
0,0291548823613551
0,0266777238969671
0,0302711946228816
0,0313213092376373
0,0356346353653684
0,0242863496434177
0,0434302905562946
0,0356075996186156
0,0397963406739641
0,0319363413317254
0,0377519394319975
0,0377284021438735
0,0336490429640229
0,0490007574294673
0,0391583718427162
0,0444125962869484
0,0372520300444495
0,0441722717531956
0,0411177943201828
0,0423177155460067
0,0449852134225167
0,0454404656106655
0,0455567940464035
0,0441970240297402
0,0449013245922194
0,0454407912316198
0,0482641406028519
0,0415501595652872
0,046579891047249
0,0533734177093113
0,0457528883041678
0,0742570380824623
0,0463148613251812
0,0564536494081375
0,042649292771825
0,0507616766699786
0,0501674162451809
0,0459349712329945
0,0621211291990087
0,0482696205290196
0,0500162309271771
0,0445261734232533
0,0499937219721624
0,0473939907701684
0,0476304739298853
0,0480804268615878
0,045940363319227
0,0510444354205318
0,0366950362765753
0,062583121572076
0,0426188757886204
0,0501052515905148
0,0425748894958822
0,0455982671976107
0,0431649773432708
0,0465499370330359
0,0411390521037977
0,0446045616896794
0,0445405066232477
0,044409629805886
0,0392976935407637
0,040659379562457
0,050927847260534
0,0368223108426353
0,0424034380214413
0,0405170213780993
0,0394600845474286
0,0402087824467139
0,0342414660386174
0,0478782396479284
0,0409824295510735
0,0383168688381728
0,037728524877336
0,0370744113049467
0,0378630495632778
0,0355710808077402
0,03206919704255
0,0375990720149812
0,0337589405980032
0,031811053524787
0,0332484913157846
0,0298451550014966
0,0326140097042757
0,0333297120848001
0,0374390577039049
0,0304405335481775
0,0348773170471554
0,0347468912359616
0,033170369303794
0,0295602475510924
0,0303857934860466
0,0262858941111686
0,0319427543760585
0,0257589099451321
0,0329326311688071
0,0288106677352819
0,0293835408736229
0,0284595803668858
0,0307081282325606
0,031276544469553
0,0295201770891313
0,0261662877497825
0,0296043355778315
0,0275353186921754
0,0300158135486179
0,0294566172153839
0,0285517252715747
0,0289742697167328
0,0305024127312075
0,0293622912347001
0,0320860983320305
0,0292884884097854
0,0281831093491681
0,0430669928731376
0,0294744500642268
0,0365276608420846
0,0284607874456654
0,0357177752597706
0,0269576979933777
0,0283110646178046
0,032831877861794
0,0286245135534001
0,0311850371397822
0,0293476412221693
0,0283970854060129
0,0333029321063443
0,0288649368540652
0,0260650364397438
0,03006381454305
0,0247490233195972
0,0437622188397808
0,0261449298519856
0,0497602494611615
0,0322399571199194
0,0383222439463258
0,023400033980187
0,0331556235389883
0,0297423295226678
0,0303245090308255
0,0282364747406193
0,0274750033106259
0,0338888176120921
0,0262437792863462
0,0319476799068231
0,0293302515654587
0,027904899707995
0,0347830013825015
0,0320869654071705
0,0283100028292773
0,0312994813049155
0,0348776342967456
0,0255295808534572
0,0393210497906991
0,0361684251754129
0,0313238491550755
0,0254782829361661
0,0287290550213139
0,0243704514249707
0,0319220109242513
0,0241196581840207
0,0276571185427197
0,0278295083598355
0,0243231419792108
0,0284408445771575
0,0235634013816409
0,0332821436039841
0,0214640186000353
0,026803131083941
0,0253572764039606
0,0250230849083244
0,0291832332503154
0,0243851851984958
0,0324261733706901
0,029291210565345
0,0269520928941048
0,017849814741494
0,0307749554987732
0,0276274751331604
0,0246969017745565
0,0245468646326871
0,0202357185138561
0,021635102118245
0,0264150983517151
0,0204747129493621
0,0255354604757125
0,0196148423168962
0,0219707691801541
0,0231303703933881
0,0281446416654562
0,0255074566323261
0,021035523704139
0,0180127207226172
0,0199966960743032
0,0196649310994931
0,0199824779709886
0,0154326677586979
0,0286900082406211
0,0140923996837796
0,0239136154197609
0,0201382614051402
0,0230011238955748
0,0202719480422723
0,0199044053242526
0,0192676504281433
0,0192710153639095
0,016169450036161
0,0259650515932015
0,0189223760283374
0,0241468221052873
0,0204694867171909
0,0243857965506954
0,0213217164189879
0,021952100017863
0,0213900224170571
0,0243681085913998
0,0211902873556476
0,0252878790442169
0,0229265726151929
0,0277215864026838
0,0198523732534312
0,0309343043000982
0,0246975322467017
0,0297965181394586
0,0235761521760487
0,0265447487109371
0,0341896969799692
0,0290812477782619
0,0296858929218605
0,0290651930411644
0,0316578950861558
0,0315820676980982
0,0280413239672274
0,0324737920660378
0,0307579381595545
0,0345061458141488
0,0299496558545981
0,0359993137618376
0,0304665094808163
0,0324465185661338
0,0397041377905879
0,0294951879792372
0,0542900230933899
0,0320196001310128
0,0392091406430267
0,0322621331015335
0,0369739407444008
0,0364936137834727
0,0371009830381836
0,03622839538799
0,0335502719745166
0,0391088718774244
0,0371530447895892
0,0345058841402946
0,0401387645265937
0,0385828401120864
0,0414851146238445
0,0380097987290333
0,0387682007347357
0,0386187518826614
0,0378248637580145
0,0411008983670846
0,0352922055611625
0,0402258252367997
0,0536443528548193
0,0410175645880968
0,0434893843220809
0,0381618744434717
0,0414430988957424
0,0377380834433214
0,0405460942546602
0,0410966994142447
0,0431657822338666
0,0410876295565708
0,0416765752045832
0,0405148693974341
0,0394199387478461
0,0476184172673515
0,044005101248189
0,042187786130326
0,0450574676400509
0,0376464211607551
0,0555541136057404
0,0407853621563397
0,0475568938638068
0,0423740642515336
0,0455430977588922
0,0433188805831144
0,0420151286559139
0,043881376566732
0,0447071207768085
0,0407387057160642
0,045572775966935
0,0430805311242431
0,0435149404199683
0,0442361331471145
0,0423598505177303
0,0443031098058712
0,0441488146205562
0,0429090303767544
0,0428229991805459
0,0415537150472988
0,0418889270601715
0,0433508808183897
0,0460067375776027
0,0427045893214738
0,0468493373810332
0,0406531352078049
0,0426242774531829
0,0444713622594962
0,042260631552505
0,0421505599330723
0,0420786398586525
0,0403879746346119
0,0438673362752785
0,0387399520561128
0,0446756405187508
0,0429105598283559
0,0450541396023748
0,0412372094057568
0,0435499029035921
0,043246865110954
0,045196907142353
0,0430179111342011
0,0450630343507783
0,0420200146063747
0,0426554901228904
0,0447282789519305
0,045116857742062
0,0415814064866124
0,0432676448522247
0,0450405031415612
0,0467626920849968
0,0424697298001763
0,0423996809691955
0,0402171962082025
0,0450915434423597
0,0431267619639531
0,0440911081347121
0,038373802386899
0,0420118901480811
0,03771909253893
0,0404815261860394
0,0397730968138689
0,0404881835575354
0,0418223974151991
0,0355972069470981
0,0377312558837557
0,0397780515542062
0,0394044986535132
0,0376276010234956
0,0381791333369313
0,0368208490215823
0,0374426551133458
0,0370272002925646
0,0366236981405852
0,0363230932128436
0,0367706952594892
0,0375566092567392
0,0344869388161588
0,0346784942576197
0,0354212205915983
0,0376689749549786
0,0348282644531171
0,0376120723521444
0,0337482996675161
0,0344088882222889
0,0378934408261752
0,0364856823689791
0,0375510911070595
0,0342647479985194
0,0370197322074581
0,0344573941100923
0,0372463537556008
0,0363167938085469
0,0368469326366059
0,0364622627597675
0,0337285844579136
0,0358864706397357
0,0379012501366696
0,0346406313649801
0,0351776481041562
0,0360340743028282
0,0340674859507114
0,0355276227787452
0,0351570454063782
0,0354941192263696
0,0367451066762249
0,0355436590993337
0,0349110544904824
0,0376176640816389
0,0342257002365623
0,0357078732850052
0,0337301654324498
0,0337097224850688
0,03481355026942
0,0358796458094225
0,03326164253836
0,0368424541853726
0,0346636888520703
0,034338720843553
0,0341879473856266
0,0345194595147047
0,0346611433530182
0,0340818909845771
0,0326332019444921
0,0335135174222804
0,034170094450268
0,0361860484749687
0,0317415723617839
0,035604097335515
0,0323509567558944
0,0330365231206479
0,0323180057282985
0,0329246185190312
0,0332293587746622
0,0296910469981517
0,0301350019411512
0,0325113708644502
0,0305211761001806
0,0305326909236861
0,0330822386503453
0,0292677906077945
0,0320929259055523
0,0297545824936668
0,0302241179929387
0,0298179568146846
0,0298940282223168
0,0300635248048332
0,0319488662109802
0,0323235483014137
0,0301017618998502
0,0299965213261964
0,0297407898250428
0,0283142826944673
0,0298520527390269
0,0306718925451812
0,0306811173397934
0,0306581502055051
0,0309294608459607
0,0314142633022602
0,0306257291569776
0,0296912128037603
0,0307348169652995
0,0333761608892882
0,0316533388525361
0,0328964218708733
0,0325195647266034
0,0307571065420843
0,0317034925166
0,0315240168413026
0,0329159247852895
0,0319263745324191
0,0338084353318388
0,0335434904703003
0,0323800204727977
0,0335183892094946
0,0318619854459774
0,032940810627288
0,0318157723900839
0,0300815585541589
0,0323243092933169
0,0323520004978355
0,032669466679073
0,0324079564001349
0,032032461942004
0,0319522625745819
0,0332373836173499
0,0329321851096892
0,030977238011183
0,0309092452043297
0,0322005968935234
0,0301073623160709
0,0319002803393999
0,0310990214072095
0,0302913995665036
0,0316365643307188
0,0308563133079424
0,0295988471910465
0,0316593445646306
0,0312984492202132
0,0310354923213723
0,0316103734925957
0,0292333017708611
0,029671113380285
0,0285069181749199
0,0308739493940733
0,0299824778958274
0,0303374274784446
0,0299778602896342
0,0299669755361303
0,029247649961798
0,028333810854515
0,0284813943700747
0,0302209761279067
0,0292890290592406
0,0281430583737005
0,0290192249351122
0,028530090521304
0,0282953645213338
0,0285764977127095
0,0281535162666913
0,026333464802543
0,0266713955531135
0,0270357999261183
0,0267493126068815
0,0274255121354491
0,025846257916925
0,0268036318016101
0,026625117941492
0,0257866342785358
0,0279675685205979
0,0260176711908031
0,0255182646827471
0,0258466771074068
0,026384650633316
0,0267202502609148
0,0260421608065955
0,0235561742131021
0,0263979011522205
0,0252454624014767
0,0255646775876921
0,0246731301053444
0,0254262123263726
0,025046490737426
0,0238834529958117
0,024502945380964
0,0262762897584007
0,0241432114367208
0,0246000444096287
0,0237410588177108
0,0234167128104054
0,0258698025027667
0,0252247386791995
0,0233324808971599
0,0238632729386619
0,0254922430160455
0,0256266703047474
0,0267703983366192
0,0267210436738151
0,029551910246162
0,0282280438541457
0,0296368305069453
0,0317973348254089
0,0336509041557012
0,0354232170853045
0,0360741005064694
0,037887553873282
0,0375016548682953
0,0388365706411573
0,0419730668864461
0,0428533320517495
0,0425671143089721
0,0466559777946964
0,0470702108708321
0,0500588107552354
0,0502941105749585
0,0506468480627322
0,0524768875411726
0,0532613147854469
0,0535695172143737
0,0568651449248218
0,0556708793261778
0,0561764060891806
0,0575190576617514
0,0586140127157807
0,0578714076921616
0,0586719487986537
0,0589005724952254
0,0596630739541497
0,0596880044897172
0,0610365361526776
0,0590521041379592
0,0595853856094524
0,0599238238759015
0,0603549526513817
0,0597679889924198
0,0593634895430281
0,0596452302381988
0,0614034010956489
0,0599574094776369
0,0598630159558145
0,0617925602349374
0,0619966623789198
0,0604563955507765
0,06274970414495
0,0633444706618964
0,0623375464475856
0,0640736726720609
0,0619688874824327
0,0661960204605447
0,0664837684865774
0,0670218263163185
0,0670820276133577
0,0689316318515978
0,071004580500194
0,0692867604289266
0,0713833829568506
0,0707389069851522
0,072456380552675
0,0745849006098797
0,074980893614327
0,0755752513132287
0,0769600769969567
0,0783466980640971
0,0798058454499388
0,0787663996466276
0,0774412856041679
0,0788111872790798
0,0772693098295137
0,0764561373011839
0,0774766470941729
0,0807470557500638
0,0776140563071538
0,0775768896847251
0,077968290226356
0,076417262139381
0,0767624482557078
0,0783196321016846
0,0768856591205902
0,0799041353680154
0,0814105371959178
0,0812000358803823
0,0824568412396794
0,0841054058034196
0,0854989082458087
0,0877538268631022
0,0880030644489338
0,0907646935426718
0,0907180377379534
0,094112451196331
0,0959892301815436
0,0977551511825216
0,0991753321642767
0,100559880444628
0,101527690422093
0,103303136871092
0,105786467042503
0,103737853777913
0,107918892487795
0,108762870971296
0,111461955287291
0,112977333376987
0,112626788116299
0,117255118175562
0,118591267262174
0,119519328571441
0,12382100311117
0,125292565810747
0,124462026308577
0,126364231421436
0,124797324728025
0,129828110918753
0,129460018039149
0,127640840479589
0,128596109739998
0,128653325024811
0,127392174277435
0,127297163972652
0,127403866606642
0,126969146282227
0,12642076453933
0,122643411151044
0,12273494780038
0,120305202354359
0,120253408997473
0,118944766857755
0,117044887158107
0,118045511251521
0,115921221953311
0,115755165419536
0,117904043942833
0,117004588395992
0,116050551006893
0,115398442515413
0,116245323354347
0,117813293761724
0,118008977642654
0,119019948063806
0,119692268519905
0,120548483575509
0,123482326280251
0,12109295774212
0,121262650655762
0,120699821582697
0,119834863508002
0,123542079354502
0,123975768752083
0,122412236109695
0,123115474069475
0,122772953386136
0,121758869410194
0,119329219533899
0,11988523329535
0,120627339016651
0,117267542055135
0,120021687246504
0,120560287204365
0,116284542966205
0,117177918747429
0,116456782604523
0,112893704974324
0,112599706907412
0,112106908988685
0,111496486386728
0,112242598317696
0,110559341312298
0,10706902848775
0,10792652622213
0,106854735666259
0,104057428967161
0,100134379314337
0,0982518150034888
0,0974678062643863
0,0951080180299096
0,095070994610989
0,0898819528903354
0,0886764447765148
0,0844464780906655
0,0795514991753074
0,0811964111455127
0,0761265490477119
0,0708430136530575
0,0682407713808734
0,0630785218418497
0,0629617536521785
0,0618508563517926
0,0592307826600521
0,0567511016820112
0,0555294601109967
0,0558236741875517
0,0541630465247885
0,0528801995129012
0,0521750840354665
0,051109521660957
0,0521621464601904
0,0562628067581117
0,0513369054649344
0,0516675055068294
0,0509600707603889
0,0480728061575938
0,046092360998184
0,0469649236011782
0,0480099919945274
0,0447369311761107
0,0439855388667159
0,0430431797752987
0,042933042314595
0,0419930548979803
0,0415003652296093
0,0398354445148523
0,037345648604148
0,0356053639135451
0,034990373685289
0,0345956410857238
0,0328904752115785
0,0332289110789936
0,0325829230836977
0,0304488667125284
0,0262248204819964
0,0252020908033751
0,02687521503723
0,0231760441999756
0,0235231251093977
0,0225129963105072
0,0203832399567597
0,0212081069264177
0,0205251245265804
0,0184944705075891
0,0174792892750073
0,0192244819425349
0,0197776498116504
0,0177074336763186
0,0179855527720091
0,0204229515813299
0,0161951571999748
0,0173680056720753
0,016328855435904
0,0167461956907497
0,0172427098093263
0,0158697253920597
0,0177187134546663
0,0169994369607182
0,0163490712133661
0,0181095064510726
0,0180661859005239
0,0196624795079102
0,0206180860203652
0,0197150663399104
0,0195025748858726
0,0220533046872167
0,0162328552725638
0,0172279814755833
0,0155982390470088
0,0197529827469191
0,016039186687245
0,0182492992189633
0,0156281877680581
0,0178644515188856
0,0176557973804184
0,0169255758014197
0,0151075639962146
0,0187320314652909
0,0189424309660094
0,0167644231707063
0,0173345567411142
0,0167862353804462
0,0150150388443461
0,016673508187966
0,0167000923173682
0,0158189792455636
0,0190971731726611
0,0205125356220533
0,019424024112332
0,0170674703872484
0,0191456447305183
0,0176361355702492
0,0142671752377229
0,0187808876701495
0,0215713741892154
0,0202164517058682
0,0164674281651289
0,0159851251477606
0,0209960280383644
0,0200681402391508
0,0218389357927512
0,0194264576386255
0,0199301358834125
0,020264727959631
0,0202128199412268
0,0166921554185453
0,0227109195172599
0,0200252497453471
0,0208854984578519
0,0215571236098199
0,020614209035598
0,0208606592054491
0,0230337464855426
0,0243821268389585
0,0252336877787714
0,0251899518688895
0,0247187264679866
0,0261431346739789
0,0281583640370706
0,0276484472699988
0,0250398047617699
0,0280666870089687
0,0276137656806584
0,0304390451771565
0,0278769146715693
0,0259839744507283
0,0260621510825242
0,0252971997388479
0,0247228543847608
0,0260407758484437
0,025991475430305
0,0244581007651944
0,0241558942260193
0,0312586819907656
0,0255513990111934
0,0233109137517136
0,0256985591454163
0,0269047103560686
0,0194629865019019
0,0263091836982806
0,025998430148375
0,0276382401122409
0,0249825831844817
0,0238686611136391
0,024631816762603
0,0282346259959531
0,0225119660000274
0,0238565013199317
0,0217955318536199
0,0241284225267551
0,0172504089623987
0,0175097120802757
0,0232661920157534
0,0208786370080856
0,0216376181033709
0,020727705129544
0,0183707972107986
0,0199522117245468
0,0225174879544491
0,0241560899179083
0,0228727798085092
0,0238159930972394
0,0222820483751675
0,0167876394030238
0,0213053328836991
0,0195741518665554
0,0234956432541133
0,0162679221428464
0,0215011699022773
0,0202816003377494
0,0149217102751358
0,0203786649514956
0,0197781658550817
0,0261403096732426
0,0220253861466395
0,0183691784408659
0,0249458700662527
0,0235203771045704
0,0222851176580033
0,0236179347037489
0,0205253096241793
0,0203961850608669
0,0141977690065241
0,0193541279397778
0,0166553359327346
0,0190639959995856
0,0137467903483749
0,0149229478337143
0,0160030473822349
0,0176168202654087
0,0208108661264819
0,0227230083358149
0,0137220101216066
0,0182316006676925
0,0199326075093623
0,0280224915280081
0,0229093846984492
0,015054749607551
0,0182072170849793
0,0207530354558442
0,0180137724243981
0,0240087492413772
0,0168127712414481
0,0251998750335044
0,0205243793415293
0,0241559542390899
0,0225134185121344
0,0290495101535467
0,0219071443222518
0,0203048515907427
0,0248608015985121
0,0183329950419683
0,0200444464933533
0,0272538222329269
0,0229603121636753
0,0204629887770432
0,016985448862024
0,0207638144903321
0,0237295051074591
0,0314153293668995
0,0239185930513484
0,0234464905774574
0,0245785871030417
0,02225554944415
0,023295365702094
0,032708432595365
0,0231972556186878
0,0314845029070106
0,0347076996552704
0,0404951783305687
0,0333080911088467
0,035018826397023
0,0299761364098906
0,032748144119005
0,0371957888680636
0,0284958077615437
0,0337494758998728
0,0307425965074652
0,0447232434080879
0,0307077227744401
0,0439873232536674
0,0330645636308751
0,037287775027138
0,0396403666224992
0,0353733155059125
0,0400815917970071
0,0314797474357965
0,0299655909910561
0,0414632077833767
0,029417411455929
0,0249488880807533
0,0277999163505604
0,0334160586151377
0,0331372940013745
0,0418405049496663
0,0315311254749433
0,0294558600002413
0,0261163946898677
0,023746988322329
0,0375974734286673
0,0326357376031309
0,0258791833573485
0,0391815765808789
0,0297903911086477
0,0418133945712925
0,0337917805539317
0,0344405154337511
0,0399776979604025
0,038620199836771
0,0310140465313382
0,0296706460298344
0,0255745348009283
0,0325483888674688
0,0359401455557068
0,0269445603331646
0,0297632762931201
0,0306452621454032
0,0287281631716135
0,0339820438511968
0,0202447351132904
0,0242454125727684
0,0228500696833876
0,0306803549968821
0,0410016907775177
0,022483758587382
0,0253268253937822
0,0297896970432489
0,0239190889814514
0,0260905442035674
0,0284601362410394
0,0409622369105591
0,0359566482737188
0,0333367609718255
0,0353898226381877
0,0315255357182501
0,0520670958462736
0,0408027778310908
0,0450550087317945
0,0351426454614355
0,0341139330123512
0,0135379383422878
0,0334098591876369
0,0260139871219081
0,0419647984511014
0,0323197582030475
0,0303897842758708
0,0123412686028571
0,0432546760858404
0,0190450629651958
0,0405114135910112
0,036529597015464
0,0249070403321879
0,035667376317812
0,039836329783588
0,0683516999639019
0,0687949948345768
0,0196587945352207
0,0450947815685617
0,0264170908048111
0,0328025042143259
0,0415399998058644
0,0375174220637558
0,032376032771265
0,0340411594397674
0,0340168189190854
0,0589322530498318
0,0468955766189811
0,062222326170765
0,0268182937324389
0,0612269478805913
0,0230249603005237
0,0484693683208818
0,0411104425740047
0,00520047491669207
0,0554703595179144
0,0521823930787161
0,046712396605197
0,0112907008319142
0,00826763220077137
0,0563471888700236
0,0465368229517064
0,03383347650162
0,0394915906504505
0,0504312695424747
0,040595289309717
0,0340864368222045
0,0367657021607515
0,0413187856324888
0,0517081586226301
0,0680842800647988
0,0171112913848554
0,0378094407940509
0,0486223401568043
-0,0111242368683996
0,0729693364441072
0,0942796528893303
-0,00809184265043277
0,0344185780140304
0,0548778658721351
0,0994416513411036
0,0585329139969996
0,00915933105340622
0,0039395533756942
0,0644226694395638
-0,0605352885126751
0,007819114540257
0,024892196175984
0,0798721149037058
0,0421783485538543
0,0604725459929876
0,0830427864398842
0,0165770046079036
-0,0226540553869144
0,0956241332745194
0,0755507894465191
0,103761991682432
0,0490350192299843
-0,00391128057176749
0,0956546741116135
0,111251424107364
0,0194159252474008
0,110532092524791
0,0290957837149332
0,0328770335744878
