3596
4000,36533379555
650,420452594757
1
2
2
0,069497907102813
0,0621643130097694
0,0614939775490563
0,0630901462513122
0,0672540484862197
0,0635496021112071
0,0686233565786424
0,0605398515168822
0,0682933636178632
0,0705082841820035
0,0664928758444481
0,0645895142310766
0,0678754170115478
0,0566807523294434
0,0612654905051998
0,0653650798440853
0,0617556769571962
0,064103617457144
0,0684287876479182
0,0611461516330148
0,0720153520308006
0,0642825958724661
0,0626946847417539
0,0612325089732741
0,0658728805501601
0,0703872342859524
0,0733917722358004
0,066642119375296
0,0659832974865406
0,0619287338464196
0,0697058344456597
0,0666226720331111
0,0696494358435294
0,0673290254621983
0,0697236241914643
0,0570254681193342
0,0726128952572483
0,0633533120315422
0,0648580948193411
0,0659841506010223
0,076771625477505
0,0594628087895308
0,0665773303920237
0,0647380902862974
0,069505282184821
0,0671818460005397
0,0722180110338498
0,0555892345393504
0,0648036327205854
0,0630927496086303
0,0721205490453133
0,059463039147903
0,0799928475439389
0,0703273612653884
0,0695085642444901
0,0772890651872205
0,0758790268659496
0,0656876589273825
0,0667626479982659
0,0551982844130884
0,0857244238648692
0,0705291164813567
0,0664403075261809
0,0598662505935691
0,0657561087242737
0,0618339144061103
0,064156724977043
0,0633169847374427
0,0643859797559064
0,0655161303883897
0,0613395178325337
0,080922517381454
0,0754260879877872
0,0637207559263991
0,079209221453183
0,0644363672661741
0,0638547512658005
0,0671427459555221
0,065026635711153
0,0739427790166503
0,0682206507915601
0,0714428357016048
0,0625056730342291
0,0468038475285731
0,0703267687715466
0,0757688784728226
0,0586857516714507
0,0701390536046117
0,0823075361288705
0,0745853348598902
0,0577777320912728
0,0672437120554833
0,0585100268492166
0,0632114321235617
0,0642492734512922
0,0626139523174445
0,0592202708151861
0,069379222363308
0,0573018392334151
0,0773751701699841
0,056760553930115
0,0857304908236573
0,0878934145428141
0,0628201448160044
0,123286111065504
0,0709863213566759
0,0739542447689973
0,100425505567534
0,0805884640965429
0,0639493216603935
0,0566370282034108
0,0590013236940731
0,066776902052871
0,0693323021843605
0,050627357717273
0,0893829579020708
0,0948256128828439
0,0733076470988926
0,0635154687211293
0,0604187388963951
0,0384692677663993
0,0891643655641551
0,0911218816781658
0,0712268502714569
0,0727986385273697
0,0642211160901212
0,0572365676218384
0,0994587754396049
0,0819385914161318
0,0704353441197527
0,0537557759558429
0,0662459423252828
0,0459157684688059
0,0723924747961272
0,0999802576609059
0,0740133012880873
0,0639022152558779
0,0502812624411689
0,0873106632945893
0,106918812702076
0,0802650406215395
0,0659315985792941
0,0474131357350921
0,0681769288654728
0,0931054874458667
0,0695849600761787
0,0549567580833221
0,0857151902302305
0,0675366493721302
0,0656037851826286
0,0616367438583554
0,0552591385861282
0,079849431058175
0,0740805468039373
0,0229238041034673
0,115388695748255
0,107749476340948
0,128743413344053
0,116688877535432
0,0684267938474192
0,0787083006899109
0,0587949784251681
0,0629169688808264
0,0535486635271681
0,070083130692225
0,0457290910561511
0,0716514797405232
0,0767026346153081
0,0626024081940685
0,0643415161713141
0,0990340646394979
0,0622619732514687
0,0525773820254987
0,131146683848317
0,0719931167729449
0,066867036680185
0,0949050430628491
0,0747640115752647
0,0477794195178193
0,0783472597184834
0,0780419565368254
0,0596917029096382
0,0682348785485757
0,0568086998994212
0,0575510554988675
0,0802372338573057
0,0682010228653001
0,068655244389879
0,0701961177243388
0,0560531111338501
0,0647477193740774
0,117654226889632
0,101488266913293
0,0749010004539423
0,0623248534058517
0,0350105506940089
0,0987404364275202
0,0882126100425781
0,0789379582154579
0,0572440129803832
0,0565997396695857
0,0585104883564387
0,0527412141590246
0,060588063161373
0,0514521202873208
0,0447197765252468
0,113254984777579
0,0768766929895408
0,0704003642323757
0,0492263939971806
0,0642471184778617
0,043363011926486
0,117682872596083
0,0935238469059096
0,0779023546456048
0,064168667469843
0,0629943818281338
0,0705336949093919
0,0783737550103814
0,0587180584538414
0,0655477874357677
0,0532718882802983
0,0589139647179557
0,0534445056807906
0,0644434602704579
0,049211593691094
0,0563423759684625
0,0561521191001101
0,0686659346316461
0,0586649239593063
0,0784864573949103
0,0626500501081746
0,0628367570248462
0,0599121641985633
0,0487935074990652
0,0651293243454297
0,0804748006530021
0,0661761280663148
0,0672524879487427
0,0589773894277191
0,0569706240808588
0,0634992255987102
0,0577187538190282
0,0649235840206228
0,0572141886320096
0,0614733144204163
0,095733181834832
0,0620985133413903
0,0761538453472716
0,0491514904943058
0,0795414210600829
0,0674479392269947
0,0707967569992094
0,0482770871052117
0,0740917706090522
0,0450609302919242
0,0685173254684593
0,0911708622066933
0,077010929802767
0,0466125080410891
0,0929904001582554
0,0654842338286597
0,072988342213622
0,049114907383099
0,0605730086626788
0,137806420796622
0,0748557780201136
0,0648428507664267
0,131297625689543
0,0768713282047606
0,0831791829019768
0,047873021083893
0,0539033901254309
0,164742197484076
0,124100121200393
0,0627858333763716
0,0710046110281137
0,0865543657063034
0,0619427852240113
0,0734469020468354
0,0665822248660724
0,0852617120354234
0,0773120989500082
0,110792643639544
0,124807507492476
0,0531526164429244
0,109695740028619
0,0838836441277526
0,0826913756102929
0,0581661777055031
0,0692669474531026
0,0531678939344469
0,0945181127178184
0,0810184227894629
0,0905605108151241
0,0592892665025944
0,0665073950519191
0,0847545762554616
0,078726220242661
0,0508715591845982
0,0779356753936513
0,0657290982371402
0,0676054200065895
0,0670650311010951
0,065409182098223
0,0767246990773757
0,0612078702551016
0,068944819985817
0,125854443540034
0,0722010578499137
0,0801913070848345
0,0858040310068387
0,0755462282659795
0,0622035035646606
0,0679459073861483
0,0569316935459687
0,0681764864002846
0,0623951623651163
0,0625624425080221
0,0911158341512886
0,0761307079564514
0,0640331474438653
0,0650331301816812
0,0595689645591737
0,0625595319996721
0,0671050497860768
0,0637860008765279
0,0604710840328848
0,0671277774518858
0,0469353705019315
0,095903624740248
0,0976878720089279
0,0525617921238919
0,117558705901805
0,113039302968601
0,0746855725068721
0,0654787658077269
0,0697039040051137
0,0727529890354965
0,0637585248631018
0,0710395581159992
0,0631959478232186
0,0757142851808559
0,0855272592660304
0,0840845493236593
0,072478458653684
0,0753389779861696
0,118906401347412
0,150679922358107
0,10480421786706
0,086042176101954
0,0562825864779749
0,119409192199931
0,0943274479571683
0,128370403239396
0,102208079643842
0,0842007280074548
0,0776636657544308
0,0799407390488936
0,0818144973025701
0,0800755145707465
0,0827164673522266
0,0715910466236776
0,0842744979191678
0,0854093550626883
0,0902027255665851
0,0724013346214214
0,0881573219147358
0,129655400741508
0,0948221589479494
0,08957540289612
0,0903318264539291
0,0768494559115678
0,129525478699699
0,109345258417569
0,162247732563739
0,120412647958703
0,135442265727857
0,147889892432711
0,106895783730356
0,104943972876027
0,0966953623491723
0,111744649947114
0,105163389537066
0,107404858245831
0,101688048705643
0,100954004765339
0,111156670346213
0,114722217944977
0,114940224845327
0,111465421216563
0,113368219780175
0,136942710651052
0,114480215060091
0,131702214811855
0,111780725344396
0,14410086032763
0,163117139762842
0,18761160582306
0,125618452519506
0,146638007341092
0,12485446915792
0,134992422343816
0,128516111050031
0,135514193178559
0,133070697807707
0,1431405874195
0,169026196911067
0,154220576554028
0,175907688425075
0,160073096379166
0,137546755318024
0,172392243096644
0,147514803994926
0,161620570980916
0,179264591240467
0,170135588641206
0,136634061297228
0,2046384660521
0,153172538902137
0,176107886065589
0,189084488361368
0,162578613616472
0,161025689229895
0,168727034046237
0,169679620506125
0,173290614168663
0,1809692690499
0,196689648463646
0,179758612830704
0,193654096135655
0,18404764854846
0,186235757571864
0,213455953117109
0,197389726279279
0,199030257074964
0,212668601232369
0,181408071233446
0,206274879802441
0,185216558347909
0,240160068564553
0,214500659649271
0,251115176951812
0,230258545316158
0,202922702503216
0,206827099914297
0,224662522921748
0,212539153029487
0,224007280868644
0,223788241273005
0,241544184710726
0,220720468771775
0,239013619289302
0,234881916851373
0,233274637174598
0,239268033533107
0,254497159800991
0,231830471568067
0,237704405137296
0,256418133117779
0,26810796771981
0,249032846169406
0,298609502139962
0,26741103366675
0,316221564054152
0,282529049561197
0,276481830503113
0,267906559139675
0,286778599769075
0,274587049930864
0,302772334523273
0,285320840113486
0,29374115914003
0,279350174060107
0,294162025862931
0,292449850084414
0,298507300821183
0,302779410706632
0,303960586878658
0,321598701542373
0,32598475359452
0,312338647404369
0,328245534340263
0,309710789839079
0,335537429772227
0,331590862447001
0,345157128322658
0,337447441157216
0,357735196824022
0,346607948238022
0,34706703182571
0,347095202588817
0,349675785470699
0,347293249778926
0,360709199527218
0,342327027368244
0,383004332697445
0,376450351588311
0,376333266761917
0,347100090201394
0,381855001694777
0,355277553870138
0,384508647844214
0,397040196625661
0,400957039530565
0,391108378267392
0,410361568136309
0,388706976782297
0,403616977209895
0,405932925571648
0,415993457687608
0,422621989384921
0,423401673413181
0,406765103061059
0,428052228385392
0,425872740562707
0,446773627896197
0,426158910726602
0,431728876983076
0,448027911159735
0,451465131202729
0,445500499197472
0,471618162637181
0,452737902196922
0,488899238217744
0,465648236892683
0,485367160392502
0,471653281509767
0,490361792265771
0,473672036666719
0,486131921272614
0,462429746327957
0,489065903536465
0,495606472582515
0,506274035700282
0,484071979139276
0,516975230547063
0,506844457464954
0,510432277674879
0,510303255530285
0,527616291807013
0,504957438832228
0,540310844542524
0,509905711440268
0,554592932596263
0,540310185411323
0,549224582550247
0,527832923955905
0,587650889294749
0,511932208604852
0,588216514931879
0,554964625490964
0,58574832776018
0,549562180900036
0,593398643957255
0,554456937397439
0,563357966514171
0,581809074743661
0,600527363472959
0,574743935675532
0,583796807468731
0,58046664905325
0,60334557557936
0,591534966959895
0,629583750655682
0,579201688574356
0,605119688498864
0,588268757357553
0,626795847267716
0,59822614400653
0,639666039628055
0,63544571022594
0,669216850080876
0,619871827756981
0,660058483218278
0,624067014925423
0,678345114001445
0,621553360841075
0,672682974330227
0,631862738042255
0,681050684441957
0,665697231332774
0,685947993093401
0,672741634617177
0,681573070661373
0,65741248126215
0,710009809106431
0,655442606283792
0,688825515159302
0,674505159086364
0,724432413790924
0,697163496654729
0,738926515309919
0,693886264657048
0,743003437124713
0,704743392201161
0,725977343043683
0,687175923021665
0,711143713698357
0,703724713730546
0,768432996214004
0,711585666827782
0,743930133050411
0,703344303480205
0,763086563978142
0,699594929917638
0,743163174295331
0,730514142792699
0,76344908682596
0,757846853159248
0,799922047185248
0,761432289192625
0,77063833481116
0,771306032578125
0,815341302098682
0,75507341149381
0,824834903393647
0,789591463540423
0,802695635888472
0,757168153254298
0,803016778299036
0,758236091897099
0,795260345333947
0,788534683518002
0,801699872034511
0,808268152938094
0,824877169192145
0,799049052570512
0,8104131099088
0,783230437699253
0,871564277274751
0,79463495731778
0,861938634509412
0,782305838348443
0,84239674797077
0,791321210064129
0,83815905158433
0,794026604293825
0,87163541748472
0,810554100942895
0,848893618551234
0,819989864837267
0,831655400686704
0,815705379402552
0,87038696163474
0,863528766755027
0,900389317307363
0,852651502146004
0,885874319431175
0,822842241578398
0,883357541413133
0,853896149910239
0,917326914091958
0,844234592972796
0,954140379442806
0,85290026185672
0,898393031850799
0,854497167181074
0,886773535367656
0,859959706976111
0,915287731397803
0,893210254771668
0,910732609642237
0,870977656480372
0,946533398208846
0,861121315528609
0,891682654648809
0,914296048888534
0,93407043786587
0,881707045107531
0,904623289720137
0,878576832758096
0,938389087005041
0,914611635627667
0,923178073454826
0,856301692045653
0,903398416984732
0,915799833101859
0,921562372254884
0,913526018772492
0,948015472847604
0,920169629597737
0,960638276594934
0,881494364398281
0,970641347188459
0,9341481576163
0,950139467403241
0,946379276757618
0,946499880099075
0,91289664184052
0,968759012196271
0,876022316039688
0,958906532607834
0,923716107312944
0,933490673700632
0,925055549112514
0,964045391805277
0,943531180722038
0,943852468309389
0,912973237068948
0,926811362863654
0,895741734657695
0,966849298234861
0,932514149818063
0,922283157478124
0,942973866815773
0,932125163937606
0,936716546952463
0,92425287510272
0,933915234856337
1,02870042686735
0,897196604205908
0,972771618922538
0,930334993038429
0,987834429475506
0,939673395371241
1,00435879712268
0,929234393525873
0,959907545161152
0,951946082972292
0,983629534444796
0,954003913323797
0,987692460968289
0,914296564849659
0,942978874051118
0,936974491202888
1,01101401037762
0,953794265378078
0,943697344651735
0,929559031463996
0,956776640457523
0,909501498508296
0,977628785127579
0,898705279210571
0,965725580734737
0,931407674280875
0,975860652224894
0,916559778930242
0,986055680034458
0,93580339089749
0,95367489866689
0,955636346096582
0,929218642809271
0,924950952144823
0,955270855889132
0,906663962580594
1,0101840958787
0,946463910364281
0,962053194795695
0,92566279086423
0,951756354809358
0,939737285785157
0,987430444728414
0,947730450171458
0,958042972472402
0,922861834086159
0,929021169584614
0,905485707924174
0,959137570601171
0,933639715396108
0,941378242853046
0,912485315076174
0,924105256863966
0,910666635725954
0,972116307818566
0,928801720698363
0,972432325241867
0,929147406352465
0,984496054883689
0,925291177160831
0,960513856296123
0,942799424212151
0,975832094602384
0,908255832874842
0,959576291877188
0,95655176288187
0,951067848457407
0,921308061031371
0,938409558714846
0,89657455168129
0,935872314982044
0,916917346747386
0,934415996093441
0,925227481296846
0,944407574631062
0,909537590002966
0,923578409187073
0,873040273081158
0,922733204909011
0,919290007316844
0,912075995956727
0,899624750981996
0,941739671331919
0,89515094748481
0,913195930508027
0,898016260624803
0,924590552007187
0,894235046351301
0,939022075033187
0,892070216273356
0,90471060594222
0,894853782020098
0,882112353980894
0,878117921602251
0,917828175163075
0,886650047745023
0,905696837240436
0,862270976792827
0,890131225890321
0,893888048455052
0,909760016902785
0,858610663297611
0,872946968801373
0,889686460753775
0,882665926580486
0,851396232053069
0,866926367351877
0,864014463193808
0,859911636545817
0,877794333971148
0,852921353044347
0,833239848796381
0,835912047154013
0,858574798628586
0,873197656327283
0,835580546538815
0,855631953470075
0,83495941048558
0,853465648350072
0,839568336579962
0,842584422213274
0,816158804361719
0,822852953858187
0,845161024098296
0,8398806963774
0,801198454641795
0,811531271473947
0,814658956838104
0,812042661773392
0,819368342942725
0,822789089126869
0,796226054588567
0,812772224490694
0,802169705906139
0,81253686312201
0,782509703936414
0,811825865470068
0,794889888541687
0,807329284798762
0,792549477809871
0,803466657694326
0,780942005407867
0,779274592442248
0,757232833271678
0,793310823857241
0,76585475447236
0,773432982208044
0,761368867512068
0,752008720654512
0,753977839003852
0,780185621859978
0,745752025421244
0,752295692915904
0,732729401249371
0,744868177469397
0,731414471856821
0,755688261951935
0,725616833580008
0,728768436251756
0,72343522334877
0,739081614876456
0,727725671470347
0,721127561408076
0,722099484417701
0,730721037858976
0,71130565596352
0,731923851457188
0,695544655945682
0,709887094181135
0,705423588675464
0,710491003704491
0,694978269810491
0,695384885345699
0,686363347910713
0,682594078212138
0,688204867117135
0,683389020980645
0,688320014158595
0,679248124957185
0,668805030608786
0,675094315472376
0,65496505784274
0,656475823041285
0,663089016714489
0,667304931761556
0,654331376122835
0,667087048056253
0,646363879119481
0,639471011426527
0,637171684123939
0,647278685752263
0,63309192827961
0,641939751608496
0,618947975059865
0,634740518445035
0,637822085945841
0,633605814433862
0,611766699192751
0,622139553299907
0,615186008799185
0,60834202931817
0,607476182966116
0,610654693454799
0,599446082300408
0,602517745876926
0,592345087586321
0,601218043664682
0,586326481839857
0,596172118868239
0,579929006633083
0,586868269604849
0,568110902700481
0,564668906460702
0,571032246635871
0,586928086029831
0,55683918063448
0,569614660731341
0,558605471852942
0,557171221817382
0,556771512170886
0,558013900460135
0,535292128819429
0,545346451240734
0,540775677874972
0,547811314902477
0,536597210625425
0,550427513161008
0,537489106975033
0,529641320994678
0,5247038921735
0,526388899919714
0,519920310345415
0,522639867986074
0,505776089530101
0,510918303178028
0,505308128626754
0,513547291174467
0,504670175450809
0,504233763901291
0,505995450634545
0,510691550730904
0,496160373785834
0,492883767409528
0,480413637972237
0,494138095073265
0,47868841070718
0,489167790225796
0,483405654027961
0,47809320880013
0,478285744090437
0,47803306848812
0,470786321485529
0,476647108776407
0,467637913618584
0,470931983480479
0,464889646681872
0,457823040712918
0,45878581633803
0,460950247441274
0,452993865414801
0,448081188556603
0,448367075059911
0,453284538017392
0,446427664696037
0,441636031134032
0,449104170436733
0,441305836394632
0,437089143947797
0,442168345924224
0,434386887606083
0,441313576691754
0,424444509146878
0,426345979865927
0,418617308010004
0,418467648078507
0,411968947589745
0,419541993768499
0,411525594010663
0,410697409113901
0,40937080155941
0,409515699821039
0,405841290086029
0,401446743252391
0,396419492479625
0,406909400002277
0,400476331712327
0,396042909191479
0,400762598419896
0,394608911749108
0,385002187902357
0,385248702157227
0,382980546699576
0,384037051325971
0,386807153545787
0,38113312932678
0,379888922074649
0,382033667414606
0,374425065858766
0,374081087337601
0,372346525801414
0,366880281917708
0,359488380385694
0,363390860874275
0,362971742199275
0,364182936746124
0,360737730557051
0,351941314066685
0,353157446254239
0,352619401637275
0,349741022258338
0,347689944664933
0,345566389239842
0,347555931324302
0,33670296182724
0,341384420671816
0,339302802299132
0,329801626281927
0,32778163191868
0,333874320607129
0,331382532889406
0,333430464490162
0,327111107580337
0,328842810901011
0,32645414890418
0,31815704035406
0,315496170989054
0,322145623250172
0,319504509329852
0,315725388017504
0,31701253923143
0,315976638084882
0,311765022821766
0,308389581654271
0,308423005882713
0,309989985064242
0,303551260969421
0,304934085166903
0,30453863392218
0,29670116738632
0,297674627316887
0,295776631382426
0,293546701820554
0,293266015385988
0,287952925219557
0,290009036543319
0,294831251327879
0,291843624314964
0,287058066410365
0,284720070575435
0,291867293964737
0,288363059235478
0,283528667620374
0,283511463672806
0,281726424018025
0,280493495386251
0,278224795814614
0,27535217054863
0,276363695579731
0,27802697558622
0,277790595574395
0,271895904825185
0,272652022900958
0,272852240123567
0,276417758865506
0,274920215583933
0,275493306846466
0,27129109807667
0,270824228464922
0,275930362905748
0,277015943952404
0,27294356601292
0,273702607987942
0,27241209452145
0,277734344333753
0,277695726807591
0,277139825637691
0,27163721619352
0,273045680321608
0,273493796618194
0,275954418815286
0,27719217032372
0,280012889384652
0,282100086239465
0,28334057239946
0,281325727976997
0,280147118123302
0,284175889680606
0,284944341365724
0,282720016128352
0,288730987665156
0,293948254405694
0,293942687909549
0,298292190900422
0,300895594184312
0,298611646767896
0,298881128117868
0,299535719606443
0,301963790894524
0,300148200632984
0,302639165584329
0,307867957127917
0,310014966267987
0,313871329046188
0,315095701209611
0,317891386004959
0,315106130493609
0,315576729563726
0,318350593166764
0,317394413559246
0,326749395642056
0,32783237076252
0,326182387081862
0,322734805673954
0,329440989838971
0,333904724272725
0,331010705866202
0,338250560079513
0,341421411165159
0,344369119627166
0,346504399671263
0,343202230428029
0,341693038216809
0,351973709684676
0,352361433556209
0,347185055468654
0,359912590646797
0,365940831509372
0,366732710071374
0,364580507266533
0,371492531477345
0,371452754046255
0,373751939181339
0,379320583692991
0,383058339498576
0,38140613840456
0,382239425391072
0,381780008417464
0,385142192450831
0,381988023473007
0,385107342144678
0,388915125266323
0,382618996582149
0,386005901560593
0,387636409948536
0,383134810563135
0,384522463481183
0,391259818351232
0,385794071552731
0,379159329844727
0,380290761900063
0,384379517638379
0,382940252685455
0,379316776767785
0,380805231387732
0,377119773727783
0,371926849456529
0,375690501824481
0,381804726068867
0,383553678641975
0,38380929934361
0,373978552119061
0,371124354838347
0,376411009391626
0,375061770430581
0,374519494954328
0,3743140151045
0,376702649693781
0,379586839175738
0,378005017967573
0,377796006097307
0,374900241452083
0,375893466004117
0,37355315210526
0,373758105730937
0,372755779220134
0,379751564617798
0,383024003121227
0,378876224055052
0,375827676073867
0,372041194885083
0,37250707528147
0,37934281849797
0,377247904362178
0,369428177258843
0,374737581387499
0,377450515000505
0,375655086824497
0,376208386109694
0,37298398782863
0,369818559087688
0,372699961393939
0,372610739489278
0,367430622190817
0,370497035833249
0,37153484247173
0,367205316320343
0,362862960226492
0,362311123083027
0,359947600807222
0,35826825924833
0,357032261908696
0,357652425930442
0,355756362854204
0,354019263700014
0,348626757104142
0,350544342977277
0,344573642212174
0,344415271251741
0,343965738186543
0,336424706246096
0,330535290006302
0,331170392860924
0,324271856759583
0,327931783574377
0,325097244911616
0,317734082043059
0,31479157996912
0,317337747956974
0,314378535562848
0,314274972426164
0,311533397405237
0,302910007914824
0,297781711303779
0,301987706357314
0,29678177629012
0,297829788252256
0,290667648825889
0,288508942428504
0,288271205092743
0,283107094093948
0,2823726326954
0,280243053170429
0,278251914701857
0,2811749308519
0,275211358434293
0,275123122557427
0,271934477954577
0,26917894473594
0,271566526780567
0,267804609725562
0,264286352948578
0,26580169111804
0,259531728466468
0,260488854771708
0,259410392624919
0,263047681402264
0,258808620737838
0,252657404329318
0,25092726850646
0,251125327037357
0,249069624239257
0,246240699701668
0,247391279877574
0,247413886272232
0,240846011155974
0,241698625592479
0,241043220334904
0,242195155704828
0,239160230198414
0,241015464331665
0,238580634649991
0,238417992229586
0,23504567159996
0,236900877520869
0,229483530633102
0,231123289340083
0,22977726834179
0,231770133752532
0,232218837562255
0,229278227424996
0,224045927800888
0,227607322313165
0,221572880772681
0,226227469165576
0,225822102754114
0,221930107388455
0,220208383069227
0,22177098154431
0,21776669422665
0,216166839163241
0,215241797833179
0,216497935332337
0,212514791277702
0,214569620311233
0,212623397902034
0,21141070270223
0,210031567004554
0,20997281264529
0,208820263681422
0,210421451340113
0,207726675760283
0,207652892405753
0,20757064764705
0,205961770530982
0,204357810833077
0,206586696294723
0,20123970574705
0,205494349361541
0,20118446619633
0,199180745381489
0,198753125217928
0,197064232042974
0,196027281590643
0,20191096262493
0,199661344226107
0,200537609226187
0,198031178665507
0,200165326646041
0,195497103599477
0,197589672218769
0,196635822102337
0,197677800079148
0,19489719176748
0,197103420129744
0,193284417006378
0,19385370535079
0,193571939746996
0,193802722879078
0,189383889590056
0,190680289761816
0,187321088814155
0,189222489489702
0,185814637579602
0,187150912701454
0,187180290143325
0,190037651674527
0,185452907315605
0,184526694199072
0,18449079341676
0,188923271617249
0,18228135226002
0,180900991941944
0,184656393887939
0,186920817653935
0,182902683800322
0,187304743875058
0,182102400638341
0,181231048555148
0,181802368237754
0,186209931984647
0,18546183742722
0,184698613348845
0,180230836002576
0,180654149188309
0,181336769734478
0,182434140705474
0,179967841358159
0,179410001440405
0,174791654360993
0,180853518347033
0,180300665198832
0,18084229545424
0,17596940911083
0,179667498628397
0,175917186988623
0,1747597673706
0,175056731215087
0,178496586840394
0,173995703221589
0,175640609958205
0,174896963684369
0,174337502698154
0,174756004566519
0,175437047163771
0,17292291540688
0,174423669899923
0,173442722525727
0,174922746435163
0,170890788595926
0,172845452543077
0,17154925868814
0,173457841804809
0,174314651288841
0,173325926955377
0,167919440430424
0,170451207063181
0,168803546216546
0,169197438562633
0,167521679269299
0,174731225642463
0,170143974092754
0,166021261761527
0,164288185319142
0,164801904205111
0,163576168775846
0,168130977355962
0,163490667582476
0,164170065239115
0,165154055298094
0,16539825885048
0,161611074595423
0,162394382098384
0,163761138482903
0,164792678632499
0,162008051365858
0,161414350274334
0,157158190735612
0,160457214264389
0,157514178322551
0,157858380096414
0,156011929067604
0,159779448627581
0,157897448597217
0,155621197180855
0,15453442858685
0,155998182604079
0,155055324805923
0,156103262915066
0,1525726153502
0,154381107308
0,151516611235419
0,154273940380926
0,152456095045902
0,152493996194961
0,148817604913023
0,154094142861453
0,14922936945152
0,150322902526742
0,148072157657988
0,147565882441864
0,145287757627109
0,151446115735178
0,14540660786185
0,147220752322264
0,145391666295323
0,149258712474316
0,145911139180532
0,147822135346335
0,144240936167466
0,144138162018764
0,141298696801532
0,144791796125575
0,142560080960615
0,141324428156316
0,14214062908495
0,139576982363332
0,135765435552767
0,14178221458796
0,13809397693176
0,140964468799017
0,136512563413119
0,139300133251002
0,139473316281513
0,136375957725688
0,130754546121663
0,13607514151663
0,134241363607992
0,133746961445686
0,13323057859057
0,131256760157022
0,128447338451077
0,131430007462625
0,127821928770939
0,1283945538443
0,12654345889203
0,129479100409597
0,127699249581393
0,129130666439193
0,127024309078137
0,124530223907421
0,123296193997267
0,127659226965712
0,12393761755193
0,123143656024771
0,119905390388426
0,125399121191031
0,119874367773598
0,122185860780463
0,122297525395875
0,124244000886416
0,122195001264166
0,121598005904323
0,117863393277475
0,118287467303536
0,115284999272376
0,119926171765132
0,119288564000378
0,116615627964421
0,114525537367964
0,118549213025515
0,117625787695486
0,118306721855931
0,1148848361408
0,116682408695828
0,115368159238974
0,117026218661875
0,112358237073568
0,114916310325981
0,114935385302926
0,11836844808484
0,113107042813911
0,113926750357596
0,111655778805477
0,113741705023781
0,112300396548383
0,110656855466544
0,11118971576923
0,111043570785709
0,109111813531999
0,109933984502983
0,107766809359179
0,110866810611816
0,110532817930961
0,112998608633322
0,104768305109678
0,105257176298101
0,105167604337107
0,108557357981532
0,10695938350404
0,106767215155212
0,107076493411426
0,108031404697928
0,105821341437984
0,106550482494941
0,105382373884435
0,102540109964762
0,101376001579118
0,105955444328006
0,102903345108658
0,104309489666722
0,0996797417165486
0,101991465443213
0,102351483546244
0,100289069880897
0,0997518024326028
0,101443869917856
0,102718035157794
0,104722919337513
0,101579108861998
0,104883215015766
0,10138894952267
0,103026904537324
0,10120069923738
0,101216760585184
0,0971792953681909
0,101101772114685
0,0994008465437998
0,0997643693714119
0,101029878397103
0,101518387238476
0,0972097808429332
0,102485407449023
0,0995621694005004
0,0994393499491183
0,0988340436686645
0,0983495050030896
0,0974032139514698
0,102465055158848
0,0976850143800331
0,0981932837432093
0,0962633489972949
0,0976301251940419
0,0960506265302313
0,0996735667720565
0,09324820697011
0,0984807629500295
0,0951354086835319
0,0939776050154826
0,0948968364638023
0,097493103459876
0,0940775297016249
0,0977537733887567
0,092769991554262
0,0920531811372165
0,0912001454097452
0,0957979488876562
0,0939087543159946
0,0943912790694275
0,0918198861246726
0,0929812063535429
0,0905633782168113
0,0944841036102094
0,0920227793416274
0,0912022352496896
0,0930474218918338
0,0918516771572284
0,0913996561924254
0,0918501753406308
0,0893036484921982
0,0962109146496118
0,0897267344386488
0,0901959210102604
0,0874511578966327
0,0902589722438411
0,0904546570944882
0,0909720284732861
0,0888989634410155
0,0921390847141597
0,0909522797559763
0,0915240725083008
0,0886173041910029
0,089147982933266
0,0868735109931349
0,0889395035611493
0,0864156048611801
0,0873465801336604
0,0841497272080448
0,0871168364840412
0,0834608364533075
0,0850477632485654
0,0879161418794004
0,0873955367823743
0,0857276111167098
0,0883260418576431
0,0853610431498473
0,0858357053395442
0,0843411125046475
0,0884152783982116
0,084846097965993
0,0852177969957609
0,0840072118013687
0,0847090407404565
0,0834287067882179
0,0854526110420913
0,082130879062747
0,0854849948467906
0,0807465855552957
0,081624596610776
0,0832895769997342
0,0835718470283345
0,081319246749225
0,0833899910573553
0,0820847476783703
0,082260366893981
0,0806018158789791
0,0829953920782504
0,0805888477224144
0,0788239804172829
0,0778344048942281
0,0788541592528096
0,0789735132011772
0,0774505973708689
0,0781749986532387
0,0799669809348707
0,0757185564455351
0,0766044674660229
0,0768734603822306
0,0783509916708398
0,0776974204218904
0,0771455933577212
0,0765911183107663
0,077122469141149
0,0767114824945927
0,0771067647845502
0,0757026554772436
0,0733912335389502
0,073883353688667
0,0739971678076282
0,0701142398360806
0,0742181688155086
0,0720597013891216
0,0726154921907262
0,0702477885385552
0,0738183929337902
0,0730892584973917
0,0718689435243115
0,0716010891123166
0,0716621769801431
0,0701011280839105
0,072823766060069
0,0709441388636087
0,0724420447496678
0,0706088124643717
0,0703341986566746
0,0697205909893809
0,0708734242882395
0,0680458351240851
0,0691390194023784
0,0704165899383391
0,0700755797900559
0,0696093015377858
0,0710222549938602
0,0663983377982918
0,0681697403567807
0,0676344260499916
0,0659289061327225
0,0672657162002589
0,0682967926836625
0,0643703613109646
0,0677639347489599
0,0662239328735722
0,0672479124580492
0,0664560099688991
0,0654865227055945
0,0665292867042255
0,0678964852339688
0,0633498277674148
0,0659695873004976
0,0636634546802215
0,0635858064040667
0,0639187643112973
0,0652215530574793
0,0612231490092163
0,0608377611639909
0,0598261476055206
0,0616427655789406
0,0622574997055691
0,0639674423445301
0,0609098403708681
0,0621642798939905
0,0626149492780102
0,0616502862537656
0,0588068239981424
0,0621612458701817
0,0617272735567767
0,0644298690767337
0,0594397492970981
0,0600671377480259
0,0599949863356482
0,0621396955536856
0,0571292041459724
0,0628541220403611
0,0623547406350455
0,0588287531789942
0,0601404238894617
0,0588672414982948
0,0599675231170647
0,0577592238669697
0,0567338121812488
0,0576445917712049
0,0608247960899508
0,0600048302400793
0,0590965797479235
0,0633008895075415
0,0599217571706525
0,0611455208062441
0,0601734859792742
0,0607447635264919
0,0605839493807515
0,0599818488176099
0,0602150403179338
0,0617724603139982
0,0622587735997864
0,0614681288480705
0,0585215550410295
0,0596097346361049
0,0593452911305318
0,0556599293140784
0,0563043663877104
0,0522581923064101
0,0534023218653342
0,0523765675077307
0,0573346778110108
0,0546296384473411
0,0555442717550783
0,0483116424306133
0,0560745550199182
0,0526371759029797
0,0536582454741507
0,0498582661418693
0,0584054251500054
0,053314223021288
0,0543769021690449
0,0513269009611316
0,0536271427100243
0,0491952731286141
0,0564897306088942
0,0566170165995821
0,0562393886576227
0,0565310413006259
0,0614915005453897
0,0515387691355907
0,0556130815140531
0,0474106763526049
0,057457858972968
0,0456074252685585
0,0556335192833522
0,0461243604845687
0,0576396752516954
0,0442214120970961
0,0532409315654225
0,0435572893902754
0,0565771730931244
0,0443002011063796
0,0557570622317874
0,0458073852042543
0,0606266928692128
0,0456647777917481
0,0593716289777761
0,048450624782006
0,0559645824716263
0,0455260573230761
0,0525337015038645
0,0485388102128399
0,0548921075123724
0,0554548456475435
0,0496898893419438
0,0593786781063938
0,0467681372566798
0,0669038416294873
0,040998562581062
0,0704919400050666
0,0394362116121958
0,0761288169334988
0,034423531869766
0,0776608692590777
0,0356051357066066
0,0766166214190617
0,0334091675313513
0,0743005710566399
0,0388066429307992
0,0696593331964347
0,0392338701606109
0,0638219373606402
0,0492177316147655
0,05766357119349
0,0489816389767934
0,0554099501745852
0,0519110877065201
0,0575138031023106
0,0504483537619282
0,0563008747929847
0,0459993994984808
0,0555842994676149
0,0460222551494065
0,0560040370210982
0,0461202988795738
0,0546869015541274
0,0461607302692079
0,0546290123443584
0,0472168173751581
0,0531027732984544
0,0445509925447666
0,054062758416822
0,044909251254562
0,0548036664511302
0,0481473624870126
0,0516886552051289
0,0452008365049013
0,0531040812671855
0,0472116959121733
0,0531531395166282
0,0449605528699493
0,0505197516994673
0,0446096722350481
0,0505523311700624
0,046549372820841
0,0534568038229442
0,0469853329097619
0,0498759660639351
0,0441985148375315
0,0521348285841161
0,0462778554455566
0,052359250372049
0,046572943480874
0,051129242588216
0,0465947034574268
0,0530423477628271
0,0458001925750773
0,0509510259512728
0,0448830474032387
0,0533189886968894
0,0483632840474106
0,0527471220549808
0,0486662061844496
0,0523058058981492
0,0461305847486879
0,0505251164985863
0,0434899748281853
0,0506504845839757
0,0458207184241906
0,053622489898407
0,0463439572441698
0,0497957141463257
0,0456106936804879
0,0527730575769657
0,0456116977586695
0,0502083244169427
0,047295271619753
0,0516921351877601
0,0471966431884465
0,0500712136041396
0,0470365354408542
0,0506964448806983
0,0451190221062197
0,0517720463767945
0,0478975730833876
0,0503668549906723
0,0463045839561185
0,0500897137054404
0,0448517546761788
0,0503524935046125
0,0460950664651761
0,0490612514616206
0,0456693635176052
0,052051517564232
0,0465793093970687
0,0507863817653605
0,0462378304417017
0,0487174553870678
0,0457479222743384
0,0503774883208151
0,0476109995566406
0,0511907831125984
0,0461642616290574
0,0495696021538265
0,0440017524933552
0,0505159315216071
0,0463377655954635
0,0513644528768842
0,0469156946930056
0,0511529063093357
0,0470580417547109
0,0511005564255334
0,0468250352306384
0,0527884008737851
0,0470933885456071
0,0514170163416454
0,046546133480127
0,0527734793319258
0,0464337833905629
0,0505664995423039
0,0460877654479049
0,0515565910681982
0,0503353858023868
0,0504531643216658
0,0459996997365439
0,0523004349682598
0,0493711444700683
0,0528291198646717
0,0474962384477131
0,0517919392764895
0,046855870787663
0,0524724663178794
0,0470124451217238
0,051370698614121
0,0466700530285326
0,0510192851295333
0,0477754385810594
0,052452391960677
0,0469370901309014
0,0519455137338612
0,0501936673877974
0,0544534604151461
0,0482581298578068
0,0521990688616488
0,046030571721825
0,0523324059926523
0,0469083848346474
0,053043703349582
0,0478364274455934
0,0507338851724785
0,0478876583782842
0,0522622652780725
0,047443368161765
0,0522919642888207
0,0477380694759823
0,0545521723098967
0,0473901358494379
0,0535848621224633
0,0502880859248074
0,0515438188475343
0,0472607945737365
0,0533321810104365
0,0488662898500109
0,0523646708013434
0,0482432665537443
0,0522280669572083
0,048815159910545
0,0553108297524536
0,0483612300356298
0,0522090223279268
0,0516364691386821
0,0537090731892604
0,0486951564536338
0,0541761115434069
0,051773173992049
0,0543791548115545
0,0502018618642404
0,0520590978096841
0,0484370629986129
0,0527118125456447
0,0497631743531418
0,0518884483903827
0,0480997748852807
0,052687269021228
0,0506037183977892
0,0526617305528497
0,0477762531300188
0,0532438432416833
0,0508675303433187
0,0553117363419251
0,0511110736056285
0,0517531894718234
0,0488457286312678
0,0522167621973656
0,0489948613603457
0,0524191278302742
0,0472261397216788
0,0545916287091286
0,0463723389077551
0,0508252042816218
0,0488524895643965
0,0493679439221861
0,0489683990144454
0,0505248234115083
0,0484193648501341
0,0527576899255173
0,0479383237218681
0,0517498684419595
0,0473971472107881
0,0503391603315645
0,0466281251300575
0,0495060390733731
0,0452094763576223
0,0529258783124091
0,0460795025934493
0,0514245986054785
0,0478346231786253
0,0498668962755014
0,0472534886798318
0,0496001037551916
0,0478661774538322
0,0497392854364932
0,0449654661524144
0,0506688210328798
0,0455606281890451
0,0490516789818378
0,0463073617653275
0,0486719692736549
0,0467190510811286
0,0503197692056048
0,0475867019719231
0,0505893225552928
0,0456852585066808
0,0490980321932737
0,0471908272624825
0,0505656085642741
0,0456797470514913
0,0502772506458745
0,0466853969453342
0,0499419181544608
0,0461212819121518
0,0504821258886411
0,0431398896013637
0,0499737724288921
0,0456331366955017
0,0492250393240071
0,0444405040236826
0,0519980363776921
0,0467146023912299
0,0501093875091362
0,0452769856089438
0,0494873905202731
0,0451083793765994
0,0496948432436184
0,0451749323096629
0,0493798892860524
0,0446993188757648
0,04931583640398
0,0437721093757545
0,0474891969682767
0,044141503642876
0,0459766604979898
0,0443823616016372
0,0480767986287543
0,0462890007534152
0,0503065190953573
0,0452969673541509
0,0476734716079544
0,0445860969699868
0,047546290852788
0,0457360531221948
0,0501234450822629
0,044814564418828
0,050257572111314
0,0474343345821413
0,050947945169448
0,0447722389694505
0,046658473680339
0,0435132482405082
0,0466749144903281
0,0440069900324846
0,0461464248601855
0,0441450702384261
0,045704954661452
0,044279017462887
0,0494832505601517
0,0455824267808918
0,0495309451577844
0,0437917307382073
0,0476735752761872
0,0428954226204442
0,0484828581479933
0,0461776425546566
0,0494174704077514
0,0423263475611762
0,0468676293434513
0,0438039046464124
0,0471946694496105
0,0425269369008687
0,0470273656971765
0,0453912482341358
0,0473277857145223
0,0409464913485051
0,0461645728445697
0,0435640229271594
0,0467162372032165
0,0424069061754249
0,0466617577051129
0,0410170483116202
0,0461719206706722
0,0420160475634721
0,0447935988624699
0,042113347118204
0,0450489873522476
0,0416072674794608
0,045229261961778
0,0403794738500635
0,0452318479966469
0,0420415976712364
0,0460258877227929
0,0397053705025095
0,0449302417158776
0,0385460165482196
0,0444991260157209
0,0400704208925514
0,0448992037572917
0,0464647680956072
0,0442045656362628
0,0416527798503602
0,0420522277742588
0,0414677419744327
0,0433282864731174
0,0404205535004406
0,0437033284837587
0,0399097675395993
0,0438293643854785
0,0402811325513869
0,0430079818826778
0,0384332555307625
0,0419519874667504
0,0380082734790474
0,0428728549236976
0,0395989002762013
0,0411935912553688
0,0385694813924625
0,0414581586596251
0,0400503810008495
0,0402337363294111
0,039788239405709
0,0403056466272044
0,0383893364923612
0,0389949361204254
0,0424630064953947
0,0492256899019851
0,0409618796952197
0,039468640094201
0,0406839228204565
0,0449650949688959
0,0384613293842256
0,0429227367431286
0,0386187780024656
0,0428343895503672
0,035442194764147
0,0420016919776179
0,0391193987169707
0,0421230822191106
0,0355483848336427
0,0420521581438412
0,0381097188994669
0,0384780519443972
0,0375178074653422
0,0405768272934574
0,037514319662677
0,0388012815163593
0,0385665974903766
0,0391623135265175
0,0390066504297442
0,0412113674680247
0,0360012421145736
0,0474300266295835
0,0389383730930102
0,0411209185712723
0,0360567563228735
0,0400832269630325
0,0368713935571796
0,0414342798848415
0,0369585762030426
0,042371963800506
0,0367143869721297
0,0403898584119083
0,0351162750970949
0,0391343988988989
0,037735296997111
0,0409052599530613
0,0350393763827817
0,0384304097687625
0,0351134751975975
0,0402347367331703
0,0344060789473981
0,0400344161154197
0,032383162948756
0,0397791438937515
0,0323891428515181
0,0443890269343024
0,0295562783560097
0,0446481656899893
0,0506829476498945
0,0448380742895861
0,0383152585705252
0,0380498040106422
0,0343281342452159
0,0369045517525487
0,0371589650838659
0,0375935963276189
0,0361776369756239
0,0383705826760017
0,0365983282658622
0,0395828299027049
0,0352892310903061
0,0387854520580188
0,0368715673375497
0,0369522433231996
0,0337617546545793
0,0354957463872576
0,0342402484260774
0,0356953114571285
0,0400199573345911
0,0522846630891215
0,0394072604406595
0,0417218913030507
0,0332815403794211
0,0335534204467968
0,0537407681434367
0,0431510059187428
0,0380839963078552
0,038131418063671
0,0386011217551848
0,0359991674866527
0,0387560280008261
0,035056826634927
0,0393458661725446
0,0407388676932909
0,035693058166822
0,0423968858098896
0,0359118983209692
0,0378155977628163
0,0340515267125723
0,0382893425062127
0,0348668266952397
0,0382190423189212
0,0354169449875136
0,0354738047607579
0,0329216630224523
0,0371648356718588
0,0349657420828112
0,0366704683120004
0,039630029068758
0,0418470424304143
0,035568179708771
0,0359249436583769
0,0366310298994044
0,0320572225471333
0,0428824742755849
0,0553040190800011
0,0366508022375491
0,0393894557796038
0,0316721791608955
0,0385687731086061
0,036900577332633
0,0382918938355328
0,034054193695711
0,0381402676824398
0,0333917421655975
0,0392610911506863
0,0354050496173025
0,0389612026154573
0,0337726087914012
0,0400278785359354
0,0328148660746606
0,0363620264902394
0,0347285968596118
0,0362350675807914
0,0378413541389655
0,0365823032589363
0,0491971917926487
0,0578555886916602
0,0471050592646353
0,0477499058198008
0,041232097975394
0,0417695821040007
0,0367526035635236
0,0376559966467154
0,0351888649976278
0,0369648511295218
0,0339754920377369
0,037873463146957
0,0342857541905995
0,0383502046279325
0,0360895612670876
0,0371290458076725
0,0328704702022672
0,0391329468262091
0,0319709115705974
0,0379345884525758
0,0352875588428082
0,0383873937542622
0,0299585133847855
0,0458678419660454
0,0389306768162548
0,0447307579734998
0,0316623820092856
0,0738840293490596
0,0558939966747438
0,0469319898915143
0,0392593564500531
0,0374512021647512
0,0353271902246429
0,0367043157642607
0,0369661308974257
0,0448854351491772
0,0353082805473771
0,0399558296112665
0,0343140794994665
0,0420438281059732
0,0374591744054948
0,0337279684808031
0,0420082072912525
0,0694006382552485
0,0461535307312852
0,0462172690943994
0,0316692020865679
0,0449040172599828
0,0607292750604955
0,0430607436617176
0,0423984968047372
0,0405984943200896
0,0382437393105891
0,0393442489540602
0,0379372911304459
0,0388096497642057
0,0435183789023264
0,0408489153102029
0,0356747592946226
0,0411036763866969
0,0343797380617186
0,0443888167975299
0,0393007999661644
0,054190714173331
0,047949046041539
0,0378226950146105
0,0429464660445936
0,044797858953193
0,036395138227602
0,04239686634892
0,0371928927900206
0,0398990106949807
0,0501554361618342
0,0560486981290928
0,0414789387405119
0,0568551791447897
0,0476886259782268
0,0395569664183666
0,0437300551176237
0,0514996440423812
0,0504418769636312
0,0355727712171346
0,0522482907456254
0,0688036217141397
0,0579030833669486
0,0652985773113706
0,0403221469956956
0,0451369689078317
0,041200362073328
0,0440751254769331
0,0394541876583988
0,0586260360164201
0,041492558063843
0,0489519138987477
0,0349804623311635
0,059612122814717
0,0481667924434131
0,0523007726952911
0,0436738834026959
0,0435740068938464
0,0408758140520983
0,063460601162283
0,0466381966756097
0,044008237400727
0,0700970078203467
0,0748177043310336
0,0667087184542053
0,0507279189045454
0,0438487111423711
0,0862991244158634
0,0501092708365896
0,0527597741415465
0,0439280258669271
0,051200980117544
0,04123792402567
0,049910536892116
0,0766514688114754
0,0612971573106986
0,0465303660076865
0,0555791498155376
0,0429966771237098
0,0775432719164756
0,0590705917441888
0,0527061459865464
0,046462997416447
0,0547057207578431
0,0391341396520724
0,0977644880103326
0,066553174822258
0,0694000849901401
0,0757782714292307
0,0746751565880263
0,0675905963433409
0,06420686476727
0,0557587136911166
0,0722406344665538
0,0738147681755855
0,0634041645736651
0,049158603310486
0,0781730600780511
0,08448305199112
0,0611521983819362
0,067544752055199
0,0584884873400842
0,0548079870640651
0,0962607825405663
0,120115303097544
0,0980875754473935
0,0678350583341611
0,0690771125326374
0,0916983071045671
0,0723907927963807
0,0671020571731639
0,0673214221078371
0,0663512295599383
0,0699174830807863
0,0683347392621391
0,083783027043259
0,0719951124980104
0,0778290282079423
0,0730827617306087
0,0749400243898681
0,0908175007691819
0,140421870647448
0,116480761666876
0,0958574013589097
0,123252529081781
0,105743491688306
0,089978635429691
0,0862797021012646
0,0803907544979304
0,0965599812993611
0,0881283511629271
0,0888043321600089
0,081766517938546
0,117843509585691
0,102178069911441
0,108892827241825
0,118369283224036
0,100539511360396
0,100788373742761
0,102846968344211
0,265140545141332
0,138430351729347
0,12546778136826
0,124710697294931
0,130170555882965
0,197899974668776
0,138260656842133
0,132968560869582
0,13421058289293
0,130828572646969
0,142799479181529
0,154607307342729
0,154317439166648
0,1709867802623
0,160796512484588
0,160973413378151
0,177586955679848
0,248365674780433
0,227693849398904
0,203858738909937
0,180470266085837
0,208689221944859
0,212767435169112
0,202252303090653
0,206624584978133
0,202044759772065
0,216131758383778
0,267525754424045
0,231672784705698
0,229002470387982
0,237770355913174
0,27176200310281
0,233818517484454
0,293936713041831
0,286195428904943
0,265177939580434
0,263453080807088
0,265661630051519
0,268860496374303
0,272903333534818
0,312730342942703
0,302410430574334
0,286046958864058
0,296970729966606
0,290622538083153
0,299875266667378
0,298765827875014
0,308496913433716
0,306363545353041
0,356995630033315
0,346086425770642
0,485806592788259
0,351099215511547
0,326912126197639
0,326634378437627
0,317615970380516
0,353412878901056
0,348903245257218
0,357900294890879
0,352368021427086
0,323150860772472
0,330451279406001
0,318206962694292
0,323657725304944
0,318447598932773
0,331676388381329
0,313372975436691
0,349068949377242
0,317813861757361
0,363750325438215
0,381167866409526
0,320777954315179
0,313586480888677
0,318055114306571
0,312486723372978
0,312057902937125
0,305575038415128
0,30691686204269
0,321082233900883
0,300664142569731
0,294154251339887
0,289006300533837
0,316803100692145
0,319316018120299
0,285184247358995
0,290051424584917
0,282863950690557
0,280272766691812
0,270389581765964
0,292012063328158
0,324779538529993
0,279272460688119
0,264682687481467
0,266781638308582
0,25994451059816
0,262760547086606
0,250616526773032
0,266956345851496
0,255376929888054
0,248220712113843
0,255313596779569
0,249003625967361
0,244220318537168
0,251705634982294
0,249358738760974
0,247081896263374
0,236368318204469
0,246603741359501
0,239739432364965
0,24169208326027
0,240386498500969
0,243534460432518
0,241979603491013
0,246414122933028
0,244753417466477
0,238902023806834
0,239536495675697
0,241035153521575
0,236570452029011
0,246260426645173
0,232535374745741
0,23867590557663
0,230466662499493
0,236009880645064
0,233566320770026
0,23815524241796
0,231136615858342
0,239959825377899
0,233040236690843
0,236165585103911
0,231459626275049
0,240480182595882
0,226452204353207
0,281763066912682
0,266230987225275
0,234767177695006
0,234177516783085
0,231551618552108
0,229853916251048
0,2255831212378
0,264985475897392
0,261710158221048
0,227507295043155
0,228609539686597
0,219615751887629
0,239583944666158
0,233044582375744
0,219081679121332
0,224796450126191
0,217405122238761
0,242421034861769
0,318352393191881
0,27635230007107
0,3340123069841
0,240881805112294
0,223685140936074
0,226295981293361
0,260183229862928
0,220795614615796
0,21952639445632
0,217810504176221
0,255201546270148
0,233375970482578
0,215187710157017
0,217079658413848
0,214981438983329
0,235822737137568
0,25039876213641
0,228949767801927
0,229134342152571
0,255957531034966
0,234543047101673
0,261015277219905
0,292003249698427
0,243892269390253
0,206684572876278
0,207255290212175
0,207179431579757
0,208981015070657
0,253597823564051
0,204948771691361
0,212411436534376
0,196363048485286
0,190289090235048
0,196458695516046
0,214776211389652
0,205454746462596
0,191475019436116
0,22691709187668
0,18894082286214
0,197467503770756
0,21451961042958
0,221878524154446
0,244047577018849
0,190843586443574
0,178235182603683
0,2008485869734
0,229076513950857
0,185441206942485
0,19451740068605
0,168532553985572
0,170986817429111
0,190086497978904
0,167347349781718
0,175049608357301
0,18417552729598
0,190478803806305
0,226211382050862
0,222799530418238
0,216609251372204
0,171166483099366
0,151435007650262
0,152164917883822
0,161390611840893
0,152787410765192
0,152423356044852
0,16978190252132
0,171371417145642
0,149146045477533
0,207206549180108
0,163830927867666
0,153709321445711
0,156789375439198
0,152197514903692
0,159827301372552
0,193209093216098
0,201120937022409
0,18572207930073
0,167675383052705
0,192824486011072
0,168650944485545
0,174967304278555
0,16398536620958
0,177034553321908
0,173198684559965
0,188478002796304
0,18342260720548
0,188883964476999
0,18770527874627
0,195810794254496
0,211750192860698
0,237882277323438
0,203899468441503
0,2301107063828
0,244541093415489
0,26258560730886
0,243800902852514
0,227201747295725
0,235717413320557
0,234845781320218
0,238809885391402
0,248818660177179
0,248963763597998
0,282754583447769
0,25569572585086
0,256790234154361
0,25897039753334
0,263997016443527
0,271131876750002
0,298075092836493
0,298652702914635
0,323059959621757
0,335716188727666
0,300733161221446
0,292319760898986
0,281311397372458
0,29338523866231
0,298111137081695
0,277558062179946
0,291453827738137
0,28754773565713
0,313127092601539
0,293781515184322
0,295800482547691
0,298035785265976
0,300539642739458
0,295571195553611
0,299000148978176
0,298628183492614
0,301203752215214
0,301911672684282
0,310841131792857
0,30752876527838
0,38090957433853
0,33843233748006
0,316260601327849
0,321922901345051
0,319551472733232
0,325165141146261
0,319794640680662
0,333804998285002
0,345021679777826
0,32922892261547
0,332897188682187
0,329911775173675
0,331769349820022
0,354098580949405
0,365941835284579
0,344090674316986
0,344481847391443
0,34287745148211
0,351250844958823
0,41187527597464
0,361800268714029
0,368227295700341
0,361996840780808
0,356074280290588
0,354063672546641
0,352511184017791
0,360388768278508
0,355774375369642
0,35782704697691
0,357543005592157
0,357939878041384
0,356348861608286
0,361720503111199
0,358024177845854
0,377559473056577
0,363737286097866
0,355097747639423
0,356050669400299
0,351613195125762
0,355957654222035
0,375254742985803
0,374704104439347
0,360023734793609
0,360145709468532
0,365489365643286
0,371053161958037
0,369664728636791
0,351739451710793
0,350648653366019
0,352543999103749
0,348927937247442
0,354447154187658
0,357947047651205
0,379612888164765
0,366103432175491
0,357442803651643
0,3548094395205
0,35802036534398
0,363857972004453
0,362936324999979
0,364156464616798
0,368988115567846
0,36981228067233
0,368224788892368
0,372230659927697
0,3644322758811
0,384597200711578
0,379915195980095
0,379772155671417
0,364835724956099
0,361565984703983
0,363750863142188
0,358570325193126
0,371541442892692
0,357429976033307
0,355805747602483
0,350996317368367
0,350455535676031
0,348692006845563
0,372337347994156
0,352783313996446
0,34561161573874
0,34671644738881
0,327542846863877
0,339138485281508
0,329215880316735
0,331891158266611
0,32393720589614
0,327799274015719
0,321667365039881
0,322998530053807
0,317156947867044
0,315200793193398
0,315392879136304
0,319169939489566
0,31489296256849
0,315426212357841
0,313545770121356
0,314460972375526
0,315960614492306
0,312829900997863
0,310886530269336
0,31190935551299
0,318229769009335
0,334149492138657
0,324694143607992
0,320781557696482
0,313042298172537
0,318427379553534
0,305727375440068
0,310920260351187
0,304429021569024
0,311170233888566
0,305289075540542
0,309982299823625
0,304171725262511
0,308467752145766
0,306409632701927
0,306155780697203
0,300806450076389
0,30240847718183
0,305411594980016
0,303767189706874
0,305213819225993
0,30522062793662
0,303696172125137
0,309907180436433
0,308266414476424
0,30301038367974
0,308425855399856
0,300722212165917
0,302753996963969
0,305811017206951
0,304811785511915
0,304493991277209
0,29788268910438
0,301253477346717
0,298530165015359
0,301009008047831
0,296785082776748
0,297071795202135
0,292584622543849
0,293352579820711
0,292050028855118
0,29282191744496
0,2868881512097
0,28836672742213
0,284603757085596
0,284542679335757
0,27992426482839
0,281206857279947
0,27880272962583
0,273892121753079
0,272484675803832
0,269857857072694
0,26713371599447
0,267780253454683
0,265277285355989
0,263373439975054
0,264042086326529
0,263067644201628
0,25858400451996
0,26023109941853
0,259859254813867
0,258723791192705
0,259797161730447
0,258105452329349
0,254951792433961
0,257138261863636
0,255019278682582
0,256380597564159
0,257782164371922
0,259923723508879
0,260433856903409
0,2610406440884
0,261221229496221
0,264240700951064
0,264069481426434
0,263633233901613
0,264692835586943
0,26964331597084
0,26699355592506
0,26663928988959
0,271158908857731
0,272210890149952
0,271032505887649
0,273210621109512
0,272836679829233
0,274773310189493
0,272793722024539
0,277479076783069
0,27668120736025
0,275452021969461
0,276713480049605
0,276803916222125
0,273207370989474
0,274594473604266
0,276094720176595
0,275785024684011
0,272661613939394
0,273190827841243
0,270934379627788
0,271904691586643
0,269900908003009
0,274125836377734
0,269449159463802
0,268750080142729
0,26754198752774
0,267467508236835
0,268960436828585
0,266597927034099
0,263270925539528
0,266778358417998
0,264575427903465
0,264747946712404
0,261892449273183
0,260889490052858
0,260651643014575
0,25919887991494
0,258455855284309
0,258300529758002
0,256147507104061
0,258928278856425
0,254826531364655
0,255176204723788
0,252158022644626
0,251580826003223
0,250422530519854
0,250904016272581
0,249991805994857
0,249487584690047
0,247028305460586
0,247572083581865
0,243884703428896
0,243981869448539
0,242586622030424
0,24202561173043
0,237348704537242
0,235272760273704
0,233670500121399
0,231128797605498
0,232720709898619
0,231561336855534
0,227740562326846
0,228339882586238
0,224961204061806
0,225113811494475
0,223961715737073
0,222909518296362
0,221770689599486
0,224121042662244
0,223409242073821
0,221800341079348
0,220233173704684
0,220384602176841
0,221681264474492
0,217734160542691
0,216882296095888
0,21676848164783
0,213889887630755
0,212804230355808
0,209324882800063
0,20962953070845
0,207767199744009
0,201330651147176
0,20155427432574
0,198825375024618
0,195960405456715
0,199254840357634
0,196301019840274
0,196933713012682
0,199692288964394
0,202102817794763
0,205813495592411
0,210604395254352
0,214515098767643
0,220823562967003
0,227468227436008
0,23543178368112
0,242985901442842
0,252834485521853
0,26349655359803
0,274086654874478
0,284541076919994
0,295633242357858
0,305960348984787
0,316810708771541
0,327098273621447
0,335651951396967
0,349328087710189
0,360389633900325
0,372696763166239
0,381385471042547
0,389555319455561
0,401053736976651
0,40860249293804
0,421438015817248
0,430638894997087
0,435843961951561
0,443052191144212
0,453152702507028
0,46180460659196
0,467355974431926
0,471767091387173
0,476380705321971
0,482231152206342
0,487744958414231
0,486841423707259
0,488203588252727
0,488170910526468
0,487540265568098
0,488144450269554
0,488953502710337
0,493115188739373
0,491865028991826
0,491679158699675
0,490160279124596
0,489261965863757
0,49032552477969
0,492155354280291
0,493497359631143
0,493966247057893
0,497986853008821
0,501108152175298
0,502180079372677
0,502227487783482
0,509725739233671
0,510793463189302
0,516607190229111
0,520533013023522
0,523305473605976
0,532572215542036
0,539054537811984
0,544252184505233
0,549160063525774
0,559576839489703
0,567219665452313
0,571463733947168
0,581881549645155
0,587705174286838
0,59434413603127
0,600851959712493
0,605152474766222
0,6106592444124
0,614882052453662
0,614487073858766
0,61642678841287
0,615316578959031
0,619893263605656
0,617402416993697
0,609952439542513
0,60855971060508
0,608604819963204
0,605475047213208
0,606147465832539
0,609576429847444
0,614329444196535
0,620116440767973
0,626371400566283
0,6341083331029
0,645494741589323
0,650944335270619
0,662058710579852
0,668353828939891
0,685902736973057
0,693083674876387
0,701550281667556
0,712804305318084
0,720165698174383
0,734473039782987
0,74683371672485
0,764408240373735
0,76675276606547
0,778397199613711
0,792900681272475
0,806835172397256
0,818775036018332
0,831636930289988
0,850799445800708
0,866622761658903
0,888740266561543
0,908200747654209
0,915502409213693
0,932190748188693
0,944400772456169
0,963016412056762
0,974691068488022
0,982223661088988
0,999653974939735
1,01424959715099
1,03018274364162
1,034435285061
1,03523041253737
1,0360567705325
1,03204123587086
1,03766172308222
1,0410781876964
1,0567180165536
1,05198211524696
1,04627597234539
1,03588847142967
1,03553491579843
1,03454860775169
1,00832358494739
1,01474104323398
1,03204823525873
1,03575544879963
1,03122385331625
1,02557618508785
1,03313375342017
1,04831431139627
1,0367007192903
1,05215376585472
1,08933720639648
1,0954043254339
1,07528444871674
1,09099241265713
1,11213171499892
1,11786862665986
1,12036045920943
1,12698303891155
1,15990381786035
1,15878131100448
1,16219088086982
1,17082188394118
1,16531922601554
1,16438961310397
1,17985520603732
1,17915158309299
1,19474761872137
1,20093599395994
1,19752967368156
1,22087801434805
1,21762921169883
1,20722100716384
1,20607490795753
1,19918565832165
1,23383999504285
1,23096045431725
1,22670587265302
1,23606758753502
1,21942665561997
1,20884065449671
1,20255028392929
1,21886779855192
1,21547146367602
1,19498800819282
1,20838124108313
1,17579212069404
1,16675688524167
1,16040009249856
1,14561529550622
1,11508115884104
1,07922164717079
1,06718492981809
1,0328987983906
0,985608219541397
0,948742477153649
0,925682752323423
0,884580054420496
0,842785649464302
0,820959306697351
0,78146647419573
0,753591454337118
0,736190195913943
0,704038968117694
0,696328181964941
0,688995570716391
0,670443444132548
0,667171853080764
0,659927686972789
0,643985595636108
0,637736691072015
0,639342641868067
0,629489642947237
0,615504700624876
0,599842374599198
0,591124824401386
0,587717460654037
0,575692675583588
0,558485844102848
0,548980347730837
0,538857998152848
0,521543221965217
0,507636746161633
0,491544582615083
0,472486627549646
0,454650194362656
0,440971970712395
0,425408640281524
0,405615628177114
0,391667893671599
0,37503007496527
0,357257023477424
0,341545235808501
0,322304951535492
0,304808332247894
0,291133145151324
0,275747116544004
0,267133937230727
0,255168983233574
0,240237502816011
0,236498244977228
0,231491473922496
0,220859434030595
0,211524379366213
0,206048279521749
0,200513387366548
0,192730621954635
0,192946940637423
0,188532504084886
0,182281054766169
0,181929027331608
0,183743623385072
0,181272801643385
0,17908188557994
0,176805667156835
0,179881790935747
0,179933317125091
0,180464611343543
0,18194000650865
0,180861709294403
0,181698310891741
0,185742137043991
0,186902964446075
0,191275877262306
0,192424691612155
0,189724810686546
0,189412289375665
0,186779594635442
0,18803205993827
0,185008427390985
0,185371933907657
0,182892221759825
0,185850928484753
0,184839550309308
0,181152411705744
0,179887115631626
0,180334310558109
0,185298668472695
0,178928448015771
0,179181486829381
0,181363927718722
0,181129245343692
0,182110020868832
0,185161258953884
0,186491284308102
0,190037248780092
0,187339159392546
0,194194814273712
0,190031515565852
0,195250688756199
0,194844364653653
0,193258707003896
0,197550749641557
0,199943290687593
0,199483369093374
0,198057910225524
0,198031242151274
0,204584041688472
0,204590307727435
0,202917582158446
0,200533628600726
0,200587244084107
0,198409261487555
0,203066133832331
0,202615602061412
0,205440489597985
0,204099368520203
0,209202715129829
0,209365593001382
0,212843689132847
0,218187897102137
0,225200971005908
0,228702224798175
0,238988997304718
0,242345705229941
0,254643431919276
0,260460636300082
0,262392243610132
0,27009277942639
0,2660522062981
0,271213916417054
0,280082417849357
0,278406752374728
0,277055575930896
0,263451979456282
0,261570611382838
0,26294479154363
0,251371690097423
0,250950141241911
0,252340342465624
0,24085136521955
0,241641657876269
0,245672982680531
0,246512053209934
0,23762087578213
0,238281519026101
0,242305990409288
0,239761382705168
0,242222705733792
0,240434639274139
0,236780794673955
0,23938829492214
0,238567459792321
0,238285637463978
0,238265224628515
0,237964942611612
0,235087160028745
0,226009213320761
0,224682762902155
0,218351795797708
0,220217657543995
0,219839535540789
0,219901004647928
0,220610962980947
0,212488661725629
0,206319806093488
0,209792331285859
0,209820390563187
0,210261889660631
0,205142785354381
0,207561785160724
0,206994523485085
0,203517420992358
0,203588752783355
0,202609419358695
0,207757695623949
0,198353008385653
0,199670390489329
0,198270755947432
0,190476439567282
0,193458231906878
0,195801676423372
0,192696993876338
0,192300688723623
0,194734701993203
0,194012544198517
0,193189825718119
0,19186144578726
0,192150742359467
0,18519155491098
0,188559471856378
0,179089917821599
0,176492116366989
0,184690849545949
0,178662660903562
0,174577119953784
0,176872934953334
0,179315509833297
0,179108747618724
0,180639491366658
0,179081292729128
0,179084067621054
0,178138277473548
0,176220430256806
0,189643289728852
0,191516092779543
0,183889912926429
0,183582374901282
0,189420474999488
0,180325048610297
0,187488800315175
0,185028348165303
0,196264885482234
0,189743914870459
0,19086744047473
0,20238944129752
0,19042417406687
0,191684108045244
0,197652288512179
0,198055841561704
0,197178862437111
0,19835037690245
0,201691508700786
0,200525854555086
0,200611168440554
0,215378347545547
0,213673563325469
0,213894310881537
0,220088066407746
0,225724765526221
0,230980076024564
0,226167410683107
0,226997331723631
0,249614907582817
0,256671455813428
0,252348872151702
0,262463943748333
0,273894171028898
0,284985997910187
0,283175621060982
0,293175291408486
0,309256020574627
0,31050147356486
0,323388759454982
0,318541424234631
0,324430651492803
0,33551904500384
0,335677874856507
0,338422058697717
0,358234082813022
0,337891446029191
0,344461748994973
0,33863046749296
0,331843892819941
0,338514356717499
0,338556956594764
0,324887774065812
0,322503987957227
0,320784124849779
0,332052581374062
0,328008535661147
0,331162038910975
0,331095722784773
0,338327182389768
0,324533446127906
0,317358405198204
0,310695935990436
0,311267799135527
0,312712248990836
0,311711581296031
0,304261521248842
0,30634331832251
0,301709750321408
0,310581793314164
0,292679905931441
0,298618363105425
0,298352515457222
0,294274996915948
0,29373446168413
0,277680965397933
0,285204053057679
0,306959372656256
0,302648814839596
0,296288847561389
0,286716456695499
0,316662851859501
0,293688145230917
0,276535478005688
0,269513223268703
0,283140327734677
0,289985849676682
0,28763539891147
0,30170097268825
0,293402279219014
0,289442696278035
0,30463757940267
0,2798184432871
0,296427535158752
0,305286429408601
0,299011994185188
0,303468006083127
0,292213393734468
0,313908892209601
0,299296246783147
0,325292973234313
0,312177803206608
0,308531214123659
0,305849467083772
0,322442879585047
0,317036501450795
0,318499889187258
0,304290489825649
0,323998968597784
0,351034638730004
0,333306567074222
0,312875001201405
0,328063624372088
0,351051483139421
0,370218674304222
0,360076704565542
0,354209512672524
0,361029140013496
0,355042225233054
0,365259826354977
0,393907700268029
0,371306453986768
0,385375187206309
0,416454775476801
0,414949163518954
0,425540427381811
0,38106615974494
0,410770060639772
0,453167667912637
0,400228818842313
0,454063194747073
0,418374168239413
0,421158573930553
0,435844283454488
0,423486466821154
0,424121752338778
0,456369225449527
0,405831031382044
0,395631279790736
0,402960667452219
0,402039245431325
0,373793437650202
0,338728193416744
0,371069192389082
0,422681857134984
0,400171809606506
0,399495861380963
0,430213661246891
0,362032344680841
0,357171316876932
0,406655076417895
0,408762068605635
0,479786581014364
0,40044894359607
0,375884448629312
0,349546616242309
0,426706847704171
0,418247593457418
0,363879247961538
0,447840232249624
0,463001780009787
0,332378672432143
0,410589202469936
0,451202560509009
0,501412093651828
0,421000714680102
0,394681388289094
0,414997409547383
0,560379300044367
0,3049922982568
0,391671003796238
0,398568001520782
0,507730072950381
0,372318995551279
0,517240802755847
0,468546009280864
0,436396351841263
0,293394434271279
0,408969701160221
0,57197567368524
0,311707818604277
0,425678922593113
0,514618661167277
0,334324491727157
0,371112700533275
0,551294964373123
0,373916620422506
0,338629252796317
0,496636217301257
