3596
4000,36533379555
650,420452594757
1
2
2
0,0662460364686506
0,05637032963513
0,0481605538861892
0,0512421526709214
0,0564949769750518
0,0545996742329037
0,0616865569644566
0,055784837890023
0,0583056523457607
0,0569529175909492
0,0531299190340921
0,0546739422702708
0,0583258737650034
0,0510176474202135
0,0512868070095767
0,0570184408435224
0,0566161765633786
0,0554238338344541
0,0596053432523109
0,0575849036041107
0,0564254507386458
0,0553199458778669
0,0583385688045075
0,0523959474915685
0,0589596470590932
0,0513552566008194
0,0645642929019014
0,0609364416963401
0,0617152208419138
0,0559108334384712
0,0621649912490537
0,05445220088474
0,0614812116568824
0,0571971442412199
0,0600027278825327
0,0505496792027165
0,054472248953476
0,0525801708890202
0,0543454981773877
0,0576198680931533
0,0658520756149275
0,0541288165107072
0,0601726682293091
0,0575442656985177
0,062044669150049
0,0585605190791278
0,0580869856801311
0,051669932831992
0,0600975180519442
0,0561392197539145
0,0628771013327144
0,0486590033686795
0,0755896902342436
0,0624373539853021
0,0635898408706014
0,0743935267070118
0,0656857685713476
0,0609673034822547
0,0591741046679499
0,0430914108308166
0,0745550573963955
0,0639930078699787
0,063532893208147
0,0568232542101361
0,053053955121384
0,0566188738343129
0,0560077990462341
0,0517420099699067
0,0502595847115926
0,0597694677744419
0,0516015940304108
0,0819700313334284
0,0683061180715049
0,0572148578398186
0,068400820586054
0,0577218557799158
0,0561877343634535
0,0560053093382202
0,0526407835769901
0,0649027569108697
0,0636513482162219
0,0620164559248912
0,0580726863348759
0,0407988272615278
0,061518130923555
0,0669245720827153
0,0470174843384642
0,0635444703087593
0,0810392633288794
0,0653417046042035
0,0508664895165784
0,0616317897506478
0,0560319170456048
0,0549913905269114
0,0542646266748743
0,0574750037757476
0,0478633802237491
0,0575387817723808
0,0470921533291001
0,0700502583852943
0,0516124051592261
0,0741355933758009
0,0911736915222118
0,0532700876290078
0,125260305728408
0,0629974285134976
0,0641055572603428
0,0953916519783605
0,0773412953446039
0,0560100306139237
0,0497760994326519
0,0542529483903567
0,0598475070995847
0,0597244730085194
0,0430489139394483
0,076399949943822
0,0891616984018895
0,0621378694726664
0,0506916209338982
0,0568397071874402
0,0361130149768428
0,0899766642230633
0,090588101932226
0,0598918466915954
0,0616761614438719
0,0572252844783002
0,054822814251998
0,0854904336610776
0,076921968607934
0,0564253786152922
0,0520281606498981
0,0541447543371834
0,045351768836688
0,0561592477065588
0,0973261024325981
0,0570980621631328
0,0626859067029651
0,0376211802505295
0,0907394780422844
0,100337852033282
0,0654765815322801
0,059535822895229
0,0470674383873115
0,057346817955861
0,101093215578018
0,0623589043107734
0,0538310759143529
0,0713431071870444
0,0654201944739734
0,0556247709598182
0,0492860759219709
0,0497374091752559
0,0653326246706792
0,0714044206111354
0,015916093639055
0,110352402938753
0,103882102771841
0,101020466047421
0,111685508811946
0,061726397197877
0,0677194883529325
0,049269723977587
0,0614000215563111
0,0428166351773296
0,0629267835207899
0,0385595176890938
0,0700029844958656
0,0707473818487637
0,0555701158351645
0,0599530044357283
0,0967672039401476
0,0610445439942788
0,053505246078596
0,12444229466963
0,0624504017827182
0,0580153730741108
0,0829758791542568
0,0604780328808673
0,0413054314272382
0,071420412361461
0,0754282155661241
0,0479055652828201
0,060954800526295
0,0525120048587666
0,0553378294087974
0,0736213378675946
0,0600689115154911
0,0563994396707749
0,0585354483504119
0,0411943138360005
0,0640242940314892
0,10262834761365
0,091334468971966
0,0629940451838117
0,0624771656885644
0,0304146487703517
0,105603147971439
0,0796508391372339
0,0633476928374121
0,0511705721817928
0,047079005089543
0,0490952283606804
0,0463914510170074
0,0545171493599304
0,04524978783912
0,0375369395692476
0,0972654705225755
0,0707822397289586
0,0617348052972667
0,0430598733071954
0,0611723739797933
0,0388080791433875
0,11750387376823
0,0808256926400354
0,0694810858497138
0,0565524422804462
0,0511828317764686
0,0648169220631221
0,071124886175053
0,0544814184942734
0,0571483188557962
0,0457340186341833
0,0494738814205716
0,0480068618974612
0,0575916480519858
0,042845435906444
0,049409169631465
0,052993310140376
0,0538862550705327
0,0565339699522882
0,0672505094963452
0,0521696178520022
0,0607683910425379
0,0576161258730618
0,0442024764378901
0,0573493675955344
0,0750022887281836
0,0562165613511802
0,0579461779990972
0,047639179095232
0,0495152605331077
0,0508987757170204
0,0540866337847285
0,0533752084536154
0,0502896830875855
0,0513201024051078
0,0932729814568364
0,0540318707232839
0,0620925140604661
0,0340243839086692
0,0757452953399485
0,0601981836814482
0,0608003884138404
0,0481430992008951
0,0665393238809144
0,0411788537393613
0,0563300646088152
0,0813580478903211
0,0699376046567929
0,0430122484083603
0,0762109131526734
0,0578186105821704
0,0607511199116315
0,044763165102557
0,0470038391899994
0,12473900238223
0,0633968641676125
0,0405333454659523
0,128323058268259
0,0687138826585347
0,0722607098920893
0,0458465997323721
0,0409497605081423
0,16878641285649
0,113291910293379
0,0563421718513187
0,0616252930060552
0,0774849157275152
0,0534252570947903
0,0599045896063597
0,0599241324922086
0,0772906118299643
0,0712998506741365
0,0905390724334691
0,12140412201928
0,0425791641198457
0,0993728429777074
0,0799785538500308
0,0689770865810626
0,0482613648112825
0,0535038607490893
0,0459533064589917
0,0814180550731147
0,0714428263969246
0,0837501113279329
0,0514877040237024
0,0572223719838735
0,0803741168089356
0,0713735105219459
0,0427414114332813
0,0704760003343313
0,0592500988991941
0,0547660242702443
0,0493228588227945
0,0491304835112099
0,0611642153645105
0,0514192603699315
0,0513827054832701
0,118557109457194
0,0622773218247371
0,0663806924487155
0,0805988739178869
0,0665967763220539
0,0540041904725424
0,0581098741398725
0,0479684832476984
0,0556847255498594
0,0498075863534163
0,0454274762400387
0,0782597292704559
0,0674233813453872
0,0483303348629241
0,0554307621469654
0,0432740558930118
0,0464723831574599
0,0528464775486229
0,0501092446292734
0,0487275246026955
0,0550869780773285
0,0354951963256761
0,0769245799174934
0,0870751400668389
0,0321001503997178
0,0913760611524835
0,0961486578413011
0,0584449421083562
0,0545675209804764
0,0555702063216146
0,0582219558365725
0,0499412393819826
0,0557087804774564
0,0456805706712939
0,0551905071642177
0,0666389171724417
0,0733112232924197
0,0561247638271631
0,0557164938949529
0,105575868395267
0,137408013375532
0,0791882247852832
0,0698235073812201
0,0356575685557611
0,0903697746603132
0,0730601206151992
0,0975082703933529
0,0848143789511508
0,0604667417866544
0,0580360840956197
0,0544606562415272
0,065724227201623
0,0581224588221985
0,0558883724895407
0,0546316861028356
0,058809683239625
0,059500590842498
0,0665143773218796
0,0519617579814294
0,0619369633870828
0,103440135157311
0,0702140236856931
0,063868755899223
0,0646100787247693
0,0523165517517905
0,0921210252599189
0,0865620214200229
0,115214395356984
0,0877561621632241
0,0955814683388577
0,115818745684979
0,0735523575565228
0,0715786995596874
0,0531293134521361
0,0719738562159655
0,0706359318936358
0,0713191473304891
0,065722053316497
0,072385819849209
0,0699580890866381
0,0779906516135668
0,0680489429912764
0,0694431896983094
0,0705474556970907
0,0963697481312509
0,0734590778933326
0,0827757086376612
0,0573265885376513
0,0921424892776463
0,120533943911287
0,142576700918811
0,0892580938856886
0,0979593672314555
0,0782254786539006
0,0815638579056387
0,0734584792786959
0,0833898463623216
0,0827158618707424
0,0708940141273645
0,105939521543027
0,102511267067518
0,114446554453504
0,10686833425963
0,0805764237181928
0,111316688079268
0,0929685677704127
0,0989296097591637
0,116282626466663
0,1059843285231
0,0749659154500382
0,117890774462642
0,102829361047441
0,10931190502868
0,116077122329608
0,102292907635588
0,102998740396241
0,0881652821123196
0,0988043999699396
0,0985188236125939
0,108007268106014
0,114610953891008
0,102451576590272
0,112261642002902
0,101990386120485
0,102372116922739
0,124831131594411
0,116202486387851
0,129096469902322
0,12934054406661
0,107126195235645
0,11087682740959
0,10433936233929
0,146258419058148
0,134440788933085
0,148131754354872
0,142710328336876
0,130352240422909
0,120640282640181
0,127218729897044
0,125620314708938
0,129283618488703
0,135130443916064
0,138538521752949
0,134999424727466
0,139500793207085
0,131394157673752
0,136486352730146
0,137112143340123
0,146617429482908
0,12957505572583
0,129786196116444
0,134214064977203
0,147574357753413
0,140316934242375
0,179946557077847
0,163707954745459
0,182647480143816
0,182136856212564
0,161013833294492
0,160338969433303
0,153803284954943
0,161446310148026
0,165273267644549
0,177625184706973
0,164406440941005
0,168571805931943
0,173615000124094
0,171965112742365
0,180726243310207
0,175640723454723
0,182367944299921
0,175744026230368
0,188750778363842
0,185089526666422
0,189278282974368
0,178415067714318
0,200741186037805
0,210775187310023
0,194854216220699
0,20182261194567
0,204053487971316
0,201076326035898
0,208078309837346
0,202609520745468
0,211417287587617
0,201673476407007
0,218920678440278
0,200577082479177
0,217201394929695
0,218837063802639
0,224730545054873
0,20593899891313
0,226860021832885
0,216776205485106
0,231454687146506
0,2231943737502
0,23944124672785
0,231432673415192
0,249313735622379
0,238712439730893
0,255680787377863
0,249214024097748
0,245614564374085
0,254204976702528
0,249548307129481
0,246229130344396
0,263383307831805
0,252076539771687
0,267216184762038
0,265026693868637
0,258424906947681
0,264626690564259
0,253544803034609
0,270329885974242
0,275137084111322
0,272549779192612
0,285609993314794
0,273396307190811
0,287278675937084
0,282203873683241
0,29242688363911
0,298415073783089
0,280027211387247
0,286841748935848
0,319719457739735
0,293253758202112
0,308709989554196
0,299104580637605
0,306071218712774
0,307537555525023
0,306655703780078
0,311929195166634
0,331800814155616
0,31238797959153
0,313031453454272
0,310816931618713
0,33526153954275
0,332183651066493
0,34086824213219
0,319130149846847
0,338346432493804
0,329620043113898
0,342726802157491
0,336117114774884
0,356586696194984
0,352965146052965
0,351050660499334
0,345537184849469
0,353226014547753
0,353753774998215
0,35129927020568
0,363785314702853
0,361224192346751
0,348924426692884
0,352050940260168
0,365722109302183
0,374559971619215
0,36884594927582
0,373768935936889
0,369343820365204
0,389850782488744
0,381889150663756
0,39356692729114
0,381965244745779
0,398739668168139
0,391989013985744
0,402009837641264
0,398398142538299
0,41760776527184
0,406343036665686
0,408498039090048
0,406177355880923
0,421995500419188
0,399159280881106
0,41865754583311
0,393062518149897
0,432089095143334
0,423680928547607
0,428991070656254
0,414792075849743
0,418400542570769
0,416368167139676
0,433123892014064
0,425262864831285
0,454587756623146
0,4426861487832
0,443409511924422
0,444216249583259
0,457724547306714
0,437960751831146
0,447925270742557
0,44158846136782
0,451467457094249
0,451843212907631
0,468544457570626
0,44812523835718
0,473340337800041
0,453023824794696
0,475288559015369
0,474727321093985
0,463880750837327
0,460005379662141
0,463849337451134
0,468922107849059
0,473098694336739
0,475991514848833
0,497112439778887
0,486724268712108
0,495562242925713
0,494904602251549
0,513368159660637
0,481435388128291
0,50766498122002
0,477471389077609
0,497112255210728
0,494823451910333
0,503618190937937
0,506535625884703
0,506238217173294
0,496376456786684
0,502436901792558
0,497562540596831
0,511490087207829
0,508248979224185
0,510835675230464
0,509576635574406
0,510566182696796
0,500556849272857
0,521195280923093
0,510709752764459
0,513205041794877
0,521946862293767
0,52796089563279
0,513542817637971
0,527785406312554
0,541696193758241
0,536578841678634
0,526603601723461
0,55507038110151
0,537755272302108
0,542064681190573
0,526912357683544
0,544170751940458
0,530058345689682
0,533982001654066
0,554079203595347
0,56538463479592
0,546738077945761
0,557580415719495
0,538977142071539
0,562086570494353
0,548533966541655
0,557545404119799
0,538807073765223
0,556800396844287
0,545734327231704
0,555207800668217
0,557608193857462
0,565508421611931
0,546048218039743
0,575324345871963
0,54558774034869
0,564956060594462
0,555831386890929
0,565218461969653
0,549494418050386
0,551684190016167
0,556970621404052
0,570511094538533
0,558155283350904
0,564046241403916
0,549684094499712
0,577324603096798
0,569853877901656
0,56896971923737
0,538444653032742
0,582398318219511
0,548950623011072
0,559974772848386
0,559678317697793
0,559419367033152
0,568851344083265
0,57148794273262
0,560014610666996
0,580639919723871
0,582024409611303
0,570073829499007
0,575310934054307
0,568753330846588
0,576855913509532
0,586011960768367
0,564773823309313
0,573114758361729
0,566606307659845
0,580513246430147
0,567959378035202
0,566109068065698
0,571157915943728
0,57003028977957
0,565257292874759
0,565872421938053
0,569754274779732
0,58331883518337
0,565724282963333
0,591486858967055
0,571303255609006
0,574007238720057
0,57782010426221
0,581854656935259
0,573161946036778
0,565614759687853
0,561574620329115
0,56717247725194
0,560596672831094
0,57164526992188
0,562866873670576
0,576700081878237
0,57170512507158
0,573563101613051
0,553021341851117
0,57437737823179
0,580809771642649
0,5767520918775
0,566260330201489
0,566104279730886
0,554922968070057
0,570344013742288
0,576414730155089
0,585814698164373
0,555963948316842
0,564660929007554
0,555421617479192
0,552985329443565
0,561416912737025
0,549747619049921
0,534104754683154
0,556917331119567
0,53553032050926
0,566126604867506
0,567265212705848
0,558135886168703
0,550298265014763
0,56425586567853
0,546933104802387
0,557031351089975
0,545607735623015
0,568834934739455
0,549392975558559
0,542705245963991
0,549769308375932
0,540388548463819
0,542577029418346
0,553789456562767
0,548788142762539
0,564556484015856
0,540822441855672
0,544458586025532
0,550353609373921
0,550922713978494
0,537396648778733
0,560176122629264
0,54930487272331
0,54090129032882
0,540891234952566
0,540803311693571
0,537671577505994
0,543377288829899
0,538864660720392
0,524269160810826
0,53043516012026
0,538135296204445
0,523515645208117
0,528942733075418
0,515936138348125
0,510849260966245
0,511227546052992
0,521998526043205
0,524764716608744
0,519662949851729
0,511145079570178
0,522057275831651
0,516980407386268
0,525399964501728
0,511750334825018
0,511991239383818
0,504787743108096
0,512543243499953
0,508261947323163
0,505516542054976
0,496286500096802
0,506374169291683
0,501118319433446
0,506925768084248
0,500216954912277
0,505725286639816
0,496475386780829
0,495856972954124
0,49437587495035
0,490883666946979
0,47643200726543
0,481401789681051
0,492735853068954
0,482054132067695
0,468698492703442
0,476846306088151
0,47697847242395
0,479978441995563
0,482475831311927
0,480671280056127
0,46495577463402
0,470859798092151
0,473727566381156
0,478250733040296
0,455159396126928
0,455556796760167
0,462629878992734
0,471844026244037
0,456534239491241
0,456616169758544
0,451401951220643
0,45126520204149
0,452348502997373
0,44989395707924
0,445559441978198
0,452854776508658
0,441545561850336
0,444290917458236
0,439536348632723
0,447724239767922
0,435579384340295
0,434835814600456
0,435503712433158
0,431169196491519
0,429306784280976
0,43171122414381
0,42861873065499
0,428522446607899
0,423464444057121
0,420413257237805
0,416510341851195
0,430283104919265
0,414872657010034
0,418928797199259
0,412841399725186
0,41278437334524
0,407063287020032
0,393770251716759
0,404051491661054
0,399676218550302
0,397371985679327
0,390869841201567
0,396581814673762
0,403371416119223
0,398872109352617
0,39386499623915
0,383551775717049
0,384528378759774
0,384174645331855
0,392706343575914
0,383000230525631
0,383079846858769
0,383941285671282
0,378323267483256
0,376923552743667
0,368168622479837
0,369110067764657
0,37044805230655
0,364353312917175
0,363828477777445
0,366026582971173
0,367838784451487
0,360023913837505
0,361131624582088
0,355347012165449
0,35727972872483
0,34981043612881
0,346893438882038
0,349122661416078
0,349735467087105
0,34677373541954
0,342151482732523
0,338058297230865
0,340340817131735
0,337250181217129
0,337910965737489
0,336203084119192
0,335451587843961
0,325976529220461
0,328526261126039
0,326093867803116
0,325243810646867
0,32699210141523
0,319565897664914
0,315260350211764
0,316031735252017
0,319501279837402
0,316716866635558
0,310919948648622
0,312186732044686
0,298474383093534
0,302183397729851
0,305061167748472
0,303365142724563
0,301420607050808
0,303372684498489
0,304198620766331
0,295445982280039
0,294336392584365
0,299100176892243
0,290947483593405
0,29807826124635
0,291956725739576
0,286500008116322
0,282994884604506
0,279628789564903
0,280849431277959
0,281022304375729
0,277463844940585
0,274343384542898
0,274110077894867
0,266753881710085
0,271141958639644
0,271208692339818
0,268473371307197
0,2734173325048
0,268197879609471
0,265630814089346
0,26356197297958
0,26163362454554
0,263002985265095
0,263303148476586
0,257922078876694
0,249471714189319
0,252836145047597
0,254859074943344
0,25176421454851
0,253408492287871
0,248322075591428
0,244799948861631
0,245897151729928
0,241668359527899
0,240503673912175
0,243643243078563
0,241666896543968
0,239198462012426
0,236704199955255
0,241491100331813
0,232533818379964
0,232268634274818
0,230984033425677
0,228103160347098
0,22971842340627
0,230321543567369
0,234478407513944
0,230956234005897
0,23168304942795
0,226863448055639
0,224678126583938
0,219889107157017
0,221664363147658
0,219824191169974
0,223054928170752
0,21619903077446
0,218071300542694
0,215830410806675
0,211583285459334
0,209185495291173
0,207858154592809
0,203542124943933
0,207752356579273
0,208963370936864
0,207567730260324
0,207899313918978
0,207151827860861
0,205904711663052
0,203939585861955
0,206282343361059
0,202918901988381
0,200064324973014
0,200801812499802
0,196668262231609
0,201031956833276
0,195943994824596
0,192090175296179
0,191959612380736
0,19218015206559
0,191691708571737
0,188770943472886
0,18915040301266
0,189616603128651
0,187902489494375
0,186846044039653
0,185524722146897
0,182451073700272
0,179783721143693
0,186386054649684
0,183164073225394
0,180034804683494
0,181137824169905
0,184780233726698
0,178021261544265
0,176385222831058
0,178687152665314
0,17845500177046
0,175566717864124
0,172264232485733
0,173485007505615
0,175213599285873
0,16932807279266
0,173922763315246
0,168815270983171
0,16696488504943
0,166269871766224
0,168601867107003
0,168910674088058
0,162478539529522
0,161812259024286
0,162658313007781
0,162458765841315
0,16066304796339
0,156714938703158
0,160305231467459
0,158463423626835
0,15734343035422
0,160172791913289
0,157600323484254
0,148654637747154
0,151224995384192
0,154607108548212
0,158277334919987
0,152434073556804
0,150048836801003
0,151370098189834
0,14833284144165
0,148446944281359
0,149888397425891
0,146058267194338
0,15044526820192
0,143293364969125
0,145114958798564
0,14182121176086
0,143144459243695
0,141789097434972
0,138842389985741
0,142983013313641
0,145553891254081
0,140051889011195
0,141494801918151
0,138972977938065
0,14165940449431
0,138741054579196
0,142072747983588
0,137735925410078
0,141285838020399
0,139962894983069
0,140391946760205
0,138801390912115
0,137441880776788
0,133155337783981
0,134952660894784
0,134606723322274
0,135974992048653
0,130917174880052
0,136542460688029
0,134826029604537
0,135139805495455
0,133417011149934
0,133401550784594
0,13326371749066
0,134254308839779
0,134301226343808
0,13156553330884
0,131252732373534
0,138613219367412
0,13245875776274
0,134517115343976
0,135821738402826
0,141552883162051
0,135821304221133
0,133096835540595
0,13536589661441
0,136232468081865
0,134977313714098
0,134872616826134
0,135021907075507
0,140744044088054
0,135538717220703
0,14111323813863
0,138164164097617
0,139241755982341
0,141123818785618
0,141518800464544
0,140830505104694
0,144537588132863
0,145959340501491
0,147740306906216
0,145958385033573
0,148990971457791
0,14674393049461
0,146782352285179
0,148030735858529
0,150968601149235
0,152423602919305
0,15441135314909
0,148230664533801
0,151918576631111
0,152696995256238
0,156741101213442
0,159518307988846
0,158709487767532
0,155908057125953
0,162953910212468
0,16587675937626
0,164876411893652
0,161242895765242
0,166546847909057
0,16353087773472
0,166607711564964
0,166370857777096
0,169925564058565
0,172468205225298
0,174042873560108
0,17424660564118
0,175181697059572
0,175874508297738
0,178411403711156
0,172786350193682
0,176842252794321
0,18481357342987
0,188272583586701
0,181690340305172
0,193952679833532
0,186121454440111
0,182881276142634
0,187483200471943
0,193597948634827
0,188361092211908
0,190508037236087
0,19179732195598
0,192721493643699
0,187061562460878
0,194516650662651
0,194613304392663
0,191990305725591
0,188803686691659
0,19146259907723
0,193655264659623
0,193587861003728
0,193407851382147
0,199219739429726
0,188770838783814
0,186507692187881
0,191962345365465
0,193984960926646
0,19037890335357
0,188461158155658
0,186962362539173
0,189294020357548
0,182395690172719
0,184851177439744
0,18535906796077
0,188868223544366
0,18812437041432
0,184255597309457
0,183363669698159
0,188883008333208
0,182672943427983
0,182014278158853
0,187667700721618
0,192125095322631
0,188298665147346
0,187795518306083
0,184120012947101
0,191819980123299
0,186684740792321
0,187823071451216
0,184750996558765
0,184157977158324
0,186181312101933
0,185497276076377
0,184401725382291
0,188207552124701
0,186043169942735
0,188366775915829
0,187366083000638
0,190391362583538
0,187755091372566
0,187448787330103
0,184840028914283
0,186071780096536
0,183365173700408
0,184409338601346
0,183678968538846
0,185607997081273
0,182947189452261
0,182845603920931
0,177450268746898
0,179764258455664
0,179101881363954
0,178887066207245
0,176895866900499
0,182224336067314
0,177124382002588
0,175465509031296
0,172387750975211
0,176371768900451
0,173598906511443
0,17188185571408
0,166342480686281
0,169021500196782
0,163535093661316
0,166537643480112
0,160527515191498
0,160693673484533
0,156342485421842
0,159783734917528
0,153845703904825
0,155937387004698
0,153344108331205
0,154905117181398
0,148669730449633
0,148238266978713
0,151688122558464
0,144692496705439
0,1440020668525
0,147611897699278
0,139287435408667
0,144047866942139
0,141959424550572
0,142459747910685
0,13968847300834
0,13528432638318
0,134427158509639
0,141396684710249
0,134023689567262
0,1334650769497
0,133695352450221
0,137024977035773
0,132214773743424
0,130719838342232
0,129013955762194
0,132128477763092
0,124642953531235
0,128072765208502
0,128169060224005
0,126394718374541
0,125246113555199
0,132089280038925
0,126096767932328
0,123377305663867
0,123053294442142
0,121062742164696
0,122007523573442
0,120539401586242
0,11750543523492
0,125775948864907
0,115139292402216
0,119865279798352
0,117665554477601
0,117671726280743
0,117314613302577
0,118173384407963
0,11366957871547
0,117548916221093
0,110909515910025
0,114521722605728
0,112981198973936
0,112812798382459
0,110151893869334
0,110684882282996
0,112498556505604
0,10974628517023
0,106055783848673
0,112248247412485
0,104138931613825
0,109067367122088
0,105818723267389
0,109142038057891
0,109318092371985
0,105974329295262
0,104119325677814
0,10802127088246
0,102485187217604
0,106694991573179
0,103588943824149
0,105325503235488
0,101524004089433
0,107708032016889
0,105329556490561
0,103284821345947
0,100442136021228
0,102786588135713
0,102648462770292
0,101092814739598
0,0994757973675791
0,103352448824504
0,0985331300560624
0,102673435436528
0,0970158107806627
0,102293116975833
0,101600154190971
0,0993303890040447
0,0945805524086377
0,0970778657725995
0,0977573111845876
0,0990671749614982
0,0948970262434805
0,0992123975400447
0,096328363409027
0,0989636952907103
0,0977427677368275
0,0980112775615651
0,0950179515163644
0,0970767592271234
0,0943382828787921
0,0955641759710049
0,0943637487410412
0,097301829806161
0,0927269308744402
0,0942331226564732
0,0905281293906239
0,0939777908202588
0,0915395444936452
0,096895602095124
0,0908598033119542
0,0919310508070184
0,0903671849877727
0,0939151260709002
0,0913016287148386
0,0942773136135139
0,0899768899916212
0,0892934924429021
0,0874907796314452
0,0901134047577551
0,0881366433109897
0,0910613787004695
0,0901203489208883
0,0938452743707744
0,0888418703312669
0,090788537594902
0,089143505435866
0,0913868923630193
0,0902158444115027
0,0909789532915637
0,0836160346391807
0,0867437926738627
0,0863602841948999
0,0893453439947584
0,0867048145178974
0,0898276433980097
0,0874741336051794
0,0898629514629757
0,0859221863392191
0,0893085139339962
0,0873335676373617
0,0905308128673721
0,0852578770192261
0,0867734847072583
0,0856063447754342
0,0911330128457288
0,0866401452140101
0,0857357277887985
0,0847023963748341
0,0862174232614092
0,0881681314671807
0,0890701219305519
0,0839499614840388
0,087661911368186
0,0868866125978566
0,0881251460916021
0,0831461497486796
0,0847641926696572
0,0819251330043397
0,0858417637356546
0,0853956521877673
0,0852365019716161
0,0845729155617633
0,0873495537241452
0,0836939363289823
0,0838013384251863
0,0802532403282228
0,0868397720174407
0,0837355679398165
0,0824485103484021
0,0794189148436888
0,0828344086008764
0,0811488002283426
0,0840950573811588
0,0811452114844634
0,0847198237805895
0,0790788671435342
0,0777812958019824
0,0798066936009341
0,0822974888658069
0,0810939009552818
0,0817980344140365
0,0774765520764155
0,080285539818874
0,0786355267552896
0,0802001492639966
0,0737585070328231
0,0814263446288831
0,0798085823336675
0,080315777733507
0,0785450108673608
0,0779058404439026
0,0755282101375827
0,0766064199124771
0,0765357369191441
0,0785697734770176
0,0742434137519871
0,0763699841062893
0,0733548563824404
0,0793247760744429
0,0755228208206797
0,0772886955992527
0,0727846352988651
0,0759674250782819
0,07298060568539
0,0756951698055114
0,0741452147555034
0,0766052664204764
0,072284588292743
0,077334255228623
0,072065939453022
0,0727968698878577
0,0723087198238976
0,0735799811080423
0,0720267948484596
0,0761168228864615
0,0716933890888739
0,0717618262520586
0,0720780464233656
0,0765433845896282
0,0716878214977867
0,0735677458227809
0,0710797644983251
0,0701160417108945
0,0666329384256003
0,0728287620673039
0,068323530579946
0,0729753890016886
0,0698431179066676
0,07119583762948
0,073251371556727
0,0709227390874503
0,0650100409846703
0,0690648416544465
0,0672917266802894
0,0662368357204473
0,0650859080154869
0,0661573515151685
0,0623538734979305
0,0665311699001186
0,0634475986232444
0,0645554912201563
0,0620171617773517
0,0648059260370546
0,0660492195204808
0,0701803233048294
0,0647832077985133
0,065532896535458
0,0634325789922526
0,0626808622975157
0,0598408666325043
0,0645178965517705
0,0609560957825353
0,0654349565756386
0,0607098950494645
0,060218837347263
0,0584184458499275
0,0642858183496603
0,0644449603744644
0,0637374383006399
0,0604310659664407
0,0598328248259526
0,059797384084588
0,0665049453660858
0,0624655480292625
0,0609332444592844
0,0587140328856571
0,0618790836954635
0,0601596322480554
0,0593813674483981
0,0568102119593103
0,0613831984669657
0,0581986752812567
0,0617313213581843
0,0541989751130029
0,0595559110651594
0,0593404691028502
0,0617315745683276
0,0551529979152273
0,059601228796433
0,0590299311560374
0,058973754307423
0,0588011709277931
0,0593027278806284
0,0557147551162952
0,0582339584025573
0,0582607428348072
0,0596412731942562
0,0566316868045169
0,0588054757321138
0,0572989136065876
0,0564952959006767
0,0537867890126522
0,0594024456250442
0,0572364005517399
0,0572316105462004
0,0540676722893205
0,0573181365798512
0,055438170229354
0,0537984488543271
0,0531316247387226
0,055877041482992
0,0526451866124747
0,0519882715519549
0,0535777561891026
0,0578872549263033
0,053760732680262
0,0545853280633056
0,0488965095509628
0,0540805785243982
0,0540863270601631
0,0525167776108933
0,0519342054295405
0,0529260956229682
0,0506567301690387
0,0557048888206922
0,0514137346146998
0,0546144899044299
0,0519865909394965
0,0508288454410221
0,0528473601919257
0,0530243471244153
0,0496795789850041
0,0543717657812875
0,052741351325273
0,0538435426767876
0,0513151263313664
0,0537853383595995
0,0506532473396072
0,0545457041116249
0,0505265892431499
0,0514446943652193
0,0504559200639295
0,0530232891282002
0,0511798488651831
0,0540336400379291
0,0499980589186355
0,0527382480962108
0,052660359950492
0,0547359978940837
0,0498464368912051
0,0530774395411332
0,0494487250987122
0,0521902525301107
0,0495727029908285
0,0497720101445013
0,0499348746329887
0,0537401301395312
0,0498042809408071
0,0544091729825487
0,0518398574564226
0,050021754078913
0,0480024600507971
0,0505345244871647
0,0497474272586134
0,051356800034614
0,0476724573820061
0,0489542012815529
0,0477397256871159
0,0501322130450171
0,0467558993713106
0,0469916627055686
0,0485766992713094
0,0489699826320485
0,0470861452308592
0,0486030325877203
0,0448637535293136
0,0516785276568477
0,0459107305634957
0,0507390323586247
0,0474403844667544
0,0490130660497057
0,0484159495889001
0,0497671029356429
0,0471207714995229
0,0496733404958757
0,0493672405292955
0,0486324553130954
0,0458971242259901
0,0464063199269369
0,0454631585125665
0,0481563499299692
0,0438493764481406
0,0480348851143227
0,0454645734699436
0,0456349981393674
0,0435674130656649
0,0456226037799597
0,0466536358165213
0,0481223355849041
0,0441737261486375
0,0474381476364515
0,0467939589227452
0,0479781366980049
0,0458554128943375
0,0485998446891575
0,0468524531491108
0,0469368162518748
0,044345233351502
0,0471662773608885
0,0460612816620125
0,0443538176181139
0,0440623456004039
0,0480126364876484
0,0426589908093232
0,0459888690895393
0,044273860036421
0,0466192833503106
0,0430962204428011
0,0435350803350059
0,0435509301151982
0,0448501798217868
0,0426639445768299
0,0471298926513321
0,0435401524714847
0,0434001192862334
0,04196026089676
0,0425367696543171
0,0420119938811559
0,0417561272521588
0,0408540244354968
0,0453788702013821
0,0406457386347821
0,0427442883666766
0,0415531683485053
0,0422302197221173
0,0422937825283448
0,0448821701535108
0,040433270911912
0,0405744814548567
0,0415795398791807
0,0428110203109696
0,0403073986736489
0,0412042532375365
0,0402329826137748
0,0423154795256811
0,0399424983633321
0,0425489525804409
0,0416632412121766
0,0398810502951796
0,0379235865554012
0,0420040760869463
0,0380810608681906
0,0407749096575978
0,0375996355779336
0,0418338639675378
0,0396917797010005
0,0399964451128391
0,0385728676024569
0,0404390655558027
0,0412741433447823
0,0405088160598894
0,0378833518142534
0,0395222727648909
0,0371348409077502
0,0403140109248159
0,0370213855800819
0,0425299985579515
0,0369566092261416
0,0382343586040607
0,037092474639372
0,0373367211966219
0,0390539686099157
0,0405312349897852
0,0378230427531948
0,0380887929454007
0,036402291943079
0,0395496120245871
0,0370619707053291
0,040699211443144
0,0367683240658631
0,0383196904582322
0,0371037008521488
0,039172828554636
0,0353883183525491
0,0368297405427511
0,0351686080862098
0,0342882832621688
0,0375279517341881
0,0373480359575799
0,0359960532941416
0,0388337223960136
0,0334750561112368
0,0353704975685752
0,0345700467440779
0,0375516957875267
0,0344565347422651
0,0357608226808969
0,0345642454216877
0,035321653969144
0,0332021617054673
0,0350108039932245
0,0342279950019049
0,0389172667935027
0,0323150142800989
0,0342333469013452
0,0334098100240598
0,037761821190746
0,0342372465389829
0,0366399058085026
0,0348614762148642
0,0348705523290223
0,034407455649954
0,0356982560194347
0,033850103800413
0,0329896485451978
0,0309377153814344
0,0337372728767403
0,0356697502927784
0,0355127290800388
0,0358530552938168
0,0363710638376053
0,0364892843386622
0,0353429322473925
0,0341645599267847
0,0372932073678504
0,0389677535546813
0,0398844415297365
0,0384469701705995
0,037692276017252
0,0393507018135545
0,0378121486108973
0,0370819146371633
0,0369566789600859
0,0327544220281155
0,0354234632549739
0,035025514865676
0,0342179651427606
0,0289853489994489
0,0332708146952239
0,0296643937014068
0,0356481070578233
0,0352404198666476
0,0288706511420893
0,0336097952660128
0,0312244064822142
0,0282580463769513
0,0322695052846972
0,0348439419023706
0,0281521766138931
0,0297229639781328
0,0317760280153771
0,033307298244883
0,0328674804564743
0,0332435172476976
0,0327371869411945
0,0347883086662283
0,0326004185848038
0,0389863007129326
0,0306821471001147
0,0336840322003695
0,025670338221881
0,0336635251572565
0,0268017534777513
0,0340547499184581
0,0271725112946725
0,0377159415322886
0,0267699434954615
0,0317940104071432
0,0257713272934852
0,0330068332680289
0,0258920520582016
0,0334778744158035
0,0289651417294612
0,034560539724914
0,0296537928057845
0,0346370406977301
0,0299399977077857
0,0318235602403762
0,0292046553692757
0,026143918694816
0,03828159719719
0,0306405241604354
0,0378083112290384
0,0252055289461667
0,0454563253366802
0,021149725929502
0,0527394158763283
0,0193113279711179
0,0558351000794032
0,0157440761610111
0,0559643618059711
0,0122505162871128
0,0580268272410494
0,0112021032232476
0,0531303856893577
0,0132375877415647
0,0502390311366242
0,0200069077932327
0,0464316658251195
0,0211430675333816
0,0392288376814167
0,0302238844405263
0,0358232065490305
0,0308466525883342
0,0378770583344242
0,0311268905271844
0,0366176749722762
0,0298010814587082
0,0356704397463361
0,0247075419748557
0,0359003725941468
0,0259645053021525
0,03621723724787
0,0272959282164897
0,0351017589933635
0,0278894931347195
0,0336372094168404
0,0286534839443467
0,0335858114312629
0,0235800440330429
0,0329220360471225
0,0249723732769896
0,0324801200025052
0,0277395363786467
0,0299687234358064
0,0264828162050561
0,0321180816463453
0,0264452373085524
0,0319703443494594
0,026455560561001
0,0321055165180733
0,0265624291247531
0,0304547258413482
0,0261057591546748
0,0327367043946679
0,0256587563418648
0,0327909182130021
0,0250410726131091
0,0314647508767453
0,0264103653182936
0,0343376126528245
0,02692400781611
0,0328839682651285
0,0256686903590811
0,0319695426270361
0,0260786671949937
0,0313977754214408
0,0246345727413957
0,0324830762384448
0,0268264028201128
0,0315008213770871
0,026701333748402
0,0322410006859183
0,0255386121778043
0,0313003945831855
0,0255719592938463
0,0308190541200876
0,0279872345356128
0,0329630126923512
0,0273794786536359
0,0304318142364511
0,0262274957720302
0,0327745731525731
0,0272307435258633
0,0315950273896187
0,0276331825757049
0,0293072877704382
0,028098836356389
0,0307475593675346
0,027888086339896
0,0308932931644472
0,0243836425707791
0,0313360815446721
0,0266412974083225
0,0298642106428675
0,0264655072686043
0,030704071999246
0,0252507074244068
0,0294303031184123
0,0262570351491079
0,0302724642447826
0,0241865041559223
0,0311724731016741
0,0277401701001143
0,0304884988881522
0,0267068859797703
0,0303858954267209
0,0267969306395083
0,0310291959654698
0,0275238035959672
0,0308657873871536
0,0258859117048629
0,0321818128308842
0,0267674644478157
0,0315818421619273
0,0275035260279393
0,0300461190542474
0,028236017271283
0,0301181064117396
0,0273073669304268
0,0312321737355446
0,0243838938411502
0,0294760428851631
0,0255324878475154
0,0319530219152169
0,0246684354353424
0,0306235761941536
0,0264618271277697
0,0313898229526358
0,0268708469636714
0,0306787873945392
0,0296429302649614
0,0292178697491102
0,0247868162970048
0,0315987733980684
0,0259112787407103
0,0306606089048963
0,0273197916620222
0,031462857342241
0,0266465608343925
0,0313945096303662
0,0280919203650294
0,0282442454783855
0,0256253395879119
0,0308691186766431
0,0263391933601789
0,0297957235588591
0,0272065468988277
0,0309611818657412
0,0275266216933593
0,0301017820253387
0,0262984021948558
0,0310928161414783
0,0260916214574969
0,0314863198339179
0,0271300653441695
0,030917303142921
0,0256464939400751
0,0293943730722064
0,0286980845941739
0,0275891851817948
0,0249317142914745
0,0305478164372171
0,0271801408133041
0,0310485146158276
0,0254400574934157
0,0312534621917163
0,0265661271007534
0,0312003342055613
0,0251337784833039
0,0312897138337106
0,0274938567651354
0,0297775611333731
0,0272394207459846
0,0300915714489109
0,0241836358102272
0,0315074002275006
0,0259104067059809
0,0306601061859108
0,0295938793644354
0,0322705394221987
0,0279779105153545
0,0332238291413058
0,0272388449676604
0,0299867676641132
0,0280670361190808
0,0305212121882833
0,0273059340719721
0,0305137552638339
0,026572842279763
0,0308073579177921
0,0293748567974562
0,0297914686017565
0,0296945513985132
0,0318714752967384
0,0263058607223816
0,0302604191189927
0,0263833911919483
0,0309224412917112
0,0265444264290322
0,0318439161726524
0,025691634760308
0,0299324800732243
0,0267673168900077
0,0295418132876425
0,0242395114507367
0,0291148398759341
0,0246723757907275
0,0316507313649374
0,0263878005576731
0,0306611907948077
0,0277668306425034
0,0278738690753878
0,0257576156233315
0,0298606033736812
0,0264444213948335
0,0298568506214122
0,024487302665278
0,0295531399890747
0,0259112323574552
0,0290237835683997
0,0270723611847751
0,0311601002180907
0,0251875533895574
0,0272501943438521
0,0241345801922833
0,0282706000513014
0,0264045524612257
0,0289977412809698
0,0270275581452163
0,0290252902115722
0,0233297465059783
0,0291627918055323
0,0259368079517366
0,0277292064284408
0,0257724726623249
0,0279490516262252
0,0259241157271468
0,0284311549670661
0,0267283127377869
0,0297939293807926
0,0272922023884819
0,0273500955898924
0,0261046496888643
0,0289371756399353
0,0242236167750082
0,0293240403284648
0,0264340173618552
0,0298065761835742
0,0263473213776151
0,0285451366326574
0,023869715511238
0,0297009399004639
0,0272379632108167
0,0285299025392406
0,0237985756183306
0,0279739655973364
0,0261716416340327
0,0301223239241491
0,0243868434282556
0,0296605189610995
0,0240964679427948
0,0284517772696713
0,0264549591586458
0,0279881759650064
0,0261657689908406
0,0301807601027663
0,0249719476562985
0,0260680052511895
0,0225995413319141
0,0276591710055983
0,023327209288618
0,0274572119621785
0,0243704421405454
0,0295405121867996
0,0249836572735614
0,028405463979479
0,0244130318238902
0,0294784086305403
0,0255721888678839
0,0292082083580727
0,0244114941932735
0,0279245712364914
0,0281348421881905
0,030065704169863
0,0223872194737011
0,0268841260784629
0,0240292325541903
0,026648644111988
0,024529306085939
0,0283661034728506
0,0250488104290437
0,025348162365431
0,0236704046550336
0,0307948215639998
0,026397491449109
0,0287458912996265
0,023713405222601
0,0295504817485079
0,0239814239429506
0,0280260108569626
0,0243364532340407
0,0292412321807461
0,0219601137976703
0,026712250577659
0,0239086567103431
0,027384570383522
0,0238313520241676
0,0296488859611455
0,0246374675562975
0,0283504236734228
0,0246035105048766
0,0290424555875004
0,0227729248281013
0,0264151375105148
0,0241888963929068
0,0269523367044992
0,0227446290199908
0,0273343801541271
0,021365881595544
0,0285866181034548
0,0239271090833802
0,0258280120815274
0,0232493524148015
0,0270331098510232
0,023182409264596
0,0273656377792441
0,0231270037186239
0,0269822901533929
0,0218841492798361
0,0257206261471777
0,020894076103448
0,0258209769412761
0,0241428891434532
0,0289954875923518
0,0279211555372753
0,0263215992382715
0,0239584566710827
0,0240959287440624
0,0224486125410709
0,0264649785148295
0,0223715498995947
0,025849962846872
0,0210621122674939
0,0249813530939642
0,0232467459287386
0,0249160993745515
0,0231692381328004
0,0239065035581469
0,0236068356523706
0,0269272828279896
0,0213031659047551
0,0244652919517831
0,0227884164282626
0,0243393332177767
0,0237007501757305
0,0244969881928108
0,0218429419845592
0,0220441261362742
0,024906733463883
0,0219450903693513
0,0249438282547083
0,0326488679602992
0,0242186947751236
0,0234251148271621
0,0242359014574288
0,0271637411286
0,0212555081315277
0,0273254874451021
0,0219981459884881
0,0255347016509902
0,0193960995111385
0,0257000610857186
0,0206242611156513
0,0249108458630528
0,020007629910912
0,0247061770939159
0,0209187858808353
0,0240918153751793
0,0211729733438508
0,0250261642172417
0,0220654645538134
0,0232057137239445
0,0220178223666919
0,0241129950024502
0,0230141990700102
0,0244194275784684
0,0195497591515261
0,0309908779584977
0,0233624968434851
0,0273356875639219
0,020678934412595
0,025302600212354
0,0228481168380521
0,0262132228847857
0,0228454534055637
0,0243594577772442
0,0210010010370444
0,0241865770092824
0,0201385805930486
0,0225714326703348
0,0212133633793072
0,0259315887057746
0,0197577386309062
0,0234011945519268
0,018932836170894
0,0266709526934341
0,0211537804030283
0,0248565312604128
0,0174808252435165
0,0241236707029182
0,0197709600409039
0,0273588087838305
0,0148774065904447
0,0299222296638441
0,0348815007912275
0,0282982076389728
0,0217231838266133
0,0216191519250569
0,0187099484684774
0,0217366570357267
0,0204163758829524
0,0220103934584111
0,0212474158826553
0,0251971390859032
0,0220935945555992
0,0224579984885534
0,0215498396494234
0,023479274619329
0,02119386696497
0,0202147644305929
0,0200535845235141
0,0228064708272079
0,0215666395215072
0,0208057398708707
0,024134053710697
0,0379204159188289
0,0242578437508899
0,0245398843483254
0,0212422805518422
0,0204058029728141
0,0384165367068699
0,0297368786453292
0,0212093552685354
0,0215316281705143
0,021883798888227
0,0223301976087583
0,0223299800352201
0,0210235253175023
0,0240594434536796
0,0281493267672792
0,0225532033732099
0,0275963116150801
0,0221907574307873
0,0229289212862097
0,0204931521103595
0,0238862059757835
0,0196124829498185
0,0223597652524161
0,0204013382870091
0,0215615390376819
0,0185908513710469
0,0200040898505581
0,0217582523856213
0,0216582726981317
0,023909137960179
0,0277517914212141
0,0194098591852692
0,0209844172594459
0,0216852923980748
0,0185948348718859
0,0267861506624277
0,0403641651043957
0,0201897061575336
0,0242724572031048
0,0158409804236049
0,0246403170381443
0,021361746084617
0,0240286682729736
0,0213614294306283
0,0238862329048605
0,0194626623156581
0,0242923298946439
0,0224007357527049
0,0217624695191504
0,0185922109995829
0,0234765806702801
0,0166030665224384
0,0238953465413812
0,0205206813177861
0,0207584576066157
0,0244282153505962
0,0233954456831838
0,0340043702899584
0,0451466675787759
0,0299421178834554
0,0346736261795573
0,0255520204683025
0,0253933129895903
0,0211199387389811
0,0214623984792691
0,0191364644644727
0,0255613936808217
0,0190639793478656
0,0221306053679501
0,019833388898122
0,0235590896699693
0,020794423615771
0,0226105907575329
0,0171298090600185
0,0248460144955304
0,0180529015954323
0,0240159299469872
0,0180512597497489
0,0246808748254045
0,0144935263753174
0,0312614537786522
0,0235831116221566
0,0274713427216839
0,0164148603688413
0,0529220650515135
0,0398808585240246
0,0303088207915038
0,0256208119694609
0,022811593783504
0,0219739684164516
0,0232120419599672
0,0195673077535824
0,0302664390021409
0,0216220457722674
0,0233778821971672
0,0212745446674074
0,0255572281342282
0,0224777524708835
0,018291161461739
0,0274600295544995
0,0495060268444671
0,0304299854242687
0,0298890803655287
0,0165112219104577
0,0281468913686549
0,0456046440724798
0,0272693187003792
0,0274161751296234
0,0256434567648327
0,0197942902930484
0,022711888979024
0,0205018313685113
0,0235911801401318
0,0254798822591891
0,0278673645431733
0,0187544253370632
0,0269294644081514
0,0191000238746321
0,0294650784247826
0,0226885737377974
0,0347020398074998
0,0302677473708075
0,0227665334938676
0,0263414200890379
0,0279633055949462
0,0201789727354212
0,0263942436930852
0,0207829818081375
0,0253497315007521
0,0324051534241617
0,0381699176561056
0,0249905028041913
0,0367393601216195
0,0305135562458497
0,0233665774372031
0,0273581291172226
0,030984476533447
0,031647023329388
0,0202668271968838
0,0322280770432866
0,0513460843627275
0,0367159529125388
0,0480346633095851
0,021889967464994
0,0277331376838621
0,021440263855721
0,0247517023403598
0,0198086941200884
0,0410366133468128
0,0249891509856224
0,0275805364645253
0,019821823218161
0,0375542965552731
0,0315895702498215
0,0325654274795113
0,0246995458508635
0,02570523341207
0,0227048835350817
0,0391284155139098
0,0291641410749304
0,0222214684754295
0,0520104470546873
0,0545724184128366
0,0447901338376794
0,034183566710301
0,0255919031252807
0,0648579773418188
0,0291209533800938
0,0303616297154513
0,0244529891690455
0,0298012749376283
0,0195946185669437
0,0296283627874715
0,0527378054849248
0,0393868690252645
0,0235097604237548
0,0340882611187975
0,0208100092112185
0,0553222366441665
0,0372420160217559
0,0300083816168301
0,02660218354792
0,033944903059653
0,0173508335054447
0,0692593463388111
0,0447938884743793
0,0421993319135474
0,0522492621745471
0,0498977594452298
0,0429744886667594
0,0385779193390266
0,0316693739810885
0,0457048626420285
0,0495290988917583
0,0359234921260466
0,0243663402357399
0,0518290668412561
0,056150722495207
0,0350586602886982
0,040539476746413
0,0321659601831326
0,0280459499462277
0,0710746408465177
0,0861112120183693
0,0645732564014523
0,0373056942837368
0,0373710968286893
0,0607689217854095
0,0395785916991503
0,0352990117982997
0,0353920932872456
0,0330743643267793
0,0353167854589267
0,0362551201361807
0,0488931007929847
0,0371060054989158
0,0419682356134835
0,0365833681329559
0,0355157415080859
0,0532454043898897
0,0943361851385062
0,0783500399443482
0,0555020793789655
0,0801430968263768
0,0678475837774587
0,0504565106511307
0,0440333485363173
0,0406853496027878
0,0557724780840635
0,0454929769920438
0,0472978434058852
0,0419263470424713
0,0713896311748123
0,059966493470193
0,0582027042612692
0,0702865760680278
0,052326579464147
0,0531169387506568
0,0576640855335366
0,214254072983481
0,0868330292000001
0,070985558331684
0,0689927936465811
0,0650310896566794
0,13153340715466
0,0759378239655348
0,0683053216278814
0,0669801764363168
0,0643793981393131
0,0711550587823588
0,0834384898841169
0,0797800058194191
0,09390656741065
0,0798962370479856
0,0796018302914216
0,0922559153870343
0,167592395467702
0,141616897254108
0,114260595226907
0,0927076964992147
0,115158047881977
0,112168996644628
0,101951962770176
0,102768216156687
0,102331368472019
0,108557342893212
0,158284810892995
0,117920816821546
0,116328243822326
0,120228661164436
0,145303383021858
0,11676945596045
0,165567613917449
0,157193080016796
0,133487048793822
0,128409555398404
0,128930581401538
0,134189469365358
0,135070290731005
0,168326018142464
0,156254331356524
0,14295184723999
0,148113800503388
0,140818612727362
0,149122064908018
0,144991502004713
0,153307630909316
0,151680404385441
0,194231635095153
0,174927867190167
0,27873916000365
0,191168514662684
0,163362524520886
0,161427115670763
0,154015691916127
0,192193522097291
0,185272666374898
0,190667107241113
0,189933280349747
0,152844934213566
0,160562691043842
0,159354993093905
0,159962155137922
0,153622942897787
0,161657062140874
0,151373826132457
0,175699411202572
0,159755937291031
0,180999983358988
0,224861551737986
0,165721159516849
0,152093396472804
0,151025943380487
0,149100933711464
0,150922349386849
0,147521242212289
0,151162024024783
0,166133567657778
0,148512820540338
0,144176380831323
0,140892518416447
0,160481882709193
0,173158203518301
0,137269969538008
0,146100172649274
0,13706359035575
0,138882956897055
0,131326497641433
0,143575091403015
0,183330428868013
0,140728964594351
0,128310936512465
0,13249874435908
0,125196279684075
0,131777219132145
0,119186528676655
0,133909991142523
0,127795567515839
0,122405972054287
0,127352159587187
0,123871597034364
0,117338571740149
0,123146519603957
0,122742428147322
0,124914670990158
0,118158317257262
0,124431711798356
0,116866591042086
0,121297385018118
0,114232861619539
0,1220414032106
0,119986032354728
0,12004305851594
0,12133537978207
0,118071648747235
0,117928730071397
0,118319919223416
0,116458002831819
0,123324836759844
0,111887263445477
0,116955197900712
0,113820371352286
0,118451998389252
0,113236070342469
0,115595277553748
0,110633880751457
0,118706163382359
0,113928601160975
0,117712006020208
0,107931173558778
0,120978707255866
0,116381576591825
0,157612550069934
0,145584795819349
0,113571509750969
0,119864965937417
0,112736311205216
0,114037253983849
0,107043147170391
0,139628086704174
0,143338901843566
0,112126913804411
0,113402175671643
0,108492666488503
0,122575433453506
0,119714130975966
0,107179188252427
0,111177858701591
0,105384106173687
0,129420983401483
0,202751963550645
0,156729518713713
0,202410864360875
0,127180242634412
0,111107937671999
0,107914268626091
0,150631303174463
0,108849379277781
0,109771054439735
0,107138475278588
0,139213909283293
0,125357745719289
0,104573683388614
0,108166903735562
0,105099374807416
0,117761886156858
0,137845740087644
0,119084414276481
0,12344187421308
0,154088229956861
0,127963795421147
0,148084081331895
0,177965234151818
0,136015155084411
0,102987061619081
0,101866939336227
0,107058711366702
0,106941702943471
0,152899674027619
0,11315966800993
0,109718424724213
0,0990435647370763
0,0905491540318313
0,102237580983857
0,117714527417019
0,111421685123679
0,101186681611365
0,127308523224824
0,100952904357912
0,096875987147577
0,12609309402075
0,124577216869527
0,153369853401479
0,100921526669421
0,0927740990167139
0,112260752438334
0,13728893698172
0,0964947450592265
0,10838503713216
0,0831030950203918
0,0843038399618697
0,103415909751746
0,0894180594826758
0,0960387606652423
0,104070166546916
0,105980188510252
0,14444373120066
0,152184082767486
0,1362175769597
0,092837574482276
0,0768576421502159
0,0768967828822452
0,084508210927609
0,0764495830759981
0,079452645897844
0,087238617733564
0,0950145266742901
0,0729031825288413
0,120986047792617
0,0880263895224119
0,0737676324838371
0,0757872035768818
0,0745922277042243
0,0826702042891337
0,112327933320754
0,113162013386517
0,104552877352467
0,0806120646867246
0,108894663831812
0,0818995659025464
0,0892680044052575
0,0806089818785336
0,0881951527127499
0,0822993382322327
0,0953343963349745
0,0920148666735987
0,0933531523631136
0,0905743939754778
0,0982713318950964
0,106351772851712
0,133828842210677
0,101303333208919
0,121159116518305
0,136998139781342
0,145677754505284
0,13020653148641
0,105771077594005
0,114920754335441
0,1174929441701
0,117507408851094
0,124420725895968
0,123729002415159
0,15649949278924
0,127557714912098
0,128737540975678
0,129325039806241
0,128530414315991
0,141408930051677
0,155296168613867
0,168176217873678
0,174435458227952
0,199830738857371
0,153708432334796
0,148808358584572
0,138773657792968
0,145382336980688
0,151062480075061
0,13623729675295
0,143777174495257
0,14123272430533
0,16282139317566
0,148699072991808
0,145495154598024
0,149543933978169
0,147095861054937
0,147849272940641
0,148287831236772
0,146756821614616
0,151189876961575
0,147874075470631
0,152939003814891
0,146581550822079
0,211970502063764
0,183101951962169
0,152209892195095
0,164213106183101
0,158187998152497
0,16437794271075
0,159933722628105
0,169531135255465
0,174997034708388
0,163685551333874
0,163939323109791
0,162258237152315
0,166611197688866
0,186110460550896
0,190563509814382
0,171640568301636
0,169148780569587
0,175272727302867
0,172994892623201
0,228946915059874
0,18636719254515
0,191007350757659
0,182996077489595
0,179226046184149
0,175016662733106
0,173082995970899
0,181051870259258
0,178616506052389
0,180832815756324
0,179215433462443
0,181078850254512
0,17549801444665
0,177631766139133
0,179631598802771
0,195680022400068
0,181249333079145
0,173278422707349
0,176542503544938
0,171739199834706
0,176775104721408
0,190228676627065
0,19607517753582
0,177160483694599
0,180980488929934
0,182653496526133
0,19306448990177
0,186423431125627
0,172138080260741
0,171866660138492
0,174942308506106
0,170217331611818
0,174726208303989
0,174228251276493
0,200435602242799
0,18299734725477
0,174328324037411
0,174278567501625
0,176350290296205
0,175346218143094
0,175064076992752
0,178127711299228
0,177165008802012
0,178943022589411
0,182485856903736
0,180922328815897
0,173714511357228
0,192108639218698
0,187402687017035
0,188966962929201
0,179519064770213
0,172261927148204
0,173739428935357
0,173045814223948
0,183831886365699
0,170656706810208
0,169344835272324
0,166399940078337
0,165625585000009
0,167163757424496
0,187377095784446
0,17684654099407
0,166302284992056
0,170431472292729
0,151215867526831
0,162374073942577
0,152832214176079
0,15768041228851
0,152290264917305
0,158643735933336
0,152249653732104
0,152609877886563
0,150471638342951
0,152429141581613
0,147064936518283
0,152417035492701
0,148398435888004
0,147635259249321
0,146606793525181
0,149242408392214
0,14728728826727
0,146847011656461
0,145649226716964
0,150257956251791
0,155290548509956
0,167294017784258
0,156422735282431
0,154853487165025
0,147567546162458
0,153812016547831
0,142302097724647
0,148242283223173
0,142439857516886
0,147626465392534
0,14295862651464
0,146246448906454
0,144095324223945
0,145128604530438
0,142029419786031
0,143911482513109
0,141207457614208
0,143191124366839
0,143677830142408
0,141685633567968
0,143419148889182
0,143202356744704
0,144661131529931
0,150957008372461
0,147650640486388
0,144725992759129
0,1460918005488
0,142974653009703
0,143020070475372
0,145221114744176
0,145836262786186
0,145954703408659
0,138561336145738
0,141017798912734
0,138588804766869
0,14192857954937
0,139552714817189
0,139904184026388
0,138432815963903
0,138604320023565
0,136499770358016
0,136130098854748
0,135718078687457
0,136566287411088
0,131230472158864
0,131986947721444
0,131059288965936
0,132250527785387
0,129667486412835
0,126446865396965
0,126928307894722
0,12664930339817
0,126535567437624
0,126956044009792
0,125056075843528
0,123087374124485
0,125250395217876
0,12617213028796
0,122374786300141
0,121035270333819
0,123036391028982
0,122006190813872
0,12322747739928
0,12311973710409
0,119983678666255
0,119989971042441
0,121158519757138
0,120182035036735
0,11987359588105
0,121371510863123
0,123388485120571
0,124490075098518
0,121334724416048
0,122518317624428
0,123506779142301
0,12415985889873
0,124929556286604
0,12768164160978
0,126848704368451
0,127573614708239
0,128285377116448
0,128014489949068
0,128490592863072
0,129093674685564
0,127650449577337
0,131455130280812
0,129251210874848
0,131966990211255
0,129684977146325
0,13361068954644
0,130972595747728
0,131190617096897
0,128375720836895
0,12795706456332
0,129212978213474
0,129841883398608
0,129350800884789
0,129149185082639
0,127183844528223
0,127996959744543
0,127972280864728
0,130152423070046
0,12676942415286
0,127009545837478
0,127438285217609
0,126400090482918
0,126449921816594
0,126707501967927
0,126323536585286
0,126589392462413
0,124180885165777
0,124539978663311
0,124505971261506
0,12286341259997
0,122535853034675
0,124583148602055
0,121447526224816
0,121713460016738
0,121928592333982
0,123906041502684
0,12088583329769
0,120693627129799
0,118587295853169
0,11995311504685
0,118252132522555
0,120227882784849
0,116503615043715
0,117433171430006
0,116609699830618
0,115950965805341
0,114699740687372
0,115574747045839
0,114496252874977
0,114569779609336
0,113776109868712
0,111195617097115
0,110580260296291
0,1104318749773
0,111121428584987
0,111889860227715
0,108144099213383
0,107413669976399
0,107170363903184
0,107998062636449
0,108731020858379
0,107045882203242
0,105359906857088
0,106825071211667
0,105779840172597
0,107141622307026
0,104597307252516
0,103631898636012
0,104489073754376
0,104477569197915
0,104438624843405
0,1039589469356
0,103379862154928
0,10321509767084
0,100866100796621
0,101278611243968
0,101095739509283
0,0984913577927213
0,0977843686644534
0,0965787053615422
0,0951320826713115
0,0981063147891271
0,097156111655845
0,0965046889075513
0,0976508066256075
0,0987032843964024
0,0998149049116273
0,103764907213627
0,104817668996303
0,10986983123551
0,113552067035912
0,118576241114819
0,123346012921974
0,128750211793494
0,134184971759359
0,139649753835929
0,144688381237683
0,151230925808095
0,155559650575212
0,162052076892992
0,167568817971032
0,173563279759986
0,181096663460547
0,186017066376869
0,191899659967297
0,198191476365907
0,2025225420239
0,206850237952107
0,212698690002845
0,218809940257241
0,222546505713052
0,226723259964192
0,228251809173565
0,234179010418234
0,238302999342717
0,241513365270002
0,243730767040346
0,245977806183449
0,245884479560166
0,248829392555489
0,250511079237649
0,250172464863712
0,25019206564492
0,2503487687215
0,251792567038762
0,251120042301753
0,249163386000366
0,252076366575849
0,252669644861068
0,25022052983658
0,248979963165852
0,252780761216991
0,250873073333185
0,252871892048471
0,254884122720613
0,254310515400422
0,254531188273992
0,259538993994494
0,258587435374549
0,26212592631485
0,264727771871792
0,266212478400861
0,266962620847125
0,273282077718526
0,275779027023576
0,278821177096354
0,283913087434315
0,285805522164801
0,289810951045493
0,295840672730659
0,298405037500865
0,302539340566266
0,307032172560057
0,308243007160666
0,310350401045232
0,315012330783417
0,313912995545331
0,317171956425615
0,317860982525618
0,317248061759789
0,317907982458043
0,317943874812013
0,316424189739011
0,319189723051586
0,31629538223414
0,313683120890419
0,314841985075028
0,315847241167676
0,318640837563493
0,32243575733343
0,321976113866391
0,326212775544002
0,331854696719207
0,33904981292199
0,344515513531771
0,352033185850371
0,355844976427773
0,361521163106091
0,366508664693833
0,373331260538711
0,37969935307558
0,386971645075513
0,393565026051252
0,399594842896685
0,405583998880555
0,412908217582621
0,419802483019994
0,425387599944184
0,434769636191794
0,443639008602516
0,450845382169174
0,457211657384053
0,462998950603848
0,479317138947274
0,488161975882179
0,489031446741984
0,498557849724185
0,507802895156989
0,508903645085618
0,515010709498017
0,520662472413334
0,528299046895805
0,529349582185248
0,527286364069388
0,532756429588588
0,533387214554713
0,534290998036461
0,534740009363161
0,530854165049296
0,531723852099567
0,530050147812142
0,524659966029424
0,51994124937299
0,517939845908723
0,518001294172413
0,517597685693817
0,512775939429757
0,507244630835937
0,507324368811548
0,503057493378922
0,506301614801232
0,509334109029453
0,514594927348343
0,516569077756738
0,514153279679619
0,519081614994137
0,525523418131899
0,528281199330387
0,531423274636477
0,536650481486604
0,537963055265019
0,537916588715554
0,542945010509194
0,54678966244269
0,545014965427988
0,551057581825533
0,552158152785167
0,551996379756946
0,554446671718073
0,553381209325127
0,553999304439959
0,553126784736419
0,554198578344245
0,553063617145005
0,548188469475986
0,542141780117568
0,546247144308732
0,545542670511956
0,534077986677864
0,53550415968387
0,535745331668596
0,529473577830264
0,526346109521114
0,51893815555503
0,51786797085626
0,51619939192736
0,506097787301672
0,50641298511688
0,50615110663105
0,496903464886618
0,487854386976874
0,477971012716419
0,469257629466674
0,459482878109024
0,447236030559809
0,43792853666942
0,424650250171913
0,409997616886293
0,399892255465731
0,382843359057017
0,367537007942193
0,355310480302952
0,337081209687047
0,32415934045666
0,314242075625205
0,301029534574292
0,292784181404193
0,285833259448942
0,276770804127652
0,27165056458671
0,267899991238411
0,265047261737772
0,260032928544287
0,257112571652446
0,256000140819824
0,252919588400382
0,24779281716786
0,241612152085995
0,238161627186547
0,237714513471127
0,233053064626776
0,227310412107015
0,22455759976409
0,219079219848523
0,214380750054465
0,209924271507905
0,203508608129237
0,197358526244494
0,189628929913829
0,186037673319424
0,178135453907478
0,169157991559648
0,165340859430967
0,159443190783359
0,153116292824678
0,144973479179082
0,138674516395402
0,133427928463912
0,126303463644986
0,118829522593283
0,115776206331511
0,109246158548772
0,105558245447192
0,101660370270789
0,0958174062415712
0,0942568773041662
0,0905042775772519
0,0863271079935149
0,0835004762734614
0,0797575013432985
0,079741227194202
0,0765372430254708
0,0779379148705046
0,0756394146518311
0,0724617085771425
0,0752102793775594
0,0694188722079575
0,0706063885014413
0,0707651283305853
0,0683522528104962
0,0726415796811635
0,0708779261795655
0,0727243630082705
0,0747894008407607
0,0737793346360403
0,0727545865823981
0,0755719808363985
0,0746317707588086
0,0738846327809261
0,0790081789143544
0,0763443919875894
0,0742941977276968
0,0743770291600164
0,0760308417597278
0,0739922812287527
0,0758325521133314
0,0766100796267516
0,0760936360368392
0,0742063421668183
0,0723131785244322
0,0727611764587892
0,076020736498946
0,0768575900850366
0,0734892374092448
0,0729533098491387
0,0739652668831375
0,0729337217828311
0,072610548378871
0,0776933712379052
0,0746412166986592
0,0777968661935251
0,0756783757485371
0,0792548143644872
0,0768669596061576
0,0791509406646948
0,0770851164166305
0,076770594537089
0,0778501162304038
0,0828098765895623
0,0830126995518661
0,0780042837735103
0,0796954709485772
0,0836719489306119
0,0811145181125289
0,0870012924291557
0,0833852076206977
0,0817063796804782
0,0801463743669703
0,0802724165089691
0,079305982801876
0,0864866490338803
0,0841712848205966
0,0856848289540026
0,0890150268229216
0,0915829130635996
0,0908704445193543
0,0911367839557217
0,0926462202645369
0,0973569305621253
0,0985875506735471
0,105574405948239
0,104997421757438
0,107877519217463
0,111263315020319
0,109883475430787
0,110396551509082
0,113795236715112
0,114381860608924
0,110244215822958
0,107612806182413
0,107416278901517
0,106579961166182
0,103627798694761
0,100497404634804
0,0998484811208564
0,0961719921647871
0,0971679052082581
0,100884047180091
0,101515867920226
0,0965757460561252
0,0964888319461387
0,097368519624885
0,0961390240708927
0,0966480572139535
0,0983951873883572
0,0978990311005
0,100155203554273
0,0965161456075814
0,093749565296178
0,097758748268736
0,0922337600901465
0,0936364627531049
0,0936448519600028
0,091051118898093
0,0835775576677256
0,08958974863867
0,0909738919365142
0,0836123232275407
0,082980897085316
0,084666936931182
0,0829043532862102
0,0842324251181618
0,0848700352116514
0,0898091110869207
0,0837795445770502
0,0875626567928484
0,0866658656249822
0,0835394771565314
0,0869739030438944
0,0827706555947591
0,0841566914405332
0,080806058433491
0,082272527116373
0,080133806275313
0,0791175723252966
0,0792350036373712
0,0751998125063223
0,0845985114084037
0,0767245057050214
0,0737158849131073
0,0839302351462441
0,0805005241796888
0,0789649022857969
0,0783945293697077
0,0717817620976387
0,0760810287872089
0,0677009500857374
0,0647031213981217
0,0723158421948644
0,0761293333320616
0,0659310803158704
0,0632514197031124
0,0707099368618967
0,0692282455911431
0,0688803750947121
0,0689691348501153
0,0721277968918885
0,069446895917063
0,0679071012064053
0,078796271749207
0,0772496669205143
0,0710936596578947
0,0728137038052154
0,0780185268488667
0,0736243668426025
0,077577300102003
0,0720530019489413
0,0769480685043109
0,0771161163142419
0,0801679712200938
0,0809599368774854
0,0692954337845156
0,0729778748196615
0,0824688102952658
0,0820503550627344
0,0780480367597788
0,0844409810544941
0,0809542415570707
0,084317970045828
0,0804217581143549
0,0816301958025008
0,0873371291951385
0,0901238176940353
0,0900916957966959
0,0887298478777834
0,0945491757417854
0,0986042728065474
0,0995710149959518
0,097686612839443
0,0961493298740134
0,101669762755513
0,110721778468035
0,122497468723149
0,117052468350486
0,114891443714058
0,120767712479407
0,12573880497243
0,12560878795365
0,136679602667572
0,134262284807926
0,139381968803875
0,143132898830213
0,143926542771366
0,137144727702026
0,148052447402976
0,130437477699424
0,128597974427536
0,13666818794625
0,140124973075561
0,142036099972932
0,139183169562191
0,128231163872923
0,129102504756376
0,124424423905799
0,129658786777205
0,133825046681475
0,141036745423133
0,130596935745206
0,134990032453991
0,126392882917211
0,121256248359484
0,116570179750088
0,127271260641042
0,129760772738324
0,126262303617593
0,125742008371185
0,130172516448141
0,118509723284087
0,127749444019579
0,124526758123237
0,137866437055755
0,120153253982454
0,125303277200393
0,115625453910044
0,119540089833353
0,116230711842541
0,125255447706477
0,121874836284951
0,107454545365233
0,107163856004342
0,114614029737617
0,106984960335055
0,118441335551189
0,110847264670466
0,112901253958222
0,120590729847507
0,115352945645908
0,11783781691348
0,106489116815861
0,109933587271011
0,118716245231014
0,096046780876223
0,136906932637427
0,142557316071652
0,142563361100782
0,121371657456919
0,123252082514081
0,125528201309157
0,130462353018418
0,136624964518146
0,123431196426114
0,106310211624991
0,122186863757119
0,131356679227702
0,134909798578989
0,125769058561838
0,120740246194704
0,119892014599156
0,13807556861891
0,126673716022505
0,127082920083153
0,143121513708037
0,145636473169989
0,151394045674944
0,156512102433256
0,121960523850322
0,147361382111762
0,149103094136421
0,14587464401344
0,160584230444594
0,135119886548533
0,167598338475026
0,154926040259561
0,145334007917978
0,187626868081098
0,169021325018704
0,157543290580569
0,168156055470936
0,163753770355574
0,203569530849256
0,155972347525635
0,182889044559794
0,172277052694006
0,170230817880974
0,164817612737672
0,178102355554255
0,153439858650883
0,149161527086561
0,197396438961606
0,170893401443408
0,162574995009346
0,140507544037724
0,142363564112158
0,179373595766043
0,174505262328202
0,160264201658233
0,188087424996306
0,201247979025278
0,166037275215992
0,162152994956155
0,163007895480045
0,159895873336561
0,124703689842291
0,139058036170833
0,189156391674735
0,162728053540429
0,164856891844931
0,0883026632445905
0,149349603706235
0,178096999822032
0,130085561554154
0,127701837665933
0,175182136578404
0,208440523095806
0,14105707946171
0,154742923286064
0,147953890197014
0,22770680735876
0,120358283947149
0,147839551938113
0,10751037585041
0,150385178505319
0,174223824851709
0,256005329989194
0,245305034497257
0,158321052768128
0,126955733821724
0,192392396021643
0,208063428882372
0,184736003917643
0,242829943836349
0,0696407670123627
0,216896924515865
0,337472033335149
0,293990856165572
0,10542637052839
0,164863278415262
0,104317261849242
