3596
4000,36533379555
650,420452594757
1
2
2
0,097768715819238
0,0986478375045593
0,0834544588648524
0,0982376434828473
0,0903781797045711
0,102783992995189
0,0881079681597993
0,103022873787945
0,0987785269068332
0,112642656358554
0,0911373579093961
0,103453296111151
0,0792333848638236
0,0972810052384439
0,0896628333058349
0,10163318697029
0,0885252588087889
0,100560923648251
0,0874221239312732
0,101227857938525
0,0874479623280758
0,0987324491902177
0,082334138271957
0,100412786021833
0,0826788836193754
0,106723858312978
0,0920995824626711
0,107897366933325
0,0863670256492251
0,0997315173090985
0,0875384404271416
0,10366238703799
0,0895673327154437
0,104182754691372
0,0834910009295415
0,0946353069199095
0,0861353311626229
0,102252937008641
0,0825562297436625
0,109878300293198
0,0958085967026926
0,100230269854568
0,0915350314580766
0,0994956182785859
0,0872006663249586
0,0999672261834194
0,0959074169382818
0,105266430389803
0,0900288386899858
0,0971284031947263
0,0895469724432525
0,0984600905645095
0,103083655847665
0,105256261895498
0,096805590908752
0,126588999846547
0,097087448774193
0,108220105302236
0,0888340365261958
0,0915610997852895
0,111523028728645
0,102627362239107
0,0889032059351695
0,101530244782395
0,0846526356204769
0,0938019042805663
0,0839160758778177
0,101892966371797
0,0855618428893093
0,106771902559633
0,0816822678421671
0,129651624379269
0,0972904764830831
0,105419527577488
0,09383787429107
0,103955577279483
0,0830238168162947
0,0966306561566382
0,0797282875833926
0,121285747132617
0,0874257980116287
0,118330948513553
0,083591317183016
0,0826782336962135
0,0928635227657641
0,109117081408961
0,0779557201159625
0,110025939823341
0,108699277098978
0,10904576073591
0,0793535219594506
0,100778151119951
0,0813604495279185
0,0984634828047701
0,0825976934955262
0,101659059635043
0,0781975940427335
0,1089727209692
0,0787207712056766
0,115459516687391
0,0915979885948001
0,132271818009227
0,10692209329658
0,103021380164733
0,171878351647367
0,106444327839231
0,111602754807292
0,142046988306118
0,105053692703214
0,104919470188004
0,0755245718028886
0,100788950646479
0,0925678667607624
0,101483194420597
0,0671409531767206
0,146712986806223
0,107263752905606
0,103527546801604
0,0778508113298818
0,103157648415041
0,0702723727664846
0,15131359676871
0,107837698195654
0,110840998456003
0,0970164307021447
0,0998683968015782
0,0867988655931519
0,150792950999982
0,0966235387279347
0,101089401865272
0,0774451654800209
0,0987221700005717
0,0774553217363576
0,104556229643417
0,122648460348241
0,0999882948662222
0,0902618633658672
0,0874324830142445
0,12692212892201
0,149235118043509
0,0920777950944014
0,0981103520771249
0,0777573234748019
0,11178261081532
0,121925993602328
0,110061854525301
0,0788370094447802
0,11892426926656
0,090594270734586
0,103073489105501
0,0808672567692234
0,0920210592091693
0,108889922851901
0,108337455752923
0,0602245932127112
0,210181615992286
0,128655640913849
0,160530057237948
0,134464894832393
0,0939009626147595
0,100258406895027
0,0889661443241364
0,0795269349327409
0,0869575314488272
0,0904191384081073
0,0843247497594928
0,100763766056014
0,111633801374514
0,0825622181132731
0,104146178393996
0,125054601816113
0,108563397990399
0,0882463320435598
0,177648274489895
0,0931343411391851
0,109349036275737
0,106791007027849
0,103004443429997
0,0714693886079006
0,12760257151999
0,101769599417268
0,0914936432656078
0,0867372248358615
0,0880436663399681
0,08902652851804
0,125198413871435
0,0817841441293081
0,104637396764961
0,0835401275900872
0,0930574159748919
0,11123303193635
0,158672781241019
0,10956958439146
0,108286925226494
0,0879508081055782
0,0793323688750824
0,138556217264107
0,131169583185284
0,088736702431313
0,0919056193953201
0,0758965185310961
0,0869136109701651
0,0746732835643894
0,0835074440923302
0,0724856776390034
0,0917976621286835
0,136955796792201
0,107554104011285
0,0779673767431028
0,08336421714838
0,0937504766316718
0,103533825212624
0,159350469262497
0,119571528918555
0,092393002740886
0,0989840133575375
0,0829594360879483
0,112681679707621
0,100743803630911
0,0892385009689129
0,0812030531407834
0,0870006965503441
0,0713846255381231
0,0916078955157385
0,0782371750790637
0,0886522305344508
0,0741550114805471
0,0925043618045916
0,0807039863228832
0,0909607561056061
0,0940526972794136
0,095093961459942
0,0821772958523434
0,0940646939566081
0,0710488723859954
0,106246709631977
0,0897146057762893
0,0932618994207135
0,0881827250348268
0,0838096104202167
0,0774522717778445
0,0909074526860307
0,0789243451517495
0,0891979063738542
0,0857433208927088
0,0992878402125366
0,123365764506197
0,0970203177306479
0,0944438931483664
0,0767938990921509
0,106887483791552
0,0962879408828674
0,0879365062799197
0,082581804299512
0,0926763464916559
0,0756998960697783
0,095200444831154
0,124196018160605
0,0927229769457288
0,0909570906556826
0,109929324357297
0,0984701276372087
0,0853410142379819
0,0925571643751023
0,084624322816059
0,174509196052727
0,0873384219272916
0,118927872263233
0,156641625956141
0,108544975022058
0,104848048224815
0,0930946144571486
0,0946961697713737
0,233430697367396
0,142876630126647
0,0962618301824858
0,100412874452494
0,123477284388245
0,0852307275376092
0,108954552746602
0,0915863106901645
0,12639055994772
0,110147210534176
0,173546409560872
0,176671169173085
0,0865131821087727
0,140928930313155
0,125529166386269
0,0931152296700917
0,0919872162226465
0,0878686082278326
0,0963242156606991
0,120524468429508
0,113640302770745
0,107300147418277
0,0923551372336123
0,0942921905636961
0,135217140833208
0,0902424816165038
0,0864390100735373
0,101143611507721
0,105003202456885
0,0804027943905509
0,0976572054663201
0,0813283553492577
0,110450910547465
0,0835478071377204
0,114575098106489
0,153308630940705
0,109915305787218
0,101857597382932
0,136829857579754
0,0895688785081386
0,0936867528564154
0,0860638345817581
0,0873673034743758
0,0851148595309599
0,0922200475696288
0,0832900653028979
0,134511145215368
0,0932020986644522
0,0912993442050969
0,0927036978109651
0,0880964765656095
0,0857318023201158
0,10339661211675
0,0815460872822172
0,0932628859281455
0,0898362071375199
0,089913188154934
0,124381680990352
0,134707437994981
0,0855615893295413
0,16156428337188
0,123440108220275
0,10785283082028
0,0921570554924806
0,103960471744511
0,0919915265865552
0,0965215387114562
0,0905575289350651
0,100558929963871
0,103821478097678
0,129196171234026
0,110451495906969
0,109708187449644
0,118719482785519
0,191232086035213
0,182166419480933
0,128808186388716
0,113131877738115
0,103366360412521
0,153575175162858
0,144539743195282
0,147885659490322
0,146850954177442
0,104395525094288
0,116032230621638
0,0997338179852205
0,121802498836976
0,110680231877614
0,116647674428462
0,0999405012443587
0,12705859961964
0,115439120916394
0,126857445419064
0,109220445668923
0,143913435335878
0,162679346723599
0,137561994899522
0,124524166466825
0,13925401631909
0,114292403263484
0,180974307832286
0,169013344997435
0,210220245378989
0,162760904285065
0,192130706579189
0,187357123996133
0,153022795254385
0,138612314569751
0,145421771909312
0,141829133670511
0,156600153390151
0,140208425422132
0,145053633027482
0,147369009756891
0,164618526441044
0,157364215037229
0,162021470969467
0,154065897069345
0,16435346980332
0,181460546624846
0,171245816980574
0,165506040563153
0,168208034937297
0,200230901874
0,257835597949168
0,226388711817158
0,188096738175592
0,189020131378314
0,177114977366214
0,175833436648053
0,186466957570933
0,176820298809003
0,201989986482994
0,192849913299517
0,234483561563928
0,208004991772555
0,243031861386965
0,20377376437283
0,194763073400529
0,219645176911069
0,219479549077063
0,213387675402324
0,250327055646656
0,224828235554198
0,209682239738575
0,248011080508414
0,238836881971929
0,234722111513222
0,251200804738373
0,218627524176905
0,23282676768949
0,222846387278208
0,244103356481776
0,236517835134871
0,253282753876252
0,254206912689999
0,262748467548037
0,249360771568015
0,26507306487859
0,249115540694188
0,27742883038571
0,263971018800369
0,286723303131993
0,280516654568917
0,262276246513943
0,254686554711967
0,274118641135455
0,297494344378817
0,316381253783266
0,296559604701097
0,314956145991678
0,279472570993533
0,287909924572953
0,288667769029132
0,293556405052511
0,288699470705534
0,319375711295226
0,292210261955266
0,308683476487053
0,299482509520042
0,310932410831447
0,311216369123036
0,329657514725633
0,315872706827792
0,318158854490817
0,312023080627791
0,337228846224939
0,322959800616847
0,347961679568966
0,356340100639281
0,378096571598928
0,380892254973322
0,400451490125169
0,333163759583009
0,368573121309454
0,354972552928532
0,380096575516955
0,375011746607773
0,387190303957121
0,348190336488746
0,375979609219464
0,366120838651786
0,390649336519296
0,382293600963334
0,394170458154363
0,379714507090234
0,419494204635192
0,380505172092934
0,427637383027637
0,410611941532528
0,416006468772466
0,429722163171875
0,450839570469203
0,412641087954129
0,451394853945754
0,416612479099142
0,438198586560779
0,427986079033669
0,442089184749192
0,443479251381
0,478929750177336
0,45430308745601
0,447828907048085
0,454801815282351
0,482522627091005
0,452174062606426
0,496379750514253
0,476918396226173
0,486350287464608
0,473438597717783
0,501354276068595
0,47588873331592
0,512683156904511
0,529866911278173
0,540867121101498
0,50829988559927
0,537592281196872
0,511665337060557
0,545999521234316
0,538257151523985
0,538508174332263
0,541590493650114
0,551950569826947
0,558278293887934
0,553165950889835
0,531932391246643
0,571262400819862
0,537645885756558
0,563593848129606
0,573533127557401
0,566227003838865
0,559815725246468
0,58961326606495
0,589010559731142
0,605033379532894
0,596536432609212
0,617948821593358
0,575503901194765
0,639035954400672
0,627447333722007
0,633886768606051
0,622506785386612
0,635011685094708
0,631386807023313
0,6243045068357
0,638032589991137
0,645007956994835
0,640468888092784
0,669704370979113
0,637748469858434
0,698233784553239
0,656451343194524
0,666411186020321
0,679212898019929
0,688070563119391
0,668020973033706
0,687696766472303
0,684290330485633
0,72295076492987
0,701980076553993
0,694527345653141
0,693135281843348
0,755649943598095
0,69636281581653
0,753495424698722
0,707849340367441
0,737555064722962
0,730881782229047
0,732219737012264
0,708412284378265
0,749178643947007
0,757628374670175
0,780426814705515
0,741981828570883
0,745516068542831
0,738905491600249
0,793589408845463
0,728186510679433
0,74130594671237
0,795432936365054
0,792984141641889
0,781889438300314
0,820046029176164
0,777213429472619
0,8170236836882
0,777862282258015
0,797574964941186
0,821111414475919
0,850272643248201
0,827643675830283
0,867815347821769
0,802247488190105
0,856078467990125
0,827010153729485
0,861086544495347
0,856943261554412
0,877787472317424
0,848866600629442
0,888264326013493
0,866268594988932
0,904974741082703
0,875340174755256
0,872722253201828
0,899999219131431
0,89953315394336
0,858038123354843
0,90386334361331
0,912416865512363
0,8861351331017
0,855575165046864
0,8881763284566
0,885541277336817
0,937117253735786
0,921168429985363
0,970103360117875
0,9365096638382
0,949612653270585
0,991860530282018
0,967610264324935
0,919635613120916
0,931564390876092
0,924102900542285
1,01304232416368
0,959310996062536
1,00001170764761
0,960965281856962
0,951834699186516
0,962418516100665
1,01318824659815
0,932244077166459
0,968202058023424
0,989930605055449
1,02462842503119
1,00031220736631
1,07696436357258
0,973901212559207
0,976789185735991
1,01595492855768
1,04758945150194
1,04104025694072
1,00448956067465
1,01140125471082
1,05644949937379
1,03478932661382
1,03897215183145
1,00364984347453
1,02239403881895
1,02841521111302
1,03088022991058
1,00168544740598
1,09928991947249
1,04685928710691
1,04348473432606
1,02902300455812
1,07772336484405
1,07533442645781
1,09520827051498
1,04469364117433
1,10217087810022
1,08696141759552
1,11802371753089
1,13249236532693
1,11974448627539
1,08726030444462
1,11485592060298
1,13578893686705
1,1444231060527
1,06330288511092
1,10276696479919
1,08296427236365
1,11607976610529
1,16465290654654
1,20173870445952
1,14100991938022
1,13178343886491
1,15409886843182
1,12658405526733
1,0941857498726
1,12945882785404
1,12330040345453
1,15842207769543
1,05267964808444
1,12450657611835
1,12472769225766
1,12700681589892
1,15458287798823
1,21087906309676
1,18042887935238
1,16882463084789
1,20595407121681
1,25222381239466
1,17932267670403
1,13744983112805
1,1419090866356
1,14869648304892
1,15096375070286
1,16630187105672
1,10264761075697
1,1661118060893
1,18256298001449
1,19348561288913
1,1549861502971
1,24464053185688
1,14511723947995
1,17620321720514
1,2200453867897
1,21782511931462
1,21754334545028
1,16786142127515
1,19329986875353
1,20367671448605
1,18866813340224
1,19007865389295
1,22921347462704
1,2694104827848
1,12219051670697
1,15652130235308
1,15455891676835
1,20079859742999
1,20596010587374
1,17546563469538
1,22558265871888
1,24538412727941
1,19637163452098
1,19891450948127
1,15132888037706
1,22765845628538
1,24870235478375
1,1922389677644
1,15845414077636
1,1850346292441
1,22631106525378
1,23059658964451
1,20338334402435
1,21582437126683
1,18648821657084
1,23863203144786
1,21842826494224
1,23213096755736
1,24728211752834
1,22389828649281
1,25026658638297
1,29254475374919
1,23681034749045
1,24989352125073
1,21906390643954
1,19351001488895
1,18358387381612
1,2560466735559
1,19902293306688
1,13632814139637
1,16136468292528
1,17956125285835
1,21279703338654
1,20663359239193
1,23656946057612
1,24585931740851
1,22818081643495
1,23393177144264
1,18345180434938
1,16930444494456
1,22572992957675
1,22871136043204
1,19920620886653
1,23796134385442
1,21235060000918
1,21299502189772
1,18761754958969
1,24091739945201
1,24491181009513
1,27437373027485
1,2927175861467
1,22335214042687
1,19786356124722
1,17974847252861
1,2275970450652
1,22533754218187
1,13553039865753
1,15229729624916
1,15570514989629
1,19498403970083
1,21752205659375
1,26418711661016
1,25313453614711
1,21430535816725
1,20426897049054
1,21036718827389
1,166674028454
1,2116711013017
1,25615558887323
1,22746475259085
1,25839528182473
1,20507361761922
1,20760078831649
1,23724437591853
1,17655649864515
1,19221793719978
1,20210088438313
1,20621680894099
1,22652752608298
1,24527813257293
1,21956884339377
1,17950151066659
1,17809137623931
1,23177241106059
1,25017754079955
1,21035618768411
1,25389671011552
1,16609044706455
1,1455571682657
1,19867419994961
1,13764857286472
1,14704675742204
1,17976952881882
1,16883282667473
1,15235327963086
1,18481987165498
1,20469970566086
1,1649023552897
1,19203757094421
1,17966674793238
1,2010462362697
1,17225707149166
1,15038459706278
1,19217310344717
1,16207664861533
1,2114987535676
1,16912553790197
1,10857050633896
1,12854326881529
1,13760018568769
1,14360819056334
1,1538557930559
1,1872709172064
1,15938321825072
1,1249763463191
1,14156546494695
1,13787720943856
1,13313616980324
1,0824258461617
1,08308653585778
1,11208311918658
1,13206421026122
1,17273564129074
1,11295715808636
1,12697780608027
1,09005228212919
1,02808348881207
1,0987801215731
1,12383025917507
1,1089364413442
1,0958516476673
1,09630755409866
1,11051694372902
1,12155080086073
1,11496316046271
1,05730134777252
1,04112942312109
1,08266853466318
1,10252440119866
1,07677447882755
1,07473052670382
1,05966150142532
1,04878758218177
1,04008983531227
1,05399567032893
1,0400149226913
1,04522931382702
1,05581562802411
1,04336416306484
1,04519837356579
1,07429962961678
1,02516570205188
0,996980342480763
0,997144567836336
1,01798423975462
1,02510623043332
0,986555730831207
0,98585173673952
1,00143965079084
0,984619888039706
1,00681824812901
0,998512694062049
0,961172404458469
0,983047579307245
0,976616051847574
0,96520375339362
0,972693430234403
0,961794633885221
0,973248092996865
0,954292452458896
0,956710485314368
0,939608357016623
0,969868190997901
0,972417463501065
0,928258497854695
0,919812750968759
0,948827751344965
0,946705674774503
0,927608755980072
0,901771501202836
0,93200570251495
0,921356029429954
0,894256567276218
0,90509576625194
0,893924145002851
0,899198459844568
0,904322207914978
0,904761950465127
0,907054929692316
0,886993202547492
0,882340038220207
0,869035504782774
0,887526183360376
0,875866473823721
0,852787697464643
0,855042173194544
0,860324408630245
0,853727835922657
0,860272515783833
0,840591217060498
0,837527748415558
0,831083856467447
0,833219789895331
0,826052333965356
0,826064251367193
0,827639577369217
0,820294533642685
0,796869589148085
0,806829320430427
0,790203833463051
0,802669837260105
0,812274544406539
0,792513742073009
0,769242812796674
0,781316240502903
0,768189056315395
0,779365761672002
0,768090694558773
0,775096629572703
0,760949524384158
0,763059040635438
0,774263911596313
0,773522057707288
0,766816489069873
0,768167820680684
0,754127860110667
0,738320345244898
0,755323579598221
0,73782232080986
0,727725687176172
0,740231556030096
0,719715562459533
0,722629866174012
0,706988053334443
0,716690393595869
0,730396946850436
0,7007606231263
0,709103779771676
0,717773068062027
0,692478646959793
0,692006434015484
0,695612069610691
0,681416757225213
0,677420276428466
0,690926799139833
0,687924505495904
0,67831937432187
0,674260458265208
0,670525675134644
0,658727043931593
0,662319792847816
0,662496749479356
0,651905390328329
0,653343790602275
0,651862934713757
0,645805476035053
0,652336859162144
0,652064806138484
0,653785816713042
0,634374868293356
0,62910187567374
0,617239044496226
0,6266553558987
0,626487060007381
0,625749856436048
0,618575461568204
0,618841405270712
0,612638976692588
0,623536715487298
0,618472850753398
0,619571714381737
0,604929052235131
0,597322903482007
0,59540284068479
0,593572923044365
0,588929196658567
0,588784148613452
0,57837903752533
0,578057753658299
0,579939017192262
0,590048663957668
0,580700387878247
0,570545616452099
0,567881617587357
0,572617095127467
0,562071278176909
0,564063154807909
0,562788311032483
0,561732072773924
0,554220710522364
0,560232186339449
0,557318396661813
0,557112465221397
0,552403988368925
0,54417317613593
0,532365909320624
0,534061752868193
0,543045666801364
0,541812986499244
0,519315368784722
0,533636591726562
0,535523780409211
0,522242416338586
0,521337414681741
0,515291393573575
0,512005954226923
0,527349019715332
0,514529250783747
0,511939523002001
0,505787226623132
0,508444547512537
0,497766329006889
0,503845064715906
0,500098213829725
0,504275024764644
0,492578028410511
0,492058662205472
0,48288860732282
0,488726078389095
0,488886651355262
0,486566198625718
0,486849705181267
0,49134983016379
0,474122763571205
0,480519209410301
0,478232747872652
0,477462106382247
0,468797813469553
0,466664407040745
0,461378325763802
0,46340501912143
0,463537942879112
0,460760116786102
0,457581513935462
0,461573802160812
0,457623602059105
0,455360148006681
0,448223533187245
0,453632596987344
0,44346335803758
0,44551725793116
0,446061038047749
0,448196758744747
0,445043827612317
0,436210560021683
0,436765080499179
0,437997065658794
0,442249011285669
0,442845154834643
0,431013689322539
0,438101131073875
0,432300127217438
0,428129963892605
0,425233499156456
0,428623933138826
0,420291499707416
0,420850745328535
0,422133117048519
0,428477466305384
0,420546310287128
0,421567814452072
0,416724502423747
0,427538575577587
0,426192512810418
0,421813637552694
0,418125453461301
0,418814253423825
0,420511592207284
0,420422884841994
0,422435546052197
0,42281321899489
0,425287952484844
0,425811961996892
0,414475351936196
0,420173169122457
0,426678934761894
0,428023610280769
0,42458782923758
0,4312271033549
0,431664786162189
0,426536873284704
0,424742413305427
0,433140129637617
0,431910061680622
0,444328060959382
0,437211167445537
0,43430449214199
0,441476626284183
0,454569408351533
0,443965499566716
0,444349550031032
0,442418776723755
0,447135134266964
0,443246855173163
0,45020867979809
0,449746369915432
0,453955002721449
0,451900235765296
0,460539973401514
0,458285993208439
0,460662452666658
0,46369309124732
0,46939847557565
0,46997824702122
0,468815694893884
0,476581947954808
0,482869823959731
0,47604741956966
0,487805668469431
0,487932188567435
0,487294709157348
0,489185105316828
0,497453663117605
0,499127944709564
0,508119662561949
0,498438209088794
0,512790755236519
0,508228063986472
0,519094530880619
0,516793962554412
0,520826532040103
0,515503625027965
0,523077962133984
0,530581259692699
0,534756034972281
0,536982559195536
0,536575990582256
0,542032757396233
0,541764074957206
0,545699043487519
0,565470176730377
0,553521866027064
0,550655781978196
0,554776431336997
0,561455548786822
0,563900862274733
0,557418658163434
0,560385425774139
0,569738602198545
0,562734063751823
0,554759819265199
0,558532409880778
0,569648066914348
0,559654336425254
0,557001298529868
0,553525962750389
0,561495291687487
0,558719790151028
0,550462477606869
0,554460695595569
0,563313057500999
0,558347570063445
0,560400212246795
0,543504850413086
0,557209592333709
0,550453904602111
0,547788231479617
0,549362533963466
0,546849998772603
0,541936559466252
0,55084744785449
0,545759248582819
0,552946634741598
0,554062225569879
0,544776458501375
0,558405402797981
0,562197933459544
0,552023671085374
0,567129233213286
0,547845199988015
0,551982082967332
0,5511266870226
0,551902523758978
0,564093000766385
0,559947047897695
0,541132189404115
0,560913389986783
0,550450145861245
0,557921547739131
0,559602149294915
0,563664915074571
0,551917751103603
0,551542117693976
0,543078801359105
0,556481173486032
0,54982762730331
0,547541995005713
0,551475277017413
0,558268377744645
0,546200392477825
0,542144297129426
0,534030405069032
0,544672371225915
0,540483445234331
0,539213461860514
0,527720045627065
0,540468722942193
0,528542073547431
0,536407403926032
0,52667292995518
0,523306086197253
0,519918627980407
0,511244628408543
0,508870660026798
0,513159416726316
0,501137743946858
0,509324392955738
0,50422973399003
0,495871439071988
0,496291786459149
0,498137101345114
0,488567260809384
0,496804637493824
0,47941400948321
0,481914767507622
0,480144262884697
0,481398711006868
0,470317892995649
0,476712009084228
0,46018276351713
0,460893106312173
0,453028622346664
0,458583580804625
0,449725382185926
0,456653340256023
0,447767607973596
0,454307901678003
0,445313953282756
0,446494682302319
0,433667451575221
0,436924930185638
0,42995654378198
0,43090581866783
0,429502971418101
0,427465936679352
0,423070093351801
0,42815845394184
0,423380482757425
0,421106963301142
0,412111245878866
0,41797428003129
0,413968936985905
0,412900282287853
0,412223546542914
0,410541771480477
0,399613669352413
0,404610985384786
0,396119173098202
0,400000303080652
0,397146674349236
0,399532854221665
0,390451006316035
0,4036406215291
0,389791124996343
0,395195894650769
0,39011501706029
0,390113968297331
0,381005510760807
0,387554516071434
0,381218621512206
0,382018315595538
0,379336344307342
0,37898270603498
0,378728046466566
0,379444464862354
0,369541690414321
0,371667457151851
0,375702756381603
0,368917712241825
0,367840216360964
0,366542720349394
0,367484452426902
0,373246836986976
0,366856916902602
0,362313801249452
0,359363661963426
0,359720196634891
0,364826121768908
0,357981838499917
0,357915610615648
0,357202057178736
0,353214807654843
0,356058322188749
0,35338512720646
0,355632042941109
0,35429516544791
0,347384358845908
0,337489223891468
0,346878767906701
0,345356122671521
0,346988695206791
0,349271036038751
0,350858081134533
0,342738816099222
0,34299988869231
0,340645894081064
0,340671557163204
0,337327616015023
0,336406103925094
0,332270973067827
0,336497813573471
0,340461507733442
0,332746206025407
0,335853287378305
0,336975401523575
0,333881562195668
0,335117323550646
0,334846998753334
0,336367788541151
0,330240103737385
0,328648654590923
0,331449667993244
0,330632766242162
0,327363064958633
0,325108488288133
0,321749689981375
0,324031260040644
0,324528897777659
0,326283446934978
0,318812468976775
0,322617324544248
0,318173444565088
0,316789465280755
0,324436484079599
0,319530859679077
0,314402414337887
0,317976838821427
0,313438583147584
0,31300858874773
0,317722367647527
0,316422308699915
0,313847678850396
0,310386521092555
0,31047151291259
0,314865150890322
0,31027122294094
0,313800120154076
0,312092449253037
0,30891254353117
0,30970903515187
0,31380239390728
0,31522638227535
0,306404250699301
0,303199211721699
0,308679921574857
0,307076412410185
0,306707615811135
0,308541375078598
0,312180853565181
0,307712860527844
0,30903259756369
0,304693329865429
0,303939182310475
0,304323335461171
0,30243139992459
0,300887602686468
0,302210231151255
0,300322236999669
0,305385968305122
0,299406876107051
0,299406576735756
0,29941566705658
0,304727974455278
0,296736711848166
0,300757776806361
0,295362807741703
0,300455210471453
0,297117731420052
0,295578906909635
0,297452773856786
0,299378626261602
0,295684649589927
0,300608269279965
0,29357759852603
0,290417740345656
0,292404167293833
0,296940427464101
0,291214396332046
0,289027318325947
0,287660660189141
0,289274129303255
0,287121654620355
0,289775091373571
0,290407281300373
0,291555798857293
0,284430265568025
0,283829922461825
0,278683871571723
0,285842080052955
0,285087963307361
0,281695766686872
0,2740727002465
0,285379141812948
0,278017331634797
0,278437811242412
0,275776338493787
0,282277107522013
0,279318376159413
0,282650596487965
0,279440813104063
0,272459882780156
0,271607853127072
0,274465977658181
0,273175910843133
0,271406560748703
0,27343079640281
0,268182159607736
0,273952931169026
0,272028173911643
0,270979819806728
0,267434139570961
0,269215339399389
0,26821867077868
0,267128929752109
0,265487537781855
0,263814588756773
0,26267366000894
0,262232566611273
0,265146281683235
0,262793745674132
0,260401638587664
0,257470066939318
0,260223519683339
0,257347552690011
0,259181577838152
0,251968440498999
0,256654487580392
0,259378361740979
0,254302645757182
0,251143975936077
0,256632541643105
0,252140688130791
0,249217350896375
0,253114795086721
0,252854012858183
0,248817584013544
0,248618617000804
0,241635248413515
0,246926222798798
0,244156061177092
0,240396592191024
0,23769708777576
0,240320555045809
0,240203219310771
0,24101481502041
0,232668661291676
0,237079719107341
0,236888733349617
0,237020293698967
0,229697900992611
0,234851386966807
0,23041477942693
0,23062042785467
0,231781294993489
0,230891023955759
0,22798501268475
0,231958242316706
0,225626260196791
0,223790744180361
0,223403502810736
0,224967155517181
0,219806267418866
0,22063928260795
0,226477364938371
0,22039648052631
0,226294786816859
0,225079335520224
0,218125482197749
0,214475957661417
0,217523547268423
0,219609607528089
0,216793494106445
0,219827865854015
0,214822840099844
0,21626744734882
0,212125854598987
0,217012282694135
0,212140310251628
0,210243260476549
0,210515230264215
0,211953386188957
0,210611606161569
0,208847728436114
0,205801771914569
0,210892066303875
0,207392329682778
0,206495077995553
0,208377679611876
0,207412298404053
0,20450511870128
0,204657739911309
0,201767103817526
0,203821330604261
0,19993652726325
0,202274588592578
0,199153308649167
0,197679323918824
0,201926663236166
0,200465708247966
0,198824162311607
0,197076362360871
0,19788673560687
0,197327822014712
0,197965163482115
0,193936859381779
0,19276599519455
0,194655363471905
0,192846232101506
0,192966275275952
0,18941488809693
0,18840937805202
0,190498467827519
0,19117590141521
0,192264538471526
0,190733230177115
0,190973997656341
0,189769518460496
0,188546467367078
0,188487876704539
0,187535987021043
0,183048850218288
0,181629653083231
0,187650938932541
0,186768890362172
0,189125248367972
0,185801461779489
0,188073822216118
0,182987838773125
0,186668998188035
0,181568722545889
0,181920415119125
0,184143650354963
0,182719225374094
0,182895415623674
0,183412202927041
0,182406171561723
0,181290018592905
0,178882160870629
0,18276189589912
0,182671378688816
0,1827853634613
0,180942653939635
0,182841364440782
0,179680824905313
0,179041366347749
0,180077200581841
0,178603367389094
0,179423936626476
0,177797401681657
0,18022585123684
0,175621397504063
0,176621889906189
0,174801364107889
0,175818663901851
0,178853681229457
0,17298430062683
0,175920062287428
0,176753463917756
0,173100522595171
0,170354993705981
0,172560485187297
0,17009186620723
0,168017838916213
0,171890114512693
0,17113211787738
0,169112622798758
0,169615803305685
0,171800233648759
0,171608968379753
0,166528146525563
0,168120332165847
0,168056062324309
0,170446095839212
0,168534120659081
0,165664048864742
0,165756259290832
0,167093737273446
0,165213376216325
0,163179062985776
0,165905117401933
0,162745898847829
0,16479228165741
0,164454239995237
0,164457260500945
0,164702091813552
0,162257314714823
0,161248926647165
0,161046845650233
0,162950433339685
0,161970668363826
0,161850572557593
0,16032080217703
0,160367783161848
0,158859049145793
0,159764835882191
0,155544065029194
0,162590598968608
0,158166330733104
0,157626911279021
0,156631717643282
0,159472940377823
0,155789466714484
0,159387924262906
0,158437147736622
0,156442269419529
0,158309943459646
0,156527350502369
0,153381946219116
0,157400831904252
0,153919508470686
0,153999973892604
0,152899660720762
0,152872558277683
0,150960690397353
0,152777124696409
0,152067285579866
0,147559339504449
0,151561598412967
0,151998906497457
0,148599531905344
0,147352030914056
0,146448557074275
0,148167059122365
0,145299288869483
0,145656873487534
0,143848765292411
0,145686955067777
0,141050435634665
0,145180213336132
0,143886539598484
0,141838420888746
0,141895873764191
0,143399421366646
0,142643194297633
0,140885768994799
0,141173079362425
0,138985420733528
0,137989822296903
0,137118711360524
0,136812527743333
0,138239474989353
0,135904201532565
0,136178225463685
0,136643049891238
0,135575470215338
0,135547421422825
0,135168135095608
0,134396485877919
0,136389228959614
0,136085323793144
0,132858745919749
0,132924487905842
0,132502163658598
0,133189494618774
0,129745535745317
0,132681773366532
0,131214911293866
0,132756557645347
0,130414463257203
0,128721101623385
0,12899502856985
0,128265246796755
0,12839549491375
0,127823851574491
0,128628325418673
0,129331111096362
0,126619002505522
0,126070779807774
0,125320486821601
0,124972829526748
0,123906259769827
0,125176476626864
0,122757952813877
0,122087710441613
0,122298311834486
0,123146288870435
0,121997395711063
0,123167326321706
0,123884047052897
0,121267630878209
0,120409113851514
0,122690170139249
0,117607065824608
0,117777457823862
0,11908371057449
0,117638116028182
0,118548766931314
0,117320630051158
0,115319656123742
0,119017230639565
0,114105623268994
0,114386086191712
0,114095265394098
0,115321223238613
0,112460958772483
0,113053099275603
0,113976748319535
0,113128492401665
0,113577387346757
0,111368802078267
0,110988254299453
0,114985609115134
0,109830989853071
0,109323969546823
0,110747840488809
0,113808834740083
0,110404546435558
0,110692917305419
0,111825411867911
0,110315364874581
0,110246177778232
0,109365900808315
0,108536505750767
0,110129538454697
0,109209833552774
0,109206637982834
0,109318218037438
0,109634914986548
0,107769108433203
0,10985177595289
0,109897438997597
0,108368059737707
0,106866472450587
0,109793882856285
0,111280630944245
0,112305533253356
0,110496242609771
0,106070928905972
0,109390916832819
0,110277804059227
0,108631980699427
0,11006213989259
0,106529073663573
0,103958894528856
0,100969686081299
0,0968297984178486
0,0926472388859876
0,102682670540594
0,106752398466727
0,105085451931361
0,0936978540016448
0,0935856968220643
0,0993330059130696
0,0994193889735985
0,097260070036477
0,102313002540713
0,0993877552147032
0,0962636611697899
0,0948908838357086
0,0927217677393289
0,0982301009743847
0,0913221762723486
0,0971035534799952
0,102225603916795
0,0949809425297888
0,106492411142761
0,101969759035381
0,100685421845697
0,0971682990322876
0,102190018156708
0,0923946225253215
0,0958231140909926
0,0988587311586809
0,100003147673956
0,099805246475691
0,0977970695785738
0,0974219546314888
0,098563443079626
0,0908995425389908
0,0981578763264433
0,0936812332651149
0,0945943520660659
0,0898284290031389
0,0873048475803725
0,0908626433312149
0,0963063195860865
0,0966712951746342
0,1002224498606
0,0888528497899682
0,0869754189591396
0,0957731267614839
0,101446898544095
0,102738027694449
0,093026233108714
0,0938610575107658
0,0928253851237247
0,107504511340715
0,0935875087298599
0,100001641198398
0,0904497782740254
0,110423525453578
0,0863447259632202
0,101510997211156
0,0948172439027976
0,104401965377984
0,0940101919629311
0,102167883488768
0,0949862560896201
0,0968513550994116
0,0967643774641588
0,0954871234653208
0,0976819920721141
0,0940467505061567
0,0998194198941779
0,09529731432974
0,0955137576483495
0,0929414262919864
0,0941954370646381
0,0955822271377514
0,0918888410324964
0,0936892657926915
0,0917329237600244
0,0942554629296922
0,0936649542228598
0,0927278701435554
0,0932114281061522
0,0913669307187652
0,091214678321061
0,0903656754927786
0,0911380871035303
0,0912083263015394
0,0905053364294612
0,0924740932027064
0,0887745839933648
0,0911183834051728
0,092580665310054
0,0915733214639323
0,0911707527281172
0,0921049011439957
0,0879918472045445
0,0912359877615992
0,0901867853635154
0,0900243840992977
0,091386884009789
0,090974166809403
0,0906156628991016
0,090508243929153
0,0913521758687879
0,0919544174325739
0,0915848329805551
0,0929713695692777
0,0906955882793189
0,0895294699824426
0,0895874847062376
0,0909504220865099
0,0905520494760404
0,0916716978395083
0,0919191402519036
0,0913812870851485
0,0909409271267342
0,0922901383844661
0,0913325920043112
0,0907930213806604
0,0895888550059322
0,088941002824468
0,0889447758027648
0,091022787738169
0,0910347221114274
0,0909932590115316
0,090340040436097
0,0930054517114284
0,0915698268698625
0,0904937147301259
0,0909917028541794
0,0909350629947693
0,0889884996629372
0,0916517353729253
0,0898974423234003
0,0891164548371817
0,0901216758455214
0,0895886815845417
0,0909258584211345
0,0897011211956093
0,0909258545698382
0,0906101576886103
0,0920004793381588
0,0908507395731374
0,0903513434847616
0,0910755928268771
0,089936402967895
0,0881086688955473
0,0908285840424958
0,0917631392789054
0,0908995993770111
0,0898449373265523
0,0897359142602751
0,0884622695053075
0,091263220539966
0,0908234143649837
0,0931723716354863
0,0917990123092187
0,0902880739569362
0,0903152624938499
0,0932353563040957
0,0923695934391757
0,0887831211217788
0,0922562698075015
0,0934545538190126
0,0914598470111202
0,0912581008090596
0,0887106753190927
0,0918724316008592
0,0901387298464919
0,0926091727479346
0,0934780628626314
0,0928607797263567
0,092488622377465
0,0930472359971959
0,0940758560580235
0,0950501082173301
0,0937421081249901
0,0919684196594902
0,0918034069330138
0,093178502817808
0,0899959563013369
0,0933000972254646
0,0934655989503593
0,0938559159364202
0,0947255108919179
0,0926816288920341
0,0931214337489384
0,0926546100178903
0,0938375446371269
0,0941908324055137
0,0922926524619326
0,0946734194414312
0,0920356365819331
0,0931939630819497
0,0926021603544574
0,0964267556551765
0,095325565169903
0,0936977636918903
0,0921677980978393
0,0944442074232059
0,09272498174831
0,0935402275662253
0,0938807215987328
0,0947383450004745
0,0950027263755049
0,0934124122640813
0,0917973254887081
0,096705981557657
0,0963689466308393
0,0958650695666142
0,0927587797556593
0,0962106216617606
0,0955280977866728
0,0941410494816411
0,0938803662845983
0,0982869457379748
0,0964143488856105
0,0976658116486786
0,0946579662556752
0,0966485311796375
0,0960371335505986
0,0979063647921128
0,0962659112662436
0,0983356932891915
0,0975356874853966
0,0942068132961185
0,0975011155426667
0,0991346739749055
0,0982552829720824
0,0989456042130033
0,0955257055736144
0,0955014824554475
0,0957894727756065
0,0986707755895017
0,0979028660009654
0,0967909028770703
0,0980906560498897
0,0991595601301005
0,0981805324556317
0,0977715405625759
0,0967755571389117
0,0976592836982938
0,0977249854328563
0,100639553319936
0,0964207050692316
0,096545649415523
0,0962553784581292
0,0976105389401991
0,0964776380413221
0,0951100529936365
0,0921741012492836
0,0968182200325561
0,09262513902133
0,094351835499107
0,094852755094065
0,0953855362936457
0,0944740879944818
0,0923994061161834
0,0921119046502561
0,095500514955704
0,0936544422907703
0,0953651471369502
0,0947645549816001
0,0962607680995802
0,0932970868446895
0,0931871090899956
0,0931866589248242
0,0945891490734337
0,0922714022172743
0,0919375268653622
0,0920420033336378
0,0935764768731306
0,0934645842123246
0,0938653740277262
0,0924765860834364
0,0938616204983725
0,0916831029585184
0,0932526157895071
0,0897734958198423
0,0914747487983038
0,0913647526046774
0,091314432160099
0,0911735844067896
0,092628679708711
0,0919810215916797
0,0927678936437356
0,0913376000518415
0,090423742112549
0,0926248179293006
0,0933562439558275
0,0895616726288024
0,0907644642464236
0,0910619427611754
0,0929628386813366
0,0919912297775718
0,0919970641970563
0,0889306375373164
0,0912587409313449
0,091180358717015
0,091013822904264
0,0895087516067396
0,0912971454995782
0,0900677926667098
0,0899188692394274
0,0909379142778703
0,0913836471876346
0,0887828987862198
0,0895527706304346
0,0886583459176381
0,0892853610297162
0,0887471855304187
0,0918379976589059
0,0891112865026146
0,0900340216583631
0,0869449073343947
0,0895034405019574
0,0878966350818971
0,0905215126639477
0,0894037303024142
0,0916212275061835
0,0876897118521896
0,0904661045450739
0,0887450782113258
0,087688371603632
0,0863899837416365
0,0900170934639845
0,0891678961062691
0,0926467321380932
0,0907461313826399
0,0905319393734076
0,0859224061394963
0,088161686167632
0,0905719198337356
0,0886290840454386
0,088153983207007
0,0879861762763223
0,0867683724183839
0,0875114987948765
0,0869143965244146
0,089182911949908
0,0883228467442839
0,0907590045991636
0,0870341673376821
0,0881412438048072
0,0857279539315732
0,0867659795100179
0,0866440610999714
0,0890723029731695
0,0856016864998866
0,0867597631390638
0,0867786712325299
0,084456004567197
0,0850113711774343
0,088905803851533
0,0891523011293945
0,0868563083181193
0,0849997643259352
0,08695840019047
0,0831476185323766
0,0866950275972768
0,0829798288728658
0,0830834696144103
0,0830248914496861
0,0853913702323459
0,0824536075481587
0,0852068863725003
0,0840164278078652
0,0831803675855816
0,0828166306152252
0,0839917841600727
0,0822031529846325
0,0831529660357222
0,0821791269245573
0,0825726067681832
0,0795982433080422
0,0829877461854469
0,0790239578414051
0,0823188324878291
0,0814739070950693
0,0861085879473043
0,0840486436198053
0,0839292377800301
0,0791993660457454
0,0820873084997854
0,0782743194653525
0,0810741578833894
0,0792099120933532
0,0801022818400775
0,0761129261931666
0,0775522145510306
0,0781630263269115
0,0804669644381334
0,0757434382603133
0,0784825480167097
0,0739161752697472
0,0783931889362047
0,0756940270473156
0,0765741569891347
0,0764783444383924
0,0783131209551352
0,0761640387947888
0,0776303718733483
0,0741539890594442
0,0748515116225839
0,0735964342919367
0,0750570825345853
0,0848330791351009
0,0885260123340092
0,0766988760584573
0,0757587087917663
0,0784886554541455
0,0775639228241838
0,0756028709594101
0,0768186670619269
0,0744097996597386
0,0748544097374513
0,0723568399446141
0,0776109477435702
0,0745175646759504
0,0736763816381599
0,0731712193867993
0,0756848794090771
0,0739180673727664
0,0728100510125082
0,0748489076530815
0,074375267825636
0,0728063732612175
0,0732947802248636
0,0732532693833804
0,0743011287794542
0,0728401750339493
0,0721195472133653
0,0748153926382315
0,0824376691537426
0,0794553202875746
0,0762762229640104
0,0722447860923419
0,0699633610983717
0,0716632553124193
0,0742843712812304
0,0714558574793618
0,0747138394547714
0,0727788865487352
0,0731047839981165
0,0713109941382389
0,0733163211207023
0,0735287058772283
0,0723099553755284
0,0706389757041044
0,070889184007683
0,0701938264781395
0,0718520014884537
0,0715671166329675
0,070383240827917
0,0685016680653856
0,0705056499056849
0,0726310032287958
0,0743362447880273
0,0684612383380847
0,08432551009052
0,0849304541517935
0,0808788609697064
0,0688406971264701
0,0741964173848411
0,0681520904522595
0,0708195092510832
0,0660100692163083
0,0697387675940195
0,0684384643908331
0,073466683965032
0,069407114167653
0,0709770931022968
0,0670202139903488
0,072995839641664
0,0696588158620404
0,0703820436742415
0,0679853571678889
0,0707453353891611
0,0678817158732421
0,0717316175353025
0,0754196654241014
0,0894778061630184
0,0772721522091284
0,0766044058619201
0,0651482593220828
0,0775302367971141
0,084520739117387
0,0848109528628476
0,0667593927005591
0,0720535857801884
0,0698106672330226
0,0701742486928794
0,0661629660375598
0,0693320639293981
0,0744792700292414
0,0719482667059738
0,0753905061923396
0,0730986584129571
0,0697716634178938
0,068277294594275
0,0698782840111511
0,0693272620199433
0,0684659713600171
0,0697140262946289
0,0695679630194081
0,0691398131300891
0,0648469046795296
0,0705352568029227
0,066610029167305
0,06839200660477
0,0757245126655972
0,0774303659620528
0,0668545229699031
0,0674068690545412
0,0688250173216118
0,0671351824112378
0,0836028579306982
0,0832390530373201
0,0763794670098503
0,0662604034533801
0,0693643125789876
0,0686392060720291
0,0721339034252263
0,0680260682555146
0,0701641839865337
0,0675148189776597
0,0692526194159527
0,0713905315915263
0,070638722226445
0,0688939353318103
0,0670301886977769
0,0709716287140519
0,0676658504766176
0,069267822392569
0,0651000582403229
0,0707271743749293
0,0670600196590322
0,0769800448974904
0,0895091756670939
0,0973377366357405
0,0885530606951111
0,0840362305204731
0,0749820358323601
0,0727820145495215
0,072893078915067
0,0672534942777428
0,0721028682826869
0,0680031417302241
0,07020741178635
0,0671960736356137
0,0723771483868846
0,0674163015553119
0,070058260886652
0,066169072115998
0,069367313586863
0,0672396461262748
0,0696529304638255
0,0658206322886119
0,0746082699759607
0,0620557689867711
0,0723207785461214
0,0737373814976906
0,0844836003796637
0,0678502715641611
0,084574954421462
0,103599224551171
0,0936072142479393
0,084601302851936
0,0718577950750838
0,075915822605423
0,0643614499192579
0,0708802993400498
0,0706933114594967
0,0790128564151912
0,0698213269876669
0,0703806668800319
0,0690737550808933
0,0761483576013133
0,0677018430110489
0,0705213114528133
0,0936205131933345
0,106992182713659
0,088685689913202
0,0747452221774258
0,0679950063824671
0,0963416533177751
0,0939548854426719
0,0842584917634274
0,0732597652358142
0,0796493306036637
0,0709894732153777
0,0756286699550421
0,0711130695576096
0,0771940014995219
0,0797255736113999
0,0765164890999464
0,071272232793652
0,0736202431237051
0,074454523175699
0,0746673855212059
0,0795579935699851
0,0916688205570094
0,0842882297620603
0,0777928654798424
0,0794172238752286
0,0821175913902385
0,0722286652906517
0,0761918664661771
0,0728699178050464
0,0771246701602068
0,0922942000839714
0,09034463351912
0,0891252717161506
0,097095097352169
0,0871353521581485
0,0780688170667228
0,0777310794860473
0,0944461834213975
0,0832299958356804
0,0769585652894939
0,103519895663216
0,0981090928037027
0,122727183230726
0,0896106311790597
0,0937374298183789
0,0702743750996935
0,0904402229218854
0,0672731067209777
0,0963149942172085
0,0906618333097309
0,0956262695045418
0,0760488461531396
0,0829467265997126
0,0947437826528206
0,0931224201350953
0,0923399862498717
0,0853475156167538
0,0791993155412339
0,0883973059509144
0,104716789219087
0,0855514102252166
0,0999613312800287
0,108085172562305
0,13483973292662
0,115061519040289
0,0862207815748309
0,1030047120213
0,111108591017404
0,1013672293443
0,0851093942381926
0,0918672219037335
0,0885717662283081
0,0830493728732165
0,109034440041773
0,114762337516239
0,102621621605678
0,0935091611181644
0,0904546831598624
0,102334743540192
0,116512237899066
0,109719483429122
0,0917350586390848
0,0988861011741461
0,0885814597976168
0,109050316538958
0,138263952735903
0,121540296499933
0,131046689078162
0,121111264050996
0,135993032357267
0,11051371058212
0,117766221316689
0,0998360500911589
0,134876684062128
0,121203008900562
0,111136850319551
0,100354909698862
0,144645403883869
0,119620821718547
0,127407943102969
0,104186014021565
0,115370674608702
0,116215466803911
0,177065343581371
0,180756585335579
0,15657812772107
0,118073820043433
0,137178742062023
0,140133984719805
0,131629127096242
0,118155297815549
0,122994082774453
0,121318201292455
0,122865484976532
0,131299272159888
0,137760483948302
0,13241885109064
0,13701263639402
0,12719459616593
0,14592741333195
0,158637205874905
0,225322137841831
0,161627723082321
0,182118370206201
0,168471662817375
0,181674021801271
0,153625046665059
0,144107868886059
0,145095378687218
0,158314775773176
0,153467925895504
0,148452712163908
0,158848391631987
0,185490641956425
0,16742551834689
0,200952638196089
0,168180789229784
0,183055742189681
0,152666060322155
0,246172798073971
0,25384481193194
0,235510668454187
0,188466998502595
0,198640792978129
0,236644810176728
0,246867193504074
0,215789331197387
0,197672094264728
0,200038896544671
0,202493188436489
0,214458542682982
0,226127964404437
0,232294874409589
0,245789489401795
0,226021526718188
0,244091587814883
0,261078881616069
0,357647787542383
0,331723509420818
0,274190955028436
0,266026249639102
0,288259380237703
0,288692985197105
0,282423027580112
0,282475818963091
0,279955408749634
0,338094652780459
0,329882370804955
0,330367281754259
0,295671804126066
0,347898992577518
0,332132282671899
0,346752658532569
0,366989885284681
0,380368587853587
0,354391877413212
0,344405042169653
0,36481620207139
0,347332760902686
0,378170123172337
0,391789271133971
0,409627463164419
0,383692238700771
0,391433919981773
0,389806642652635
0,393504625848448
0,400946817372838
0,40175500789082
0,421073296893958
0,463701343278259
0,493876270551353
0,581884626602893
0,459607564313569
0,438653211356992
0,414018988395616
0,451332702110384
0,466220471512294
0,492406678801536
0,484841465651365
0,473774751073632
0,441245158477615
0,435420805856083
0,444321595540097
0,429036925119626
0,444292449230013
0,431347927376655
0,446079556865991
0,464921780194961
0,446883161003583
0,533378112989217
0,490853419654019
0,459238104123331
0,42250379248666
0,442608812052811
0,424845010318244
0,437435570407777
0,418958583609789
0,464731824520081
0,440695842160468
0,452371269005222
0,409523808129114
0,428507033453846
0,453078064652321
0,452812763159195
0,421600298802686
0,410838996889469
0,408029173103207
0,411992481516644
0,396251151415508
0,466070998947375
0,450791329006108
0,422041496621868
0,384948212902937
0,404957613093491
0,388861074499062
0,395730945716736
0,377698057644176
0,404664942158866
0,380991728832358
0,397919123574798
0,387609864631263
0,389769991809414
0,372020370730605
0,388425101010264
0,38131227160839
0,383407365568497
0,376607828096046
0,38092138703507
0,375008547399389
0,379493332198557
0,373402753323795
0,37585044098506
0,373906855832165
0,380581356851039
0,377563717844114
0,375464961620755
0,373051847861633
0,378156595596994
0,378141216358868
0,379904806295943
0,373742336338977
0,376967935236088
0,366828652699858
0,372419435237691
0,368577190508089
0,365241663592488
0,365845431092432
0,363771291868091
0,364316137648985
0,361299305786015
0,367426781559792
0,359797150622206
0,377628941603823
0,443053643241005
0,384524981212782
0,374852120656879
0,34914665519981
0,362585186050814
0,336221591253165
0,367437135989072
0,391390434470168
0,380448518980201
0,348852855288152
0,341808492013873
0,334391645529141
0,371324408580243
0,336652165866839
0,341233142979802
0,324677397532623
0,345770006624193
0,401356052721285
0,429980295285403
0,469264539234033
0,416006277370625
0,358004950090615
0,31517263490206
0,369200608591123
0,34855900070432
0,334610410208712
0,309478158754893
0,31174596350482
0,360402793383183
0,324871294939494
0,313776575933257
0,298131400825115
0,315332116442709
0,349640839731672
0,342336251629504
0,331594659783224
0,352421983144227
0,340006074235495
0,352147992140718
0,369558741250908
0,402512477528071
0,320827630225814
0,292336974487339
0,291243105265421
0,285026766855318
0,315121049105202
0,339340622604528
0,297811840592081
0,303270245257436
0,270291294432963
0,282398013892877
0,27357026644818
0,316330748590693
0,269208368730795
0,314598399394162
0,292331574714315
0,287743546405931
0,287868456977632
0,30852471046902
0,334044776004648
0,340222791248911
0,273805192232353
0,25988545016527
0,322957605564994
0,306852266342005
0,284808164225247
0,280952429959264
0,244230971413763
0,274155956639935
0,267490744289999
0,256861271905755
0,273348778308411
0,277301803871266
0,308262732155419
0,33629033390053
0,362773735013557
0,314592934460907
0,252771916942292
0,244985103849072
0,236771748955657
0,254661654683709
0,237457480427405
0,246704219108538
0,288766290430211
0,241236275541557
0,272241128590579
0,287421665605262
0,263323306066019
0,246939963078452
0,248911044359124
0,248015010034944
0,266242011139899
0,297488074921574
0,318612521457765
0,276905497737166
0,293297858599575
0,290754860489184
0,284738212721521
0,267644939380264
0,275520457038791
0,273382954339034
0,287306040340295
0,302087999524509
0,295530259153291
0,297875029942521
0,306474697425399
0,302077852651461
0,364432300459066
0,338095019114319
0,347363351939689
0,372212153609644
0,389498688724137
0,428712292496654
0,370391945684627
0,365956786922357
0,356787734312909
0,377302613484977
0,376524185293394
0,380642160126411
0,416402829756331
0,421185138706693
0,40479970725766
0,403670128698648
0,408244351180751
0,407809494742367
0,42906650951549
0,471613970883938
0,459236424327691
0,545662824938738
0,477396979390189
0,487874248547451
0,43774694605606
0,440367695975365
0,450257499195815
0,460585546818443
0,442646081514677
0,44587202205991
0,464299998879092
0,486220975992347
0,458769742609333
0,461299992910288
0,455513894768428
0,466522831569869
0,453039327463858
0,466269670805039
0,463525238471803
0,474474673426001
0,477722741316751
0,477477153834901
0,503738430823383
0,574380662410528
0,512169321049975
0,50002189529699
0,496305946331724
0,510971783082798
0,492173798678703
0,509625282020689
0,541000554131917
0,531551179493689
0,523329900690598
0,524017102988978
0,520534220482096
0,520811603841152
0,565477076690146
0,558518135511879
0,541530402000733
0,542847342367578
0,530395905460371
0,618833806036649
0,583661323216723
0,596978299350532
0,569690107701269
0,56774343357802
0,549721806266146
0,563605436526653
0,547715259116835
0,570757425154965
0,555748103452238
0,567394593743943
0,564121051972386
0,559096346470624
0,559062995024955
0,562598847044162
0,567214359741331
0,603357586834276
0,569280021153905
0,560416658154511
0,557239724299168
0,564531962752385
0,553929924468361
0,607610753946339
0,570633923452253
0,578378946361588
0,559369359619654
0,580025964237746
0,592116844960759
0,583703708104602
0,553073806075187
0,563143120587418
0,553037064985934
0,570652931324187
0,544757170003364
0,587931642738993
0,59319013009303
0,594523183325299
0,568632488218904
0,572585400437541
0,567373256409138
0,578219853461655
0,568635147612082
0,592488715228347
0,587284404879403
0,596897493148572
0,593776753219721
0,593985586450565
0,588555653202989
0,622039771227604
0,615452096309488
0,619856955662833
0,584002024416527
0,596971604810059
0,587858080314982
0,60373812507639
0,60279035492499
0,59315787830031
0,572926772971658
0,588138055324753
0,56066547901305
0,587510738433218
0,60124454441439
0,580863452083013
0,58222105783651
0,558388397314197
0,550217653716523
0,55953509110601
0,546780985178014
0,548343260616486
0,544567492166899
0,544211524611982
0,537511097267717
0,537081707316036
0,532714679369502
0,533263321209408
0,524436196922982
0,536925220754344
0,526138016843866
0,529406644999362
0,524591369385704
0,526543143110082
0,522580289106786
0,529828914591803
0,516434591646323
0,519940328233794
0,537082033365037
0,542747005567034
0,553022193825832
0,529233130587233
0,532629918829817
0,527141180554996
0,516929946258485
0,524756823912239
0,51638002654628
0,519937552861976
0,512820772382822
0,523208117771493
0,511611290839354
0,51293857418871
0,511836582617826
0,515049205130868
0,506455283908492
0,516560561405268
0,512494365124398
0,507310374192319
0,505626885327034
0,511219006464881
0,506038684516371
0,518767676528952
0,504511485192692
0,517485222883702
0,504124930136993
0,505437678693395
0,499191763605369
0,507369809151107
0,511338404138292
0,50640000216128
0,501945960903647
0,500844445714486
0,49691261560667
0,502045811020733
0,494602111186599
0,5028795970666
0,493293645062177
0,500280822685693
0,487971014860047
0,489117560720278
0,483626180906747
0,486646513049851
0,478939524981534
0,480228679475813
0,47622648003942
0,476454657398547
0,465129912522266
0,465275440981395
0,457794167368282
0,457941185187507
0,450619747120696
0,45275352915712
0,450187435693713
0,450045949907179
0,447069735290929
0,446913312523562
0,440517500190483
0,441762187324253
0,436885866244641
0,439600472039743
0,435551069035468
0,4397167696899
0,43265411591826
0,437002895267689
0,432258020549836
0,43695662684132
0,433609707889621
0,436375317692733
0,432851607397751
0,438193917232993
0,436334039417358
0,438379972908736
0,441266119522902
0,44435899863008
0,44457452307956
0,449667893001483
0,448294039928073
0,449995966759135
0,450737308650205
0,457986862132857
0,452049498882542
0,457905321581792
0,455280113660299
0,455599702404813
0,457509532970606
0,458845681776644
0,459909150304465
0,459359617134747
0,460132044103378
0,461093374457075
0,455099989862808
0,459591666251889
0,455001081639275
0,457739124150821
0,455444124980337
0,455302153601119
0,45261152533334
0,457551391693227
0,449162223874161
0,454837687172269
0,448052493694119
0,447758629553545
0,449743605846536
0,4501862231704
0,443526815779261
0,445019818091065
0,446746036089845
0,443372380820638
0,439355626545352
0,440624911533535
0,435717606947654
0,439551993457116
0,4370453085052
0,437325043463619
0,430614196429252
0,430169811730351
0,428191811193468
0,430052330816598
0,422862848870539
0,426793757143468
0,425209909249226
0,423372971588644
0,421847082447918
0,420017932146128
0,417831321529345
0,419009090957541
0,412852549819495
0,415512289612089
0,408789900591155
0,406713062483759
0,403243414138672
0,405235915750796
0,399396906332549
0,397097183711834
0,397479062259627
0,394648422561527
0,39000769770941
0,389271834589076
0,385860755460054
0,383829925917618
0,380836034330736
0,379621054441358
0,379674950219147
0,379018995940383
0,374723473229706
0,376997208497139
0,375629641844115
0,374643046556615
0,369196988624675
0,371363423547428
0,368019369269528
0,368044447107175
0,366037389141526
0,363547933937254
0,358320850299665
0,355036259803882
0,352142359578571
0,349400611828556
0,343202414006889
0,340141959092146
0,3338115769047
0,328914604367029
0,324891140501766
0,328041428046946
0,323080444431116
0,325639071010572
0,323755383757871
0,327147251379273
0,331374910472751
0,339254303833421
0,342232877553049
0,351490519676308
0,359506021249835
0,372274312216692
0,383269064691107
0,395174482277681
0,408966868468594
0,424095646943969
0,438521037264944
0,456955262612282
0,466348583996944
0,485552967238426
0,499550826070682
0,516399976852513
0,53163097691364
0,551641180900692
0,564095589002347
0,588563501622009
0,595410426069971
0,612026081535162
0,633297988210529
0,647377044107759
0,664955111288946
0,675061960340777
0,686995013795754
0,702459540635406
0,712883308811399
0,724370821292134
0,73121616089529
0,744075534601409
0,745061166465112
0,759679750833685
0,764525849179354
0,773953627508886
0,767589724830175
0,770802354343964
0,772034363622365
0,771941237791411
0,77439592804936
0,77610092072635
0,772622612043772
0,772545049418142
0,766111167496581
0,769175354486148
0,772286288306481
0,765882635368799
0,768515116859049
0,765002715737618
0,769629500023644
0,784082308331914
0,778975126622754
0,78440120196648
0,789055552822454
0,790166352827071
0,80313763296679
0,805837433341987
0,809778140142506
0,825273521849471
0,825164344240949
0,838167587287323
0,844949496861493
0,860792944483754
0,869270442147856
0,872170029182643
0,872921650604692
0,898852255109608
0,901861268496974
0,916457390723416
0,914260578958569
0,923971437714713
0,928138589003464
0,929617359201251
0,927864878519598
0,937850555132741
0,928632359817537
0,934770099388566
0,928685646381853
0,921785538416935
0,923141862786822
0,926652702145696
0,92504822679384
0,930365658425293
0,94814250324238
0,947559989346297
0,943119490739094
0,957789317559875
0,964970423289109
0,985494426264579
1,00050191313134
0,992668327205527
1,02530867065775
1,03798024213253
1,04667304541902
1,05147850546879
1,06882055419503
1,08540195726516
1,106208358673
1,1088106782798
1,12754373392318
1,14355247877474
1,16246155442968
1,18220246021601
1,20110639312905
1,22762824868247
1,25002614103387
1,27978216448495
1,30868341655655
1,32935011353976
1,38140192046006
1,39180454910479
1,37065293204034
1,40227061371574
1,42846136648094
1,42785136415078
1,46241610857641
1,4922604567436
1,51317938015228
1,49083308775343
1,48676103011387
1,50655997193009
1,54633579827945
1,52430329429844
1,52197878863188
1,51356140297769
1,51823855990818
1,53622817475881
1,53462074008319
1,53935393112965
1,59156645928769
1,5590908471794
1,541886680278
1,53703308256541
1,51879292795643
1,61512243350701
1,55301676013731
1,56222345510743
1,6254114888621
1,53701063884967
1,65529128177852
1,58640210273385
1,68881131158686
1,70025737069143
1,7049595886336
1,73064269637351
1,76042386139349
1,66120355534942
1,76496555642489
1,77021819170789
1,7777962865788
1,79146281295963
1,85899103000809
1,80990690538821
1,8706284239644
1,87945803748355
1,89266321984506
1,84851738629584
1,84334347095184
2,01967007053188
1,90356154625586
1,87864982616475
1,96208667571728
2,00505962824225
2,03077064013363
1,91707540354237
2,04555253039183
2,08112736870849
1,95585602906674
2,04157477630588
2,08221674119134
2,02635875320062
2,2120982729233
2,02693183387733
1,99751702326961
1,99820344224746
2,16060501624592
1,97131636927414
2,08292892210326
2,20273119347445
2,08199904690186
1,98865421696217
2,2485191539501
2,08826624108063
2,11433798549739
1,83099343792455
1,94104934950774
1,81441703040651
1,65940291921389
1,71063691364014
1,71138523045197
1,61314494679445
1,59435988459523
1,5840637305202
1,55622527484821
1,51036528572924
1,59951252970564
1,46839712524147
1,51913378648739
1,45243470182704
1,4835212350843
1,42560145033987
1,50480557203115
1,41455136358333
1,39265352743014
1,36719532418762
1,36423738492821
1,3505675429079
1,33308472200804
1,3006920995649
1,27635807804511
1,22183098453794
1,19786509202951
1,17065102976515
1,13602433316509
1,11098344398808
1,06990380265393
1,04163201425925
1,02076771001272
0,964217956040021
0,918490851993545
0,878279583502657
0,852054653338474
0,81236426033109
0,777209901855326
0,743867877129556
0,714788342023166
0,682011068005401
0,653202517502324
0,634237510006847
0,609023284194568
0,583601127290387
0,563971882428505
0,547806546630436
0,541464941906979
0,515804461096076
0,511930685051853
0,497894478745572
0,488094508513047
0,48062154868885
0,472783291713617
0,471320132616403
0,467998227765198
0,461828848104664
0,457899482363998
0,459167317804373
0,460799998940365
0,463429067568495
0,462560400620301
0,461664373784775
0,470806266531112
0,474618588055283
0,474073517129819
0,47247852943328
0,47309716770204
0,471748345540069
0,467936344032395
0,474231647153646
0,475320647534053
0,4704519502396
0,464310907923708
0,461163403722094
0,454187667791399
0,447876751734451
0,457660972460766
0,45715573335941
0,455781220220235
0,448180580003673
0,455182860568045
0,449285231494178
0,451523275610619
0,453779901869285
0,453868882629353
0,450949677937871
0,463052705858579
0,458668753950281
0,468833015873118
0,459131676758396
0,46303603543971
0,45959370899557
0,468349457312712
0,466686587681493
0,474392264830732
0,473337185706907
0,473429599933097
0,465733565712218
0,471031256583632
0,469770095591353
0,465976425753934
0,455593929546182
0,468870116276984
0,464876692634689
0,467300471481881
0,469610634068597
0,473186219569125
0,467791423982642
0,479807133013465
0,478270544774635
0,483093281310745
0,492181038545617
0,50546342600925
0,505768959868619
0,511212082728863
0,528590552065452
0,543717316406161
0,544917863059763
0,561875461958388
0,580988695767827
0,588121021138766
0,592138658079134
0,600672067265082
0,594711103656422
0,589691801010942
0,594494123893934
0,587201427343447
0,566892308243921
0,573215497765315
0,548931073290257
0,542324652311146
0,539588178892511
0,532309357348997
0,525125980958705
0,532980487900019
0,523344266919425
0,520665568465473
0,522798003411284
0,526723321209439
0,53287233772376
0,532568559284
0,534333225523364
0,542725624647678
0,530138058059407
0,534693518794019
0,526144636746085
0,526634466976544
0,515789880867986
0,508684132868301
0,515597057565326
0,505956630738649
0,502115779980427
0,507612494825935
0,491329572854512
0,495890453375503
0,490737878256357
0,478000006203987
0,479468219643829
0,48914515550107
0,476155341728844
0,47070572986063
0,472338138938511
0,480973360619606
0,474138547625204
0,474439826531548
0,467151096254674
0,472609856148085
0,460067098333709
0,458612462555274
0,455054746404477
0,459331687968194
0,466192110864825
0,467369703383213
0,45541135094858
0,437313570402376
0,441992681889496
0,457601388152151
0,443403239952616
0,434779102891442
0,442043548840014
0,439340066014682
0,427756765237069
0,425479246580692
0,42068219408016
0,433501758283977
0,419156310572019
0,410903527340255
0,406066386168153
0,418571060224031
0,404795597432827
0,411669826750897
0,419779266393376
0,404156868443099
0,400798166870261
0,42051680451015
0,41915396540812
0,427959036291838
0,412164182258473
0,427323313748892
0,432313231464029
0,422092247037186
0,434655208244948
0,424645828692737
0,427619521765066
0,428595292627832
0,426473740892976
0,450006579060614
0,429965352953556
0,437120459029963
0,439573101781613
0,436890982726225
0,442067343433517
0,452189148706035
0,456497805107068
0,452966803192538
0,450816105733151
0,472088127589783
0,461950759666209
0,471807663483889
0,477040201113955
0,486872936034292
0,484420689705621
0,486038941743893
0,506735679983286
0,524385338276547
0,510154976813465
0,536824976797402
0,57004401948933
0,595140981229749
0,592651162241084
0,605399932405648
0,607402532227685
0,616419562640007
0,637006852539872
0,665211405434617
0,643750468143884
0,673787844117762
0,680138096666683
0,708253157889256
0,70151804758513
0,717556554877446
0,689364653893097
0,727075787587079
0,710139618393315
0,715775671874612
0,716131612532319
0,714375180105595
0,70109871046632
0,701732696017265
0,701763544737422
0,722720352408848
0,705394340661572
0,719353353052016
0,69042786332359
0,704358391874027
0,691040766681254
0,69370962260825
0,640503140599984
0,66712607681412
0,677510704057539
0,692996319574687
0,684179278048582
0,665773670709299
0,644912618645342
0,66828097423136
0,674938648936632
0,694471083413993
0,649169626453678
0,683294655691485
0,654404050451357
0,642200309549764
0,643564796841865
0,675488273629518
0,624733162768851
0,627653547815765
0,660686996439281
0,645466868515922
0,60764039341292
0,6337769401294
0,629558355266055
0,63095280929367
0,611888693502173
0,621535704091738
0,627430772744212
0,609469373822475
0,612452960402635
0,668040232872177
0,634246413973811
0,651541803047771
0,639683534782951
0,661774403601301
0,651620614960682
0,665444046654632
0,647288794117652
0,628369016290468
0,652783656948662
0,714696821370602
0,685846305428994
0,707223228975676
0,678608070775863
0,671048816347342
0,66702696251528
0,679950761740178
0,712678160287007
0,735025913089808
0,705503130547075
0,715503724260653
0,684770905486583
0,676650963082453
0,729708840708669
0,742605857421635
0,683049502164344
0,770877352060772
0,726273871801792
0,783544707788138
0,817811515032431
0,792377041688769
0,827030421625626
0,813024262293336
0,725567155971807
0,770489494670383
0,821996762936905
0,966411252509973
0,868219412954647
0,858793635101666
0,901893794377507
0,878502842541826
0,904092361652363
0,91995873118401
0,968390382395103
0,927992834166358
0,838087207222059
0,879946053375842
0,775897949377579
0,906024599060754
0,916934241290421
0,869966517203774
0,848353532569188
0,788696366008059
0,717561633382104
0,819316364752757
0,823771844471762
0,770009238537968
0,867075745842919
0,817549455606386
0,678391988534629
0,94393924822738
0,994642191143981
0,80409405938643
0,792467235287951
0,646840991134743
0,733984440584564
1,27962080974738
0,742271547398474
0,905234048051918
0,844818162119545
0,676180190064886
0,767490157648141
0,875857241182963
0,93279009606151
0,857009068655841
0,77520843289747
0,94290338310372
0,810581793887571
0,767253275252593
0,790503138998612
0,692432208294298
0,742556501181683
0,794342517973406
0,938662763179089
1,19465705843074
1,10013409361246
0,815997246311717
0,780800494172641
1,08982994956039
1,45116178465977
0,875792751546001
0,664328635288978
0,745407540187618
0,714027113157382
0,900890979094115
0,954040856805531
0,610798805783487
0,654037902215262
