3596
4000,36533379555
650,420452594757
1
2
2
0,120445417827895
0,123414516245407
0,115357421821742
0,127766861429639
0,123739468763493
0,130247719945828
0,119309127471037
0,129230082238763
0,12592558958974
0,133571360483653
0,126583152430259
0,124511628764199
0,118730733502492
0,12693363618787
0,11695584556301
0,129710058256948
0,110610807239655
0,131571098139593
0,119660673578858
0,127915429781042
0,120425468317516
0,13442438878502
0,113215613362657
0,129699472204618
0,124208928460212
0,132857412442746
0,132577001234623
0,131998919643061
0,12231835039514
0,132064756500655
0,118585986655524
0,13135610545554
0,116071850935744
0,134595172974977
0,124107843551287
0,117957655323357
0,126584283077058
0,134217944266183
0,119099105708468
0,137014185881223
0,131437195909429
0,126903810160746
0,123165376721668
0,135353386304958
0,122604991265482
0,127759234463415
0,120265391803955
0,129331183134907
0,129167020030414
0,132376584418374
0,116760748621675
0,130597989215662
0,134791705616416
0,13161967618987
0,133508809254785
0,14892396846633
0,12702605822612
0,134793950060571
0,11234376147636
0,129038842521278
0,148482494855726
0,14072652904435
0,117560815493304
0,121988150834673
0,121293063128804
0,128174940545966
0,114156315354404
0,116706414747097
0,115834107544701
0,126113911337565
0,121755447682749
0,160814279893044
0,130341042049216
0,133972161148942
0,13548018206493
0,125458973555163
0,11151277999133
0,1127395821096
0,118983730397782
0,146170750246275
0,119989116201745
0,13709578536033
0,115895261157591
0,110474623776934
0,131635974255517
0,131625768675709
0,106279317365205
0,145584058077749
0,13790789204595
0,13578134938011
0,103096874258177
0,129786989841618
0,104604544856978
0,122448412215267
0,114784580283677
0,124382989677675
0,112426983081034
0,128362050654764
0,103716241238051
0,145028006859972
0,118261422895545
0,182592894032485
0,122280306041369
0,147107469991429
0,176154982659978
0,13312826056831
0,146768486816771
0,165581090315989
0,134364071105759
0,116777858150318
0,10878578159624
0,117252240721652
0,123478297225811
0,118014969622927
0,11089035848794
0,176757196730397
0,130019300591592
0,127416683278139
0,105622896644628
0,120249515606432
0,10266772414135
0,185141879996456
0,135945388177669
0,141390125591217
0,11572561368041
0,120393480274088
0,128977840020675
0,176284020988077
0,119903834028579
0,124845978811256
0,098928584389214
0,125933139383897
0,0946363827293684
0,155741355448828
0,134502052615158
0,127996449665688
0,117566521025447
0,126017568177487
0,170609548454658
0,178414436895504
0,11866946469799
0,121393402587342
0,107342129182659
0,152881832300615
0,149405454815385
0,127233933638037
0,115288985706616
0,159034158682723
0,105229274914609
0,125584536145563
0,102759495772434
0,127161000769693
0,133468475576122
0,130539339360215
0,101113318766684
0,252739436827704
0,141033901135774
0,2069133559026
0,127562831936287
0,137919400707333
0,115043637312241
0,120287104174609
0,0963570789421375
0,112922334429793
0,107498439825808
0,113484356113469
0,138840407675545
0,129034910070094
0,116500255048858
0,144327140201162
0,157703903230091
0,135329006092465
0,127751054801542
0,189444085360354
0,114366633775743
0,145292022195299
0,131164025885946
0,129907435435217
0,0997532351823864
0,161961144324628
0,11788206178274
0,125787326897525
0,108754614404834
0,119028160549072
0,104593699429342
0,142428664761178
0,106714744110769
0,131143844958716
0,108477295119072
0,132592125082688
0,146169447408021
0,20718928171215
0,119490773015322
0,144039537710086
0,105487307560962
0,120541208627152
0,159064273456148
0,142818668052335
0,111440911844179
0,110394072373669
0,0995884787673713
0,114017118024528
0,100545206873576
0,121125795271344
0,089625277194967
0,138625465133987
0,171247209735375
0,135823397872583
0,105655357857315
0,117874315248886
0,110469418564741
0,137066662698075
0,182081637041845
0,135703025104972
0,118217327021079
0,116520806307007
0,120057033709955
0,153230638616369
0,116745399791096
0,122539376622156
0,103333440865079
0,11265354257146
0,101468062655531
0,121507815372479
0,111619286742699
0,115134799191689
0,0991158071536575
0,118270311324498
0,109668960222921
0,124680201682465
0,124995899082044
0,119144059134137
0,112987683474502
0,123308037025194
0,100579732897228
0,145616877805667
0,117997048037476
0,125137689245904
0,106966082472111
0,122979026286795
0,0984443411380253
0,121144969062315
0,101697253808873
0,124357861988879
0,105792831160065
0,149627008005921
0,132873699080284
0,123647171830446
0,116094744344786
0,116914025200555
0,141507949469177
0,127085191402404
0,110088074584319
0,109667015229738
0,117706418774521
0,101792548878449
0,133288318305991
0,163903890839659
0,117114095750935
0,12473993099261
0,140891326608852
0,123054869462937
0,126501296408877
0,115930017312357
0,144044621158483
0,207500992592196
0,11723885764162
0,167221389232061
0,162754750358773
0,134016332617496
0,142635927122773
0,123700405943995
0,149792917104833
0,287766948873959
0,165307439704987
0,129901874504346
0,134815922957192
0,149638823496235
0,117092190823342
0,150296306988248
0,117585724351537
0,171454633028651
0,139552745037008
0,240542137792159
0,169367867771257
0,134143352545207
0,175184688631032
0,147788904501775
0,130458223532388
0,118400392953011
0,11964210661073
0,123829338310611
0,152545600281195
0,141465536103545
0,150325023871599
0,122537850957398
0,146917537679633
0,161248096817079
0,1349817145616
0,113772557677376
0,138338763223275
0,126326179141155
0,122004933113158
0,121985988570877
0,121130691984919
0,137587709297625
0,119447040264812
0,166907640345816
0,185772691931042
0,143762842039801
0,151425024681284
0,163384803776746
0,12567277211625
0,132392977377094
0,12295441308879
0,127469867484048
0,12073541138438
0,122465408087054
0,1318145442837
0,173268376914863
0,12623581161018
0,135304305139052
0,121172928579668
0,128197724095891
0,116113291455434
0,137778305662149
0,116819750494892
0,134910071485263
0,123054722002529
0,135317947256788
0,17313653537407
0,172128424342231
0,136502161724214
0,228038722278931
0,15358611783612
0,152040519431897
0,121782570998088
0,151146401500526
0,130289322185935
0,13658182732204
0,131034542098038
0,142603283703645
0,145301665130776
0,167540103028624
0,148181155600361
0,16648490658545
0,166033523598762
0,273803596053304
0,211742278258371
0,177826028977426
0,142322829450791
0,156195109414
0,213572810791412
0,18354037186481
0,222124771218288
0,18014547089676
0,161444809490504
0,157947234701788
0,158620567829543
0,169954620273135
0,159472861778693
0,173508855781985
0,155807456038422
0,182520363609352
0,168917813259948
0,187754482964334
0,157851279781006
0,227347641018462
0,21847988881834
0,192765777832256
0,190327875299654
0,190670053419726
0,190306594138565
0,267777713989695
0,223981149260077
0,295566577369603
0,213404764292054
0,297215186220084
0,237848773461511
0,225216186474719
0,200080123551256
0,216615192370827
0,211691664978978
0,229829199131707
0,20810987860088
0,232083778129587
0,218018611983535
0,247434384096389
0,222796094198199
0,244789715971595
0,222756440070002
0,248341534557793
0,255005455036013
0,263405667712799
0,247920916434852
0,258182464319636
0,288384260008567
0,360192221623217
0,315124184490917
0,262228226241598
0,278404220622583
0,269739211351796
0,277028513618302
0,285506709471024
0,276539441646203
0,29420394512972
0,290622434955933
0,348186245379057
0,300515596800044
0,359614662458515
0,308547255983844
0,301715466866557
0,324917444871666
0,335579651147195
0,336062932948155
0,349946686990772
0,328182810825463
0,330491519496752
0,376698648898825
0,349490950394817
0,366825016157268
0,367159325242897
0,335618331094695
0,348807946246194
0,326135808626971
0,37637921648216
0,344583462343425
0,395984491333865
0,360796152955048
0,383582446137107
0,380183846419198
0,390351686446724
0,390176664232573
0,426983880138485
0,382133838245405
0,437001398374458
0,410038378467024
0,404846287287703
0,379052309151057
0,415161407200611
0,450477285123522
0,468354560477411
0,468714104371456
0,457657522920921
0,419279338363451
0,4413209472962
0,423582105714814
0,471631676851058
0,441717425205111
0,475919804985035
0,449105753304803
0,47427310366752
0,445159706262263
0,489343947384062
0,480491866564026
0,492801755704454
0,469431038581837
0,496047178297744
0,478344825912954
0,516548724881216
0,494219350868172
0,515466089920825
0,571664985971018
0,590045625707732
0,581415895676237
0,587703874254167
0,534251957577606
0,551717955751481
0,543384908820881
0,564126199355356
0,538215179083498
0,591684492971506
0,543736486927955
0,598575461197601
0,549420153316953
0,598815890599626
0,566755127312638
0,627100060049487
0,571314335655179
0,630763449856866
0,585596142061891
0,649094340032795
0,596277111880309
0,637732657936912
0,61068429825001
0,670963231436414
0,640303592677982
0,694461977773421
0,652866827563219
0,67928137253286
0,641797016070498
0,688600275115184
0,678453271324134
0,682229716552099
0,6303920214874
0,705407579432722
0,651187607304162
0,738648422094599
0,705010071492799
0,738322886769203
0,688720270411311
0,705023795483206
0,724566959904926
0,764930119381076
0,710583704403485
0,771570814967561
0,776985540557044
0,781466525507102
0,746686272117484
0,763249506057427
0,732612605364114
0,887043672544651
0,758198677673181
0,786138399354394
0,773242139418095
0,802667726518515
0,793571558391973
0,805817194369031
0,795496090387733
0,832936667403288
0,754088626652445
0,866080137983025
0,794076224635505
0,870721507044215
0,833502884109406
0,903849423818494
0,843605551730148
0,917411345982754
0,796909238566104
0,915645855151751
0,854690072401489
0,887183363281648
0,867014910368931
0,954772596614747
0,855759272004583
0,908288186000959
0,854528616373094
0,932483015516341
0,898997617234347
1,02794372105879
0,878751559587102
0,951272055579581
0,918933114354787
1,00947774539873
0,908275737619634
0,922035636823206
0,958233972600517
0,988543409856397
0,923031048393944
0,998166932415725
0,926856564665887
1,07650776211414
0,979181042812696
1,01464837539614
1,04429542784732
1,06393654561608
0,950804725403298
0,997029320601258
0,98139177269535
1,02487706886641
0,959097422528413
1,10022572406802
1,01765848205464
1,07941142182121
0,99624360218659
1,15281701662451
0,969218196498126
1,06341729747693
1,03417441303883
1,04693672826783
1,0213744366364
1,11309181060327
1,06906231368566
1,224454030879
1,13646582873137
1,15970778941211
1,02247118433915
1,16335100243625
1,04297730471479
1,20234570807298
1,1541823742561
1,29496064510293
1,13932284233091
1,15023962601577
1,10243992572499
1,19197524527577
1,10412383421639
1,39528143888581
1,17654123108132
1,31241772085933
1,14350520441834
1,30934692876313
1,1873919051065
1,25832721812439
1,14924710992839
1,22214006596794
1,17049485519991
1,29528067009628
1,10249898604903
1,33769611990905
1,16975361923775
1,24240542569848
1,16454838263367
1,30704158246811
1,22886741989648
1,28444529622559
1,1889831239066
1,44482152461184
1,21467697247188
1,26413090096613
1,23097182365331
1,45765535491773
1,30228830922333
1,39959106737582
1,27076259868241
1,36256304819555
1,33005287477291
1,45552907932757
1,28573593029538
1,46877239227353
1,24335412736889
1,35225652005404
1,29718807734411
1,41194667340835
1,34521580143747
1,43985776445363
1,34400783865108
1,43613514290116
1,26420710442372
1,41477173535908
1,32340809392728
1,37617105842959
1,34518323104198
1,44081853712538
1,38798160200156
1,56056474353779
1,3641509535501
1,5247058258214
1,39766213956103
1,68795760698172
1,28956581251821
1,37611110017427
1,43428413554493
1,49174101037466
1,37827243947017
1,58923373389828
1,54776953328453
1,5256120071404
1,28560176883002
1,58177228347217
1,31342714843159
1,5717192564128
1,37976901532545
1,60194646087284
1,67439869178381
1,44462887646922
1,5997387301704
1,64077917129468
1,33148453762009
1,63463209599199
1,42482794961849
1,58765683789476
1,41946158505658
1,51801332769767
1,34402497447253
1,66183681103444
1,4707368332308
1,64983425428739
1,49478526858443
1,52328582270276
1,43900908002627
1,48162914333462
1,75821274331363
1,60830230058733
1,43182382420522
1,48001847880464
1,54269408078434
1,41755825754423
1,58035379884719
1,908602092983
1,41900031375391
1,5627630811492
1,48965594592704
1,58844599516467
1,4828259378449
1,84102906513906
1,72763514477375
1,6922795925481
1,48468226933083
1,58180665486368
1,52038747633773
1,63895483978681
1,480398803377
1,73125375322623
1,50343071031196
1,62539495132868
1,48340358163339
1,68631451642626
1,53551272587646
1,704709914627
1,65205115047915
1,68530665468107
1,54395046777553
1,58001525256915
1,66969886323026
1,7143048191314
1,64349539178631
1,6924188173644
1,49299531658833
1,63511192862805
1,45506913226272
1,63084370641469
1,5187725196706
1,69574870606804
1,84437322905857
1,63846049857264
1,60775590717775
1,63398775005521
1,54206700668993
1,65750442705344
1,60399702625659
1,66537786020054
1,52406411192532
2,13483159319223
1,87769191006131
1,72177947039981
1,6364634319544
1,55550863871857
1,62375971867743
1,87047401669512
1,78952218206331
1,7188800723206
1,63315585925456
1,59293184113342
1,59184753092404
1,72015337347593
1,51978937669516
1,65150100879374
1,6586142196133
1,77874725906937
1,56815189947644
1,97526644752307
1,65784207931243
1,57056030627438
1,75530519042895
1,76046715200737
1,58543293226985
1,78620618050339
1,8767369048473
1,71541518788818
1,74352183589073
1,82515986314367
1,45230608815641
1,59760466902157
1,57144355208179
1,59344606115845
1,49626887334556
1,66563927383503
1,65555020620303
1,69140495777586
1,66923140467436
1,72686291137503
1,79981743841817
2,16452378695333
1,59860364946093
1,65928328161047
1,74012604062106
1,83371290322449
1,55995427863308
1,87504734909099
1,82751432418574
1,66645125979369
1,5806505748242
1,63796231016465
1,58167763531874
1,66166353569623
1,69263214595401
1,63330673052335
1,64814086481976
1,64655597467644
1,55342945500867
1,64848665701252
1,58428309749035
1,53196123789777
1,72144951434823
1,65417152896366
1,64246338648756
1,66639611882902
1,69752511661414
1,66735904212712
1,6901748797307
1,62780742140436
1,45446342983199
1,57708496368057
1,54254220111463
1,83702929151058
1,69637641055283
1,7184849869092
1,68130694556192
1,76280536748436
1,67228881022504
1,6809897311314
1,60885495604733
1,58918803396294
1,61265041253134
1,9101809635155
1,63889536411153
1,65676448141731
1,60410442258725
1,57613589115164
1,53049615968114
1,64647477774247
1,49601020339417
1,57398187890862
1,73717353307174
1,61772578983539
1,42683834748718
1,55586882270148
1,70554752823884
1,71574663529207
1,56019002132238
1,46770932166126
1,62310524427119
1,62648188585604
1,59901651627102
1,60578561420244
1,63447838220287
1,60114779657062
1,58851448827246
1,68887684177086
1,59985384618474
1,59717177667351
1,44260107534346
1,4563880152476
1,44030180618768
1,59855912035556
1,56715580274349
1,52872301639975
1,52603899446537
1,59292785362921
1,50302257884978
1,492909573482
1,44811989720389
1,5774339045884
1,49059321549598
1,49931288061383
1,46735572279601
1,54904517435712
1,52033081970105
1,56837152844303
1,54515033737953
1,48219609292545
1,47128281555546
1,44696119331818
1,45094255551399
1,49254616402902
1,45905512698433
1,48133701005008
1,45745828998998
1,51664966185841
1,44804823218782
1,41600411207893
1,43726956706189
1,42159750312884
1,3823268943141
1,47504167753526
1,41904034997564
1,42977380762222
1,38683301609075
1,44371057182146
1,4138580514045
1,37653213140541
1,42002715344753
1,37238811882048
1,33439421311303
1,35964740343233
1,3642292529197
1,41255594214786
1,36729201996113
1,40440259610296
1,38993397580474
1,33222058435303
1,36085404995105
1,35929024629502
1,30704883018762
1,28749693583893
1,3399135284588
1,33639993272665
1,22620039759447
1,29104472944247
1,29594357807784
1,33120353243979
1,29361901197373
1,29440691502124
1,26692037391349
1,28071968435535
1,23580074007985
1,22023070453406
1,2460340781793
1,26901793746409
1,27690457208894
1,2682197193707
1,20719362176965
1,22450195174789
1,24386780861155
1,2086615566498
1,19631292899175
1,21669674832761
1,20144194626165
1,16942399899876
1,17229433618255
1,18190800839257
1,15185286228187
1,17196363412859
1,13208418781212
1,14376339324339
1,14294998361813
1,16349181949374
1,11094920908351
1,15503163326155
1,14964773256828
1,11851513719716
1,12135697240536
1,16913486301237
1,08270249836509
1,10149091483976
1,07503548328258
1,06865958787643
1,07179488697734
1,08442464248631
1,05856973954447
1,05766014121741
1,08192546780988
1,05673604293251
1,05091187058685
1,06156568267328
1,03403718427128
1,00911824196346
1,00605502399919
1,02807426447809
0,977081880043523
1,00000753863106
1,02090007431118
1,00066891340075
1,00379847987613
1,00840636747874
1,00377133622284
1,01566993531369
0,981700357302371
0,982784312902272
0,955108939817793
0,958844988175822
0,935191711790651
0,958881564012782
0,952032195017538
0,936079707862646
0,949933212393919
0,932936459358766
0,914002053195898
0,9284489229267
0,927351490249076
0,934323960098895
0,91046183100457
0,894643098735837
0,899877423613235
0,913111834554192
0,888447836351569
0,897016839935156
0,877569561481739
0,888323834690297
0,891431656379122
0,876391305326731
0,878324919078576
0,873914702647914
0,846134730890781
0,855471518577105
0,857819340105724
0,845428538671985
0,847284664009279
0,840591919625409
0,807412180251887
0,827125617103928
0,826914544530842
0,831168480415351
0,808129854056992
0,815332638701445
0,822524485706551
0,7992859200526
0,787450137276633
0,801519250047959
0,791735217809332
0,781664783058979
0,778951664417769
0,763913480644943
0,768608227920957
0,774550830569987
0,759864186251113
0,757222039462961
0,754032542489215
0,767504350113188
0,749572676195469
0,739642869619153
0,752353569917194
0,752075332424402
0,728656679619596
0,727212530656644
0,73332144377958
0,728774597226949
0,719425152156926
0,708096390807192
0,695447714929417
0,716652467633999
0,713854430326575
0,711196884856253
0,70594180496592
0,693977233080647
0,68022340521498
0,684199637869199
0,682895248632652
0,686269662554167
0,676912280027585
0,680388077200353
0,679556454759276
0,662634932395207
0,660263054184058
0,661570894609281
0,657934960375382
0,650727920226857
0,645445853009338
0,654166196253951
0,643508119591536
0,641408364469702
0,635046393658099
0,630820360967282
0,628234686129828
0,631019155892951
0,617123405280601
0,633924785059574
0,634744790546815
0,62149535415143
0,619114035038654
0,600885855769172
0,611462044731614
0,610759481952085
0,596392361395842
0,601575066929396
0,598477422276938
0,599430514969756
0,579109757245483
0,585907472907621
0,582814008402009
0,573095852796467
0,586519232914812
0,574463290297892
0,563322482899394
0,574872370237716
0,57394413085765
0,564027047794489
0,557227143939365
0,56913339245917
0,562134006369871
0,561675201555841
0,562953647261899
0,555640067628005
0,551942245551716
0,563352659966982
0,555280892423556
0,554726337989916
0,548582193966175
0,550632625149242
0,546857850232013
0,543519351989577
0,545039078498662
0,546057740837621
0,530775791390712
0,537838194978868
0,545008952461015
0,54486261345612
0,542021158609989
0,536835004338345
0,534632229684046
0,539709850124903
0,544682200082339
0,537841574549134
0,538382139300531
0,541089208191974
0,539071984225495
0,550464731231467
0,546301538552345
0,545968525841603
0,550213000968255
0,551390286212476
0,549760152870686
0,553980807002222
0,551088196429425
0,553210658007721
0,567154049957964
0,561439186866759
0,558324551716298
0,564648853477794
0,571319666147114
0,5646913257455
0,570498269846007
0,581108718359329
0,57425887277836
0,576018218972555
0,583488722179913
0,585183769279721
0,58472020591991
0,58562273467447
0,586285567738396
0,598425869365907
0,59271209874066
0,595983254092036
0,605650878721311
0,605606243186377
0,612494223175606
0,607172194063711
0,618843081241344
0,616091698187975
0,623642524649871
0,631341620655918
0,632174848064955
0,63572164167437
0,63402525167181
0,643221981472305
0,648753981425725
0,648728870846992
0,655627715827234
0,660768673320827
0,671983891328951
0,677989198802269
0,678073500784321
0,672351988268891
0,693027390083972
0,691021975786722
0,691406300072582
0,69050002884525
0,701505773470694
0,714279051842822
0,713353654083802
0,730234722544289
0,739484169827995
0,72192729730751
0,734446934028947
0,735517774210308
0,743364934689702
0,733156922122323
0,739905318108839
0,752009956422538
0,762972160683065
0,745414278087516
0,742086836462275
0,752893179225856
0,753319638889984
0,74650670840308
0,737476390566021
0,747733050411663
0,745461044655
0,736647077158554
0,728240468041488
0,735294709096223
0,742360365128471
0,723603522280346
0,726334916914047
0,721972270657095
0,705350232256465
0,715646410785434
0,715208744156403
0,706191283478204
0,718744498903704
0,715258504916558
0,71194505695419
0,718374945207561
0,716564589294869
0,713437126693336
0,722663598984138
0,717411187043565
0,701568014209779
0,703782798651726
0,715252854518518
0,707590944689804
0,718114903728551
0,712986346477198
0,700045287298986
0,70426344498014
0,710788461505486
0,69812136388795
0,696542774087409
0,698575997725365
0,712239307814166
0,696682651898694
0,694457827304066
0,712520383846494
0,696423190285757
0,687238661018323
0,695097570434981
0,702831281266601
0,705379152229193
0,685828366172914
0,684978558259756
0,686341616174712
0,679501897299665
0,67807769400175
0,675989116047318
0,675830116130027
0,682806775270054
0,662779500704632
0,661835028098228
0,651315190905378
0,657904632889336
0,647824568425017
0,641903704539935
0,632148836273834
0,635637413004474
0,647880387398298
0,634928303208721
0,620837985535613
0,619666833595766
0,621909876779556
0,619616615572445
0,605836439297556
0,598909543748349
0,607220144886398
0,607959538221706
0,596429592433047
0,589158478786621
0,590501658409466
0,584152125042477
0,570483945084967
0,574229956881442
0,569335196778022
0,567741410004013
0,557497614786972
0,558532173888213
0,552220134857072
0,553503313363008
0,553498205303623
0,55293814434998
0,545597625588597
0,539729140307104
0,540574824612277
0,54017390084512
0,533515173337941
0,533556717541272
0,533242922728083
0,531080324560596
0,523711187189178
0,517427748526998
0,514676311801987
0,516072942931755
0,506389660579308
0,501975638796526
0,50673423265402
0,508423812209394
0,504651805403076
0,503018575019266
0,495987887296566
0,498074003254944
0,497239730395698
0,489258613047219
0,490415859757868
0,488202346473243
0,48173675728829
0,477494647813312
0,476222022337201
0,480682444828371
0,476448248908288
0,470695813064491
0,476482883236328
0,474643351438403
0,471538559420012
0,467400227845068
0,465452852805949
0,458090957157944
0,454169101842857
0,467793360193226
0,463655600569884
0,455113595300521
0,456112564587276
0,45443582275072
0,450107044702717
0,450259172820851
0,450636639877361
0,444786067022301
0,443767682460949
0,449306797875273
0,438159538493021
0,441871978015933
0,436602109030338
0,432408001798783
0,43646752539788
0,442051817604192
0,437619393554287
0,435750360940785
0,434598567906695
0,433247141122395
0,429700772622854
0,426940678209941
0,427528495835287
0,429026975383139
0,422825085189615
0,426545562168368
0,421862819100733
0,420884305861449
0,423867656878442
0,422601053210433
0,421259477053375
0,419890565939793
0,416662073153705
0,414493225688101
0,40696058420301
0,407333556471979
0,414146906054043
0,407961432148172
0,409938083508523
0,409904397001191
0,412042430643575
0,412706612887383
0,407147542322099
0,410124478780097
0,400739071681262
0,403585024541692
0,400696202252408
0,405897567056343
0,401811087467255
0,40438766137652
0,399889856375959
0,401206536460522
0,400755016771651
0,399056862757405
0,401841547883935
0,39851213098542
0,392840652790352
0,397893112481371
0,389693662227493
0,39809938026121
0,392872594859973
0,393655168589186
0,391569733919459
0,388969352609537
0,385288862869337
0,392919350428718
0,390341670514084
0,39090857040955
0,389135885864001
0,388174122085021
0,382203087897777
0,391163668237627
0,385404825065518
0,392036025493739
0,381784420705054
0,382587104027036
0,384101751247826
0,381996014065215
0,385932702842581
0,384246727515912
0,3774701401323
0,379210613950363
0,379451801175538
0,376174056687392
0,379825845506575
0,385789146760686
0,379922277951567
0,376452618853531
0,372294737310405
0,373902921277086
0,37504970759487
0,378293453401073
0,374965160870914
0,385470424431352
0,372900640392132
0,374907104793561
0,372054104901421
0,368714381016574
0,373626598601638
0,378666498695171
0,370948362191161
0,369647275542739
0,364257271017193
0,363124307467446
0,366766170138611
0,368403219313573
0,364294277791189
0,367353640560502
0,362899278368032
0,359237780822462
0,361556719448124
0,364879965702455
0,361982448208015
0,367927090280989
0,358404080954572
0,356191482602644
0,361068288396619
0,354874293652295
0,359453449021983
0,35981078310834
0,352826537465919
0,359130703155592
0,35378285683591
0,362184520592777
0,352318723620783
0,350635928091774
0,355271564769929
0,350616282738018
0,35379094222151
0,350907212352338
0,349169666364256
0,34836563977662
0,347556285627496
0,348479331019419
0,345166615914596
0,349105860194008
0,336841623235171
0,338583254239764
0,340431250681114
0,345048697457844
0,339287245052002
0,343861454105504
0,333042148216668
0,337822713417851
0,344093244500908
0,345387777776347
0,337607958073153
0,3355190199634
0,333566995388512
0,338236082310384
0,337520166273164
0,333058353841536
0,334755827095583
0,330474293275901
0,329848666197537
0,336506436321235
0,331025256553464
0,331270975952569
0,328452059774089
0,329980843483479
0,325845269407028
0,324771875840337
0,322211480360976
0,321158719003335
0,320183696024655
0,324735287106436
0,321507085813962
0,319902530156313
0,313436607675186
0,319638537479416
0,318869762615554
0,316229380465242
0,314523876107801
0,314944623535304
0,310429431758375
0,317424668662928
0,307934676791533
0,310242365572542
0,312267382979659
0,310308605038517
0,309002396404837
0,310507172100898
0,304798180019608
0,307143001996002
0,302219205587093
0,300153114266849
0,294397753093052
0,299834690532333
0,297961575367678
0,300331634834598
0,296476577970703
0,298149735657455
0,297115949649147
0,293612026070643
0,292815635175968
0,291931202899715
0,292485394721766
0,291213172992468
0,289595487950129
0,28858672222806
0,288867005580494
0,290843233835304
0,290545625278592
0,292140427976667
0,289315186634932
0,291686083332631
0,289629411450981
0,29100011442986
0,287834437475231
0,284111038259708
0,282235038049825
0,283698551469239
0,285754625903932
0,282835398006661
0,283846732861789
0,281227334107358
0,28006799168751
0,283018480466159
0,278449360954166
0,278027691643633
0,278808631736036
0,27794940319918
0,280871571884797
0,28020036625614
0,275607217805988
0,277161026142693
0,273286284562661
0,277995432867934
0,271560523581432
0,274060627315304
0,271034320455324
0,27493065006318
0,273008487796207
0,272224191783656
0,272218107124931
0,272930650102907
0,270226414394165
0,262986660509192
0,269276854603229
0,270988377979038
0,268459469314204
0,268653640032987
0,263416943066853
0,265174286834382
0,263455557907318
0,26741464012382
0,26752994891214
0,262804500604816
0,261408332172555
0,265150680954757
0,267285727158968
0,267552231375211
0,263451399595091
0,259880791318658
0,256575822280675
0,263118936877055
0,258426879943059
0,259792706800659
0,261758327003262
0,262978687211389
0,261956168122209
0,259396978574844
0,260190154587627
0,255941555931126
0,256615338098806
0,258528933324111
0,260072543100327
0,256960949998572
0,257652826089743
0,259501695634448
0,258411268178053
0,257979837528351
0,254934907290482
0,260794572056061
0,257000071665005
0,256326466371152
0,253683200316133
0,255206653890736
0,252713804860963
0,252706856102141
0,251755742667079
0,253197492028541
0,251516460880245
0,253396850275802
0,253381613250681
0,253264554056081
0,252136114854
0,252490323437684
0,251130931826699
0,252737943135257
0,246735819059239
0,249292529254184
0,251307462165272
0,250167354685699
0,244347889939637
0,249303161482681
0,245229743166281
0,248258549493535
0,245019047930728
0,24759935756333
0,245853002665592
0,244369168315231
0,241391308046702
0,243486134022159
0,244500975012785
0,244017911713569
0,242146307265094
0,247417962336621
0,241195056559307
0,243528797599989
0,238593960733493
0,241813668582238
0,241843727676133
0,242862083293071
0,240792534993081
0,24191533266624
0,239555602184679
0,239519595512491
0,238522745554662
0,234824907608064
0,241848938856293
0,238694974204147
0,235308227435679
0,238135965010631
0,236508023966152
0,238506519554197
0,236774944024502
0,240714456564614
0,235689464049438
0,236466192542233
0,23328275477816
0,233561312708531
0,229833433485582
0,237858615026558
0,2346105891999
0,235820696273599
0,234369968573526
0,238002014950194
0,234556032335407
0,233323281919367
0,23346115087108
0,233374443698436
0,230069908268225
0,235320516732569
0,229582125087528
0,231979295102615
0,232833897449112
0,232693944070174
0,229685532108331
0,22689035303867
0,228181530825998
0,228896654627305
0,227517893047316
0,228976520984313
0,225313965049494
0,226077063674239
0,223805023618473
0,224709944335689
0,225343654728992
0,223718496840241
0,220740313230657
0,225513682273257
0,221615101300573
0,224310708344705
0,21843598399768
0,220147485290066
0,223029708658275
0,221486756277738
0,218286044182612
0,221730971073999
0,216501448207761
0,219520753771086
0,219201931219887
0,223636517560126
0,216120893584706
0,220193511059879
0,212997143522219
0,215185786933423
0,211581763216457
0,213399267304947
0,208600819381908
0,209167752063293
0,212039315824872
0,215153134138171
0,210420701357169
0,214227012522444
0,213461389054613
0,210920239640855
0,208657385927897
0,210582623045076
0,20695666294606
0,209137659568964
0,207220012232326
0,206179380580187
0,207436549101023
0,209920937801881
0,205429119471805
0,206550884140998
0,203594107541193
0,203988721731058
0,20648608553669
0,205884003235597
0,206074849098619
0,203661894112393
0,203436083055357
0,199939458108155
0,199650169704979
0,203780042008934
0,199541673150589
0,20167997897027
0,199938861109307
0,200001586399299
0,198829043131438
0,199159054654101
0,196627635741474
0,197093197609838
0,196211977624806
0,195662635997283
0,196717369669019
0,194690930877082
0,194275186205272
0,194505938734559
0,194128472965011
0,193620274984996
0,191631824486534
0,195149988452128
0,19266450556739
0,19142655641611
0,189894152649258
0,188295279160658
0,187697298077617
0,18834196319916
0,188706676672293
0,186441980771807
0,185662907473024
0,18909864121587
0,185891263779854
0,184375922047507
0,192148565939743
0,18611863136818
0,184913435496964
0,186613419962989
0,188050927910455
0,186333182481092
0,185923325044876
0,186005424393715
0,186039786655675
0,183411311491769
0,182146813578646
0,186417546745589
0,182714369590484
0,182126831069588
0,185910083944213
0,185539407874077
0,182510622637651
0,183420547837676
0,185081137699977
0,184792130082247
0,18424193617102
0,180668536061263
0,184095176050968
0,186940156920731
0,183674753874358
0,188569488733276
0,184148703597742
0,187214895011936
0,187536551783931
0,185727872559155
0,180961997892986
0,18594737310599
0,183442960247399
0,179760569838336
0,168059187405379
0,17671014256658
0,171547647027321
0,180836828615761
0,176063385575834
0,170744255911331
0,167239289147153
0,178403317310602
0,17396496467974
0,167795459138395
0,173923395131966
0,170116896928849
0,163735337314069
0,175067040473975
0,166129789218822
0,167933333267589
0,166467745233487
0,169844647406101
0,174041888465476
0,170789929322947
0,17911217187824
0,177320355486392
0,167301019382882
0,170872546161933
0,175367844518975
0,169789243232325
0,170383869728835
0,171168848405635
0,167985757257797
0,166557757481489
0,168734628775108
0,166669536782856
0,172065049337962
0,164888564459052
0,17272054735028
0,166935044820961
0,169793568448286
0,158531007771957
0,165695692886185
0,161110203521004
0,169620597763847
0,167761717687583
0,176757266662704
0,158023061767164
0,1700639843818
0,156108193903145
0,176630309642199
0,164589854061213
0,182689681536563
0,154975481369151
0,175504795798204
0,165237266447921
0,186047522915481
0,158988673253457
0,174396441382928
0,165688267475474
0,175281041388103
0,165181923176342
0,172781082197929
0,172295463464676
0,166848863191695
0,174929961971551
0,167052595538503
0,173895461968249
0,166207174096443
0,172293550676102
0,167619710806086
0,170959599644345
0,169913320756384
0,168958431624523
0,167940674943915
0,167669176967818
0,168799228872543
0,164661302661166
0,168272429214772
0,16415640815749
0,164470394708628
0,167007534587356
0,164441381065553
0,164918234887425
0,164820759815843
0,166076019365585
0,163349188685438
0,162764860968771
0,164267779200338
0,163516067320056
0,162357935992203
0,163634047602093
0,159369113516829
0,161540116287431
0,162170690683008
0,164554579199286
0,164244666851252
0,164164130182669
0,162898915880146
0,164063356166929
0,161098494612425
0,163089175220112
0,164382615789798
0,16291130298791
0,162532686769052
0,161763461426636
0,161399102133206
0,162019578088888
0,166394091294952
0,16656778245513
0,16509587331975
0,162156581260286
0,163301879162114
0,162735795088201
0,161589528849294
0,163106007623531
0,163970979050156
0,165121217354519
0,163660613884256
0,164570319722578
0,16503696715825
0,161366464553117
0,163717473488631
0,166752098969691
0,163940665783607
0,165361425878855
0,164881629415701
0,163024408855755
0,161736509867618
0,166949879416595
0,163692387111934
0,163491754879125
0,162131618761796
0,164843093923107
0,165925956351317
0,165128502798425
0,162460191417971
0,163351135276169
0,164351345885487
0,160907926463754
0,163204233944341
0,164955531477792
0,164544823146757
0,16258098357933
0,164675412574927
0,163831044790454
0,162810701937747
0,162885129779529
0,162328559051712
0,1610901568253
0,165199620276148
0,164251505212678
0,165219936329521
0,165909027528367
0,163256636143001
0,165307482042089
0,164376852641338
0,166241469597021
0,164581246018164
0,164655991588028
0,164718676991797
0,163155588931154
0,164816284632795
0,166748332364763
0,163292091799733
0,167621512878702
0,164753565797857
0,168429711237314
0,167120350178592
0,164808915324156
0,166213105241463
0,16586479617606
0,164926369497711
0,166540313863411
0,168415884078016
0,167990550703282
0,168327125393588
0,170771066982889
0,168622638646723
0,17048125750671
0,168539259171396
0,166455622655704
0,168817926439082
0,165988127912767
0,169149553569122
0,168364048011693
0,167598008178263
0,168852846994456
0,170865843947979
0,170463298821257
0,168760002492784
0,169515210106058
0,172238311731208
0,166673499016793
0,170220140694575
0,169697997255198
0,172147614561492
0,171636548997926
0,170933519835079
0,169692518326843
0,171989951599181
0,170674901016223
0,169266570011625
0,171801934722244
0,168091808415107
0,170693906530633
0,171636698241635
0,170527505409916
0,170134287847568
0,170739903187497
0,174173339798616
0,173213416635563
0,172822099741823
0,17217623696919
0,173668682007173
0,172219671810954
0,171580688492185
0,173607122308018
0,178309783522235
0,174591619818067
0,173666174325789
0,17440038983048
0,172115165654573
0,173783685767431
0,175448498746196
0,177324799157996
0,174909325051213
0,177036460532441
0,176725140021549
0,175534434873823
0,176452517888668
0,177105616305335
0,177973265574728
0,176338285528045
0,174797920276373
0,177021735248137
0,176600696088716
0,179238844393663
0,176728653863197
0,176336948910826
0,175363605892181
0,176764180884113
0,175656098267651
0,175327705728386
0,176783361648544
0,177208059354815
0,176531312793956
0,173640641217429
0,175651210541158
0,177687032728467
0,175205831896369
0,174332654319373
0,173757129272077
0,169812087063197
0,174645209592663
0,172972705879174
0,176682499082673
0,176280606820955
0,175202183188301
0,172791022572294
0,170618334716029
0,172513569940302
0,170489568525741
0,169656871462451
0,171801297175355
0,170810170809885
0,16950193713408
0,171139842107912
0,170105261967823
0,171773951652404
0,17417163240257
0,171196467424758
0,172550518335945
0,172427865487686
0,171343597950502
0,172495114913285
0,173349900061647
0,17017096775611
0,171499575505786
0,168327777013079
0,169709682637654
0,170029131820019
0,170333848487923
0,169827603394933
0,166888383080784
0,171525785337008
0,169262871607074
0,169304224533168
0,169225125318249
0,17019129880376
0,169596474455293
0,170208683760163
0,170648199258946
0,168019001592966
0,16980139578416
0,169144925346704
0,166787467649554
0,170920099491341
0,167860692822071
0,16693009036673
0,170651541393418
0,169354847015349
0,170744057919261
0,168091150093683
0,168605247177171
0,168878563261267
0,167394880743363
0,16732058060245
0,1675018135228
0,166741368288891
0,163830752168936
0,167221073921007
0,166596342166767
0,166293279360476
0,169122622593512
0,165650509494736
0,16441091483342
0,165214460112781
0,167042544657424
0,165579132519968
0,165903094497274
0,16448643662318
0,167676111679241
0,165176269539174
0,164727416674789
0,164402744135332
0,161656631006316
0,162851205483945
0,166440026114894
0,163448107038209
0,166659970103953
0,167666967003634
0,16454763365557
0,161051211982936
0,162710639226084
0,165245770370955
0,16312885413812
0,162444072045014
0,164021969624473
0,163076423532368
0,161020212398985
0,16237194124135
0,162861376624141
0,163223388916946
0,16420086013062
0,158403861058323
0,161488934789963
0,161330180276454
0,159712828706402
0,162161902834832
0,163105765747121
0,160163841259999
0,160716742230915
0,161840748254604
0,158779385151839
0,161023549828959
0,164062566715074
0,163667106042804
0,159707873253489
0,15686466236645
0,156982871597208
0,157319398728469
0,158864486252126
0,159261731953007
0,15643413241074
0,153672100378722
0,155387829327925
0,154105435387414
0,156974988157558
0,154695955362311
0,153251743835446
0,153908326295524
0,15344659806953
0,151784220530134
0,149014506215778
0,150605419251575
0,151870620088001
0,148770258886819
0,150190384489361
0,148873373923211
0,151687861054806
0,150050568117236
0,150874396242911
0,152104153040614
0,151340204381813
0,146670324491708
0,146810986291045
0,143624907348908
0,146455577220491
0,143817936361085
0,144732410383352
0,143613269910528
0,144605889685787
0,143607209365388
0,144519346460335
0,142497562086861
0,143579762043219
0,139861911123665
0,141183444891759
0,139439701825079
0,139245596148067
0,139831251892664
0,141725419077075
0,139593179216986
0,141512830240324
0,139787869663425
0,138806797525764
0,137547561485706
0,138206971382983
0,14800651038153
0,154799934030329
0,14009827530158
0,138305684197265
0,139967130691472
0,140287188430718
0,137814593791092
0,137910570743643
0,136921591025578
0,136268592257638
0,133664345543714
0,137987777444247
0,13597197616471
0,135836593218992
0,136042719180685
0,135414573398535
0,134682361113756
0,133877652868107
0,135175558562715
0,135303503367579
0,134446712969001
0,132560658745492
0,133795063231094
0,13449597417496
0,13357551420419
0,13455894046694
0,135817872609835
0,14343393204765
0,137132963910729
0,132809057779034
0,133315146033577
0,132089231447775
0,131950407877439
0,134260525539604
0,130998396501857
0,132643884671438
0,131454240343819
0,130772474743695
0,130492858861314
0,130873817107785
0,131468620595837
0,132483188496197
0,129407647351189
0,128890971070388
0,129211875456241
0,128852889558028
0,129071684360389
0,129254585272761
0,128227643026244
0,128974315219138
0,133497862270265
0,13321252697919
0,128398664524704
0,141350967782563
0,146634739538559
0,137230641712938
0,127467634635479
0,129479035850597
0,125775336239713
0,127729491652423
0,124953510589696
0,126964610754001
0,126417843781226
0,130059805880974
0,127932484199084
0,128786079563743
0,127554356538535
0,128802576020316
0,125194541515705
0,125904764718063
0,1217859723344
0,125771240080299
0,124804814524429
0,12619725609775
0,133245862431022
0,146405370481359
0,130872197101119
0,128083840025029
0,121814346621918
0,133042867445541
0,144664534570602
0,138523433461416
0,119272122937712
0,129090533487116
0,122050930567669
0,126776862548971
0,122641289772684
0,12532573151516
0,129111034289643
0,128443860347493
0,128511498217808
0,126961227291063
0,124634905618935
0,123640003636573
0,122137291361163
0,122884952123009
0,121289965812522
0,122350599052206
0,121365313107988
0,121431875715786
0,119046324451298
0,123166346031594
0,121324921304172
0,122564193145876
0,127035238838644
0,131839660320235
0,120019684499543
0,121358789303574
0,116304276439966
0,120284687568073
0,140438320700132
0,136967673726477
0,124129862177712
0,118873221911722
0,122100842334183
0,120796099675085
0,124727932637523
0,119954096926812
0,120971803520086
0,118621257601188
0,119508372571835
0,120779432659284
0,122149536721917
0,120352554901033
0,118647348687352
0,119893266165491
0,11823226220985
0,120919287042542
0,118850768254218
0,119615508312367
0,118713069760375
0,130318212388338
0,143865174569632
0,154209287759963
0,136851771874449
0,135163291115213
0,124878133499168
0,121341863818444
0,121703112943481
0,119483565498999
0,121266195233413
0,119324923826658
0,120769962029616
0,117074247152807
0,121441619601064
0,119785325839218
0,119987569068029
0,116626329158529
0,118653805325129
0,117601409385014
0,119131408080544
0,116083990809722
0,121054292839207
0,112310018542371
0,1197158832453
0,124151213099407
0,1349675213658
0,112545893001516
0,137787193416941
0,152355132084221
0,147709000662886
0,129916250191298
0,121027102254004
0,12036979750898
0,114099834229919
0,118688028607654
0,1213287257102
0,127742673963923
0,117466132222133
0,117680587456017
0,116527481204832
0,123058034059925
0,116660956867084
0,118669360548445
0,145228423963656
0,15652189522259
0,138883884280601
0,121589408403059
0,117538312415467
0,143458149253463
0,144896455161442
0,12934677577136
0,12102642672287
0,125905311352014
0,116791285660782
0,122062829817477
0,11686144030827
0,12449170221937
0,126798382455731
0,123314999159745
0,11798427939712
0,120179662763328
0,119969314432523
0,124128020340176
0,128233005825807
0,135719699091612
0,131016586124892
0,127401424700113
0,127973209158912
0,128541910268588
0,11785717227314
0,123537348269647
0,118348859991245
0,126332112876247
0,141480873268229
0,13939238359762
0,135861196510801
0,145402022984793
0,135086096165618
0,125582591911003
0,125724925752993
0,144519028722189
0,127747579730726
0,128977224208081
0,150545913283665
0,155839945311434
0,16817302208467
0,144482022118463
0,139238681126596
0,118657742449736
0,136145480422059
0,114898231619668
0,144606156392647
0,1372823720908
0,145709747663322
0,11834788906558
0,13291936233605
0,138309959472291
0,145155963510262
0,134409409510435
0,131393359062015
0,122689788564254
0,137256235203703
0,148127108527924
0,136536610208621
0,148106255570217
0,166212236527995
0,181605218842292
0,159759770226233
0,137679527343618
0,152680803764238
0,158475756739408
0,150456698866526
0,130206547597175
0,140684953649082
0,133304992408805
0,136055181035318
0,159376935461479
0,17267470218349
0,154084116422566
0,139662172348679
0,138205936298732
0,155452910093164
0,165931239066583
0,159111050895046
0,137605330534486
0,149970926631821
0,135670155832163
0,167477905969724
0,183143591813444
0,178697086516195
0,173851605745112
0,18221267634384
0,184679784341158
0,166263385883581
0,166781220763967
0,156387148414669
0,185289417269272
0,180165028143377
0,159626195539884
0,154462815064648
0,195312365496355
0,177367064280703
0,174570279575436
0,155712198145448
0,169620331888597
0,173142025870361
0,239112490470086
0,236801943101941
0,205435603679756
0,168474660817868
0,194290556300624
0,198288174385988
0,184547603914037
0,171025792655041
0,17646158665892
0,173308573610706
0,175264948742379
0,18797884967192
0,190979431432885
0,185573717764477
0,189730776838155
0,185786058439095
0,199551580820229
0,227107928429813
0,289581861573625
0,222733956508028
0,237938145785954
0,227464750759294
0,242245652831974
0,209761943810835
0,208128186745196
0,206163422617242
0,221470226056724
0,219773299886292
0,213070865371787
0,227567013942854
0,250327187501553
0,243971875262945
0,269509165894063
0,245000957561842
0,253352584711322
0,229591081100307
0,329449192632985
0,319500797723852
0,323604626249789
0,266075256802358
0,293437116512749
0,315501813054245
0,349842370286812
0,305294342306173
0,292185636204418
0,291319590812861
0,299264092355916
0,315797651205352
0,329424227273204
0,332302946346124
0,352653114815081
0,332937167318534
0,357780953704989
0,374170764479008
0,49559986868505
0,456399113822139
0,399912487712962
0,388593004379904
0,418999694430811
0,418383584905647
0,418473975130358
0,411998843017373
0,416713008305509
0,471067663396761
0,492226943374783
0,47526685140572
0,4416003703803
0,495857219997898
0,476226435319579
0,507117728305859
0,520669155780384
0,557338583297329
0,516755574294108
0,50786911743887
0,525565447620762
0,513263126420553
0,547292911365933
0,573070866268658
0,582006979142669
0,554871957285719
0,569091347616001
0,573825443293009
0,578853066979689
0,581233508368238
0,590323447259094
0,606833768124568
0,651730659292307
0,748862480355256
0,81755654468374
0,675675783366523
0,633359454169396
0,61995505491436
0,645416308843356
0,669094230713662
0,695076583758793
0,667376116245559
0,666489381511149
0,637011538738447
0,631372902520292
0,649472608777658
0,641517214806416
0,654032065501809
0,635411938133844
0,654335189165554
0,667075100599431
0,658745906967456
0,718951609089495
0,720585269874083
0,670678621433857
0,62147606709314
0,636528192515545
0,616584141398457
0,635348612099953
0,606384713933798
0,648928900341319
0,624519162131062
0,625778122825459
0,576511978986443
0,611047048129993
0,618846340270256
0,631793713951967
0,582274980988452
0,566172197556266
0,570928349798216
0,56429514270971
0,559314807594779
0,608698163292607
0,586749936344127
0,568277321064296
0,525673026767829
0,534232756703321
0,514400464889198
0,524798308811237
0,505298560937263
0,526052097960062
0,495051472618688
0,513336678053801
0,501118559408125
0,495174574980998
0,480260035814271
0,495476226293122
0,47776223144178
0,481968905916752
0,475846843177945
0,480610824329997
0,465003245759586
0,467921168204169
0,461036736443661
0,466602694699091
0,455146295940509
0,467987858762878
0,459416959580817
0,453944642580198
0,448899979170769
0,464050128496167
0,452051799088273
0,457022121562759
0,447128372905159
0,456151017647823
0,440630893808184
0,451038629525223
0,445284749846217
0,448932510450424
0,445809745474768
0,446127795929884
0,444510112335893
0,443571833556291
0,443059622652262
0,442735211625403
0,46291328028654
0,517049497603879
0,475706577447927
0,454645180246733
0,430798723723769
0,455045601273704
0,419021947349736
0,452165049251884
0,480818078292461
0,473262380175127
0,435990475222933
0,429321877849624
0,42186509808015
0,459202288243443
0,42809334889618
0,437965083491624
0,410756948381153
0,443160740336114
0,472346155926092
0,529175826154855
0,572833411439726
0,532786067603736
0,457323112790924
0,415004767579893
0,465910002610043
0,449639778509567
0,433640561501566
0,402547817804398
0,42043826218099
0,454241613590124
0,432718108810346
0,418517498821803
0,399186018797797
0,418375959703794
0,45009132674092
0,454306712718081
0,436976412744826
0,454564524325595
0,437199909489396
0,463663220733879
0,486300076298311
0,526146914134542
0,431485903136983
0,401560756363452
0,395497019656167
0,399225561561031
0,437741349831557
0,446653035700726
0,410913204044132
0,405736120660654
0,375959743001279
0,383190520494
0,377618447077689
0,419937905789854
0,377486325838679
0,425285807866254
0,390860475873501
0,391413087267486
0,37922902598463
0,42516533894005
0,44029099274925
0,452807579257944
0,382512062564802
0,365685858572208
0,432221391775378
0,42065166478456
0,397107034619397
0,381620668928019
0,345581606934616
0,371359137654153
0,358832641900197
0,357508559510873
0,378121559922442
0,383432745895062
0,417184303062065
0,432573306674662
0,459947477536931
0,410277490641886
0,349034914896302
0,336796504520214
0,334610072139711
0,354612727475081
0,3228747703344
0,347509290864003
0,38038918287763
0,343821990329886
0,374876286497647
0,38186818458929
0,363335571347567
0,345335269177905
0,345038815161374
0,342545326531147
0,36514974072338
0,406126257552327
0,415419179078835
0,381003377585726
0,388998654018048
0,388005241562707
0,389003918132825
0,365822907447763
0,381490008914002
0,375222910778991
0,397502832782261
0,408546998345828
0,40206946293623
0,40982050097584
0,415112799951883
0,420864769244167
0,488938218545279
0,450009164043258
0,468000512652178
0,477189759848907
0,518171784825061
0,544764505653836
0,508169203485997
0,500967131542485
0,500167452587002
0,519604493655923
0,516218697788299
0,531139965148477
0,573484395885773
0,571886027227826
0,557094190657926
0,550233845047125
0,580016272611082
0,569734394814806
0,593120070135973
0,630454371851324
0,639473465737188
0,719893112646959
0,656783411300167
0,664309842539211
0,616289923829645
0,625030593223357
0,618550330185128
0,633958679469736
0,617834424765542
0,623127259346224
0,634620869361195
0,65262337883376
0,634270364485368
0,639311065349748
0,627288872414326
0,641415450623495
0,635709837025135
0,646128698625526
0,637381264432361
0,64656352836518
0,653925447204737
0,653863736984474
0,679931023823201
0,759380382731796
0,688590211467457
0,674919362975993
0,668091302211919
0,689705429068477
0,67329498660196
0,685064192961783
0,710378245170636
0,704387638617624
0,700198884877877
0,701218324559018
0,698565956245691
0,698797423585408
0,742708292754814
0,748683026731819
0,725632714955008
0,732632902857231
0,718203191367268
0,816621467440956
0,76108226108692
0,778485874832153
0,760015231480431
0,760132276908509
0,736690043959359
0,754050761003553
0,741657753045667
0,763406182773902
0,75254832971216
0,751509277606036
0,75163074089458
0,749601302625442
0,74601466444457
0,740041090034591
0,762487281482176
0,791369069329142
0,75030263559607
0,744594603512176
0,731907324284056
0,73919196468902
0,732841038459002
0,763318805747577
0,748572840351355
0,755573393321024
0,735955207625293
0,756118224727475
0,76887710929649
0,746456981058496
0,715189568754459
0,731196432614824
0,722436625386531
0,723200688944451
0,718430888831955
0,762291304813656
0,762469408603693
0,765804349869603
0,734899290688008
0,742160983949106
0,740408367142547
0,756401484957735
0,743703107558905
0,767604593105844
0,754984245176703
0,779294407222862
0,775747299145232
0,774280284354561
0,780003141069691
0,794344725609027
0,816179768021215
0,808000743672197
0,793111705633019
0,792309532541287
0,779370997303951
0,798826845415952
0,802886533914189
0,79649849449673
0,773386050589584
0,797765629360573
0,773495874441427
0,808998679860442
0,81345907614348
0,797795033177018
0,803705215268803
0,778687355071141
0,766446296162733
0,778878023507077
0,764167794829174
0,764163158673768
0,770197940622561
0,766798900186951
0,755135383108852
0,764212747685934
0,754191908071616
0,747556933738639
0,75181438429066
0,761469663927111
0,749194410311799
0,743368897898126
0,741000708733483
0,747589350776357
0,736939438789735
0,748518851425039
0,742859203602327
0,737782983388026
0,761278598792946
0,77095541905746
0,760932774829071
0,748082180398635
0,758505674851244
0,733560826496445
0,736716244031688
0,731064273094849
0,735167312955187
0,728304414075072
0,719196372482498
0,722966833951927
0,727151359295811
0,714512246872254
0,72015502282679
0,713851048988214
0,71815299353345
0,722978900442106
0,70710415270817
0,705612537272091
0,702028674240849
0,697577219771582
0,696615115609091
0,710576961629441
0,68631186175186
0,694348316095763
0,68727542361977
0,686724962453471
0,681866862057803
0,683702037511902
0,680216339215098
0,674122246952698
0,671810653445758
0,671901799719532
0,663258152492298
0,675264019582667
0,669427257206733
0,665860577630531
0,670107960636557
0,661216751411414
0,66134244862556
0,665184452004886
0,651767056162058
0,658633404359309
0,64848839026509
0,649324196913458
0,640009389583147
0,645179628620507
0,636657207211501
0,627055452981703
0,625908615498814
0,621586151889453
0,616022101409877
0,61387881339363
0,61390261764759
0,605898481200238
0,604653313275177
0,613368258725109
0,59714945930097
0,593069197754323
0,594217426112856
0,590555864853255
0,592794193189687
0,591538258571724
0,584632402896536
0,586651079981603
0,591787633139296
0,586753869507538
0,585639614363141
0,592355009772054
0,588705837465538
0,590339843521264
0,587681861365734
0,592761172273054
0,589378060074541
0,59044845738055
0,594634061986102
0,600105210120773
0,596451370317898
0,607078711921541
0,606429762114072
0,603411091423909
0,602269373185271
0,609496497321167
0,606775045920088
0,610864774355776
0,611875411786722
0,611313737932286
0,606607054826697
0,610293287808418
0,60822462654116
0,612973000317561
0,607769811899783
0,612600683151751
0,610999972379419
0,614660908051894
0,611707531577231
0,603394400391788
0,603599301610542
0,608217976400282
0,602448563512388
0,613044020942973
0,603734274709513
0,602258997720198
0,600843847400305
0,602021757240879
0,602670895892067
0,598068960980505
0,594170837632652
0,598903233496851
0,590969305385128
0,591899922930338
0,592100536533535
0,586397124713809
0,589069638275745
0,587571186378769
0,585860134470033
0,580384816577369
0,577561185406338
0,576404827734402
0,573215651298195
0,568120604950417
0,560613343479742
0,562221010943531
0,554395607772382
0,557869769731369
0,547557053741043
0,541356236351686
0,537238773437664
0,536987771706279
0,532009602372863
0,526657958820219
0,529086692242056
0,52289905826782
0,518975808135432
0,512010083157496
0,509315156790323
0,51012999224454
0,509793289624605
0,510492579204856
0,505907960791734
0,507867811222839
0,507129811576932
0,506045534213421
0,506648147270496
0,504846980744021
0,504946348103644
0,50665358132592
0,505715535001555
0,504537758616017
0,499115480762409
0,4963108816255
0,49395607575942
0,490993577361607
0,484328035295189
0,480874430878729
0,473727409090936
0,473908737418555
0,460015527779088
0,455984970462086
0,449265512693335
0,443206618619992
0,434060858448905
0,426882347484553
0,422933810718392
0,424592008161366
0,41984282480084
0,416754902238546
0,417988284420577
0,420533398867721
0,423088491818143
0,425953957406891
0,428101661800058
0,438680483223014
0,446167749511374
0,45459876780846
0,463734071315805
0,479714908004665
0,492117774475362
0,511975452356137
0,526124183255909
0,541991945527557
0,56374648378646
0,582784986465199
0,606919597853216
0,632466031067696
0,663477280677365
0,685350883640532
0,717363791531972
0,748369348989927
0,773979252674162
0,813273075876479
0,838628677299107
0,875923138099038
0,914416740383588
0,9413752929304
0,985895385430659
1,01859783045726
1,03467014082102
1,0630114636315
1,0856730193389
1,12209581941923
1,13360874078172
1,15314865967291
1,15826518584803
1,17046832828667
1,18026517808422
1,19302838397037
1,1829274567925
1,18926199020221
1,16456360577921
1,16571812238474
1,16779903052973
1,14783061233683
1,1422195372922
1,11509278446399
1,10383054888129
1,09063191841501
1,07563642169556
1,08170552690261
1,06643589737174
1,06643332542709
1,07219753497955
1,06494551481759
1,06357313525934
1,06270654912224
1,06338374285762
1,0774347220002
1,09039310447276
1,07170826716078
1,09022495427999
1,09782638749319
1,10305142054159
1,11349040713648
1,11366023859562
1,14957593015445
1,14474115833388
1,1572137917227
1,18222801657721
1,17983240702032
1,18940974517856
1,20534264723123
1,17506698219115
1,22172484299723
1,21844375762614
1,23327063984115
1,22559238400543
1,21312355044141
1,21295298393958
1,24401410190446
1,24047213222145
1,24466342862805
1,24128364130816
1,22687667406481
1,23972668622688
1,25302315115727
1,26743988018262
1,27782576490718
1,27427403287813
1,29466942253057
1,27889226589297
1,30054485052505
1,28856874187476
1,3123636425509
1,30968704767724
1,31065362464462
1,31437298973349
1,34286775491577
1,34131116683282
1,37836333685159
1,40517229532364
1,42573904418644
1,41862743277785
1,48763927219634
1,51218830686633
1,54409678664011
1,64382123330047
1,6066018173233
1,68465440554751
1,66679175036158
1,71352342808261
1,7747462817398
1,74378961195866
1,85386664203303
1,85499006779796
1,86072449630507
1,87774003708164
1,83003574404376
1,89179435107875
1,82928500124585
1,83422623478371
1,77958953770991
1,79658761781512
1,81143179449387
1,84651752355357
1,81869579079607
1,85033795699689
1,78811841984619
1,77963778384204
1,72322810735304
1,75696131059633
1,77195077811407
1,78113375104923
1,8482760384826
1,86253719526743
1,92922933404539
1,76105594500991
1,89936911315126
1,93662548373746
1,88869725212066
2,0505454584804
1,96025044270482
2,02438758777144
1,92856327018798
2,01404438453335
1,94489584029015
2,06070828803792
2,06163769493521
2,45274517813463
2,06563872894271
2,19353770747058
2,28096316422139
2,46394373571257
2,27685874627132
2,21260926629523
2,37773387485004
2,17875943077953
2,24767061003868
2,55507883616316
2,50158058263597
2,6143413927656
3,35648386863032
2,44851507453499
2,33048654711982
2,56249007868398
2,49020816672486
5
2,72706219251176
5
2,41077994685982
2,63081198521354
2,66996883280343
2,83092010938798
2,68069239549556
4,02018562363729
2,55845209592827
2,33852729800033
2,24198014652388
3,04931172766107
2,3229442149574
2,80918049354798
2,51775402234371
3,18746197026213
2,39848344725612
2,59002268252165
2,27404292433885
2,4239580101056
2,46419427976661
2,35984704917552
2,37819509904335
2,54232698998058
2,5393985469773
2,37683228988698
2,26931766424114
2,13789302421189
2,34137539000558
2,51509731939187
2,32920009156897
2,8057977439891
2,20720462884179
2,38887036803809
2,17464244247323
2,2242288686596
2,23642945196671
2,27213592488645
2,13345569485373
2,14750549207539
2,10172535166857
2,17370969335422
2,27188933538356
1,98368571393707
1,89536172945277
2,06655035635284
1,75085374559807
1,82267980821253
1,7133138739006
1,757192927294
1,62395505653876
1,59914855187374
1,55184619104513
1,55022186560879
1,4671129231547
1,49320147012754
1,41514369891746
1,42126098251293
1,35418058427693
1,32586643169472
1,2598407464982
1,27679863396325
1,19898879688076
1,18885000483192
1,13879569571981
1,08775857334896
1,05787000936635
1,02861720460821
0,995855694422101
0,961886031570406
0,948216218682625
0,926931039107872
0,900163089557621
0,884876997652579
0,865733658558378
0,849655299982003
0,833716359613808
0,83135579521994
0,813654209284923
0,810503581862829
0,798763519664139
0,80427778565473
0,79414525690661
0,811358249167012
0,812999088692778
0,814209666423645
0,813137929086865
0,821774091022392
0,833187771387142
0,830697172399936
0,83477687997343
0,846242065622392
0,839045462490195
0,855027038809
0,874803644552217
0,882730928077956
0,879044161647785
0,897817988861502
0,879556412031232
0,879007515149105
0,879273679931563
0,902456415578661
0,881553546378154
0,877758146562412
0,875660666624088
0,890120544029148
0,874449724543
0,900939722022046
0,882110243646317
0,895955179588783
0,877233416746935
0,89743033514193
0,872116796331447
0,868929890259915
0,893553903063988
0,872261241773009
0,871128277079941
0,878386327670581
0,853681020815653
0,86174219803039
0,843710895539214
0,848588833497753
0,820488584308141
0,830884291628682
0,803460012995957
0,823227968543745
0,808252834939126
0,810911766838101
0,797513296684779
0,815708531105601
0,801478287251296
0,814655910216536
0,812104005598738
0,826301664655025
0,812293426541895
0,834955539081227
0,837939607436316
0,860347620501674
0,854996980594352
0,855003874943275
0,851173815591164
0,866848674137397
0,875492381732701
0,87294128104184
0,854231778240201
0,879995034258516
0,854620354760918
0,847925828984189
0,826655849150278
0,847901140814762
0,82785550813275
0,817753397223531
0,795019338604946
0,789071696881517
0,794488156485247
0,785351822662749
0,783408826946393
0,795940182503316
0,78744771101328
0,807444455542318
0,805548320918954
0,795802556870637
0,799599979632479
0,808065411984598
0,813336746173394
0,816679814771146
0,816081520106058
0,836581066585242
0,826824431915053
0,825489122797393
0,812186805209256
0,815531245687331
0,835581319734117
0,845731516600051
0,836342164796598
0,852246004245571
0,827899663521366
0,842076859650632
0,857384302706911
0,839992943245693
0,837962346856223
0,850373746990777
0,844728856392985
0,867306414203353
0,84910565934465
0,858260735854527
0,846125740243336
0,849426351522058
0,853564199774392
0,861367875121086
0,857149405482049
0,858510010759725
0,858628567381472
0,878606832674051
0,824697955155158
0,837609454931333
0,836251884264653
0,839096328543581
0,855141821616795
0,842959877961935
0,846101741538284
0,843163759227282
0,818187732085075
0,817795983610063
0,797089802290864
0,839069175400845
0,820280509387863
0,851255160320414
0,76562370688808
0,772277097694228
0,780213302453425
0,771644231100242
0,772606515144456
0,773100665629082
0,791652376560794
0,803443497558735
0,777365608394091
0,7687337758241
0,788229799103574
0,77305406037308
0,760711393866559
0,788952807094894
0,794227673472856
0,794625717059034
0,792797567041645
0,772253141082785
0,786651743809745
0,798812670484428
0,764324126514985
0,79260158608256
0,801537706982018
0,805832781948999
0,81106729679159
0,802304034155808
0,804587922351518
0,847146678285457
0,795213377998141
0,832656814535864
0,849205145194998
0,833555124463826
0,824087482835739
0,832218171840924
0,860927277426078
0,901205977245122
0,873816650929037
0,883626798229794
0,849070108391577
0,926147333817391
0,923946969144885
0,964247885354164
0,913643595921115
0,936688405075063
0,986524193486073
0,940924827749089
0,93820690038652
1,08158145504138
1,01130495248049
1,05223620140954
1,01822837931836
1,02539474705695
1,06962302414152
1,08909540543911
1,02332277076868
1,08779019944361
1,00829560624455
1,10898478942994
1,06482939656513
1,11519045368194
1,06943066665869
1,08349177645231
1,14089711624187
1,173978674578
1,08778106744055
1,18167566173222
1,06343016255998
1,09616560494071
1,15410149410555
1,21316205472447
1,10484425159253
1,22875562466228
1,16745375022888
1,21151936031465
1,07146266394001
1,20477425323122
1,16432461419378
1,24241326886607
1,17274141552128
1,17480742267483
1,14536157285853
1,14377395866539
1,08460994918491
1,21091841577983
1,16047076216722
1,41728533579339
1,27165259892552
1,13128845397144
1,03078197958408
1,21388364663671
1,1974436020192
1,24006377368308
1,06222175724463
1,1120217267587
1,05718055545238
1,07966360648425
1,1307341655964
1,30217607376358
1,04061776196297
1,09190348284249
1,15246026464531
1,16893768059006
1,01195981168045
1,22045263559199
1,17049359182095
1,27358022315429
1,09615667482049
1,01815167332732
1,08588414319778
1,16919784422986
1,06525232007176
1,04920445952304
1,01860156314425
1,05845038031582
0,982280548030447
1,08653670808395
1,12795755977346
1,28434117226279
1,17745842578815
1,25670985426025
1,21148481130567
1,2585092255566
1,09237295894422
1,08793454747853
1,11319843882318
1,1522749342491
1,25411683351803
1,41478401612919
1,15086642090816
1,22124911795727
1,3106710920938
1,2647586109073
1,18663314756264
1,58021781756749
1,36645813816541
1,62859695049631
1,87516194246372
1,57013840140388
2,63509524236514
1,40573853303235
1,17041826340759
1,41944003911696
1,18405352405079
1,49574159553034
1,36190660950111
1,36728824020167
1,48656428521207
1,10364872338263
1,30087260763962
1,59877267000331
1,22702047778142
1,38138154002744
1,2565437232149
5
1,36011219526344
1,71696370816003
1,71638767298064
1,30777124121753
1,0962744431227
1,08380104651089
1,41074730080503
1,44628749863508
5
1,83051110950531
1,89467719062008
5
0,961839664681975
1,60192711213422
1,17556866380974
2,29283822050007
2,20357833030736
1,56542739035527
1,07731037995428
1,19479060033731
1,26023212692363
1,3342477466666
5
5
1,51529872397138
5
5
5
1,20789803813391
1,26405006812324
1,23637178146567
5
5
1,39729910219313
1,06600236595413
5
5
1,35483114344291
5
1,89834073271361
5
5
5
