3596
4000.36533379555
650.420452594757
1
2
2
0.0263951019169521
0.0277464739311394
0.0270723148753624
0.0283631697057576
0.0364172514263762
0.0333484292076027
0.0384542031354883
0.0300349643029061
0.028556051148053
0.0314578843758494
0.0328899863002754
0.0313415912113386
0.0344886254580976
0.0322702758012947
0.0365215260808548
0.0267344330511082
0.031776032719403
0.0325529459591124
0.0393425388553035
0.0336117641068267
0.0339168852499435
0.0315853162514434
0.0320829271117296
0.0317516359573077
0.0347064391018286
0.0257045374247663
0.035536487288075
0.0356296954749801
0.0307299617316625
0.0328450416732561
0.0290356471804984
0.0245059393901751
0.0268924659443053
0.0318656805798764
0.0314512102903923
0.0301608121896042
0.0415857846703784
0.0358255184480078
0.0311317477243626
0.024589800856814
0.0333424272962149
0.0372511952156308
0.038580333987805
0.0347732885243199
0.0328791372988423
0.0298697845206521
0.038737028812938
0.027703888284407
0.0296410718029433
0.0350510815597566
0.0422568071336866
0.0275088153358949
0.0351150607123533
0.0377655561091437
0.0343035054799376
0.0354961053600455
0.0385624561179465
0.0382002727788986
0.0421368451480426
0.0332695347178888
0.0427841001661035
0.0412173404982756
0.0329600723307403
0.0325802034137463
0.0300042361667114
0.0377036819281927
0.0403899474507986
0.0342656347335212
0.0261684591428501
0.0344510177663635
0.0269651148569192
0.0288317409255973
0.0447697267272007
0.0368764031881162
0.0347398171832862
0.0358755021472603
0.0347099647729302
0.0309610919614059
0.0318673900830037
0.0324335205659423
0.0379233824378433
0.036060083373355
0.0380477625593107
0.0302152200331307
0.0335368651809568
0.0448759428090377
0.0250363958229546
0.0273650635349684
0.0465413037087666
0.0413207182633069
0.0339036209202465
0.0298863576902321
0.0300915997323625
0.0339649935124069
0.0346229112405093
0.0265167880362029
0.0291157894406161
0.0341844768164852
0.0238984346282592
0.0330304275220163
0.0337824550810611
0.0338255205373806
0.064130965999565
0.00680348161770681
0.0448610638641021
0.0323480439874588
0.027127432547768
0.0628984367244104
0.0406836444077151
0.0413954542679682
0.0401267696147824
0.0367808379129259
0.037056156014631
0.0444957195691254
0.016711127488278
0.022084049194657
0.0532926610485329
0.0384252839496726
0.0315006465860512
0.0332082587084369
0.0276204620406273
0.0402775732187072
0.0589546943356253
0.0264545969022303
0.0365913419701316
0.037146160217416
0.0219811700588671
0.0404550468595516
0.0610282414966768
0.031937019339109
0.0365196190263063
0.0292386289578765
0.0321782720956506
0.0225394177625553
0.053656840702265
0.0322108755931746
0.0418169049748881
0.0155028871667404
0.0338383428804579
0.0619463557944428
0.0409718080564114
0.0363915102136557
0.0188402537267451
0.027124228722111
0.0509153391123747
0.0350332686571854
0.0320691754243108
0.045254613633165
0.0410672103163729
0.0341740172439871
0.0392284216821613
0.0282916078198937
0.0379466630964393
0.0402272224188206
0.00221802045634242
0.0320933883932467
0.0669936972958704
0.0322541547816231
0.0832490644881935
0.0292726171657358
0.0440808934470973
0.02746289589778
0.0390487636613505
0.0243871955149704
0.0371043806655859
0.0228550248910328
0.0433241118526617
0.0474406024999899
0.0336534187285072
0.035397672561128
0.0478669857820625
0.0344027384014718
0.0228389343111685
0.0676930981514228
0.0478188527563789
0.0268755512924868
0.0524971161466033
0.0397976883373051
0.0366305973279926
0.0273005198605828
0.0479508918953729
0.0337356458541806
0.0448173170281066
0.0278647259316972
0.0349030876430496
0.0390680984321624
0.0426447999108724
0.0314360677596533
0.0364181489509709
0.0185126257602181
0.0360396148741224
0.0553636896648847
0.0609048860268874
0.0362424265090525
0.0409358126484741
0.00573433650137813
0.0555365061271735
0.0592525087009676
0.043996803779709
0.0335001519531438
0.0352293380696337
0.0286656837203512
0.0365202147204931
0.0397862430402807
0.0291126897559168
0.00997458400112528
0.0694214867907057
0.045820911099076
0.0393549735515009
0.0316970947755415
0.0339002208737308
0.0109608902563603
0.0685031664817726
0.0510446088534936
0.0400282388398256
0.0427289115321389
0.0366596333810172
0.0402779325257774
0.0515841999878892
0.0371131188913101
0.0466737478103672
0.0398534669447095
0.0432863018343443
0.0338641290881344
0.0389195029968866
0.037027942405425
0.03872128527708
0.0352024514011457
0.0371153678777923
0.0372684182032702
0.0516319727346938
0.0397317243073356
0.0428925531385398
0.0397672404327761
0.0368425422834532
0.0471307027932701
0.0623145017070348
0.0449154013669333
0.046215535021899
0.0365816827487725
0.0413386325787786
0.0419149939507449
0.0433602823391467
0.0336756304573105
0.0434496993478776
0.0306436694011429
0.0742229199405412
0.0464110389345838
0.0508036471251457
0.0338337922611215
0.0549233842140794
0.0438043854373445
0.0476015409425545
0.0428237251778903
0.0485148696335166
0.031642585120548
0.0361582650198507
0.0485108758987557
0.0507879868482594
0.0347131265977259
0.0518601546785096
0.0478157792580837
0.0522826636948345
0.0355830221695537
0.0222498224889952
0.0776926802144337
0.0483109450597536
0.0196418045137759
0.0926825068767147
0.0549536062842117
0.0557877951015529
0.0383207911657082
-0.00136466930322839
0.0911996256550879
0.0943271237414355
0.0505841809039532
0.0475052276084452
0.0617940913670072
0.0553413398583805
0.0535222316537298
0.051257211839856
0.0610381411630281
0.0733424566796674
0.0615561200367163
0.0799154234040206
0.0414186467139835
0.0696217732565994
0.0562957335555632
0.0608106849819859
0.0563405372382314
0.0669644952922556
0.05083098015351
0.0609467930145715
0.0586415420509317
0.0677715769427352
0.0565291559190509
0.0549288434400153
0.0675349357557794
0.0723036484132054
0.0556359648654506
0.0653879514635619
0.0704844809606207
0.0671996876433706
0.065662867942266
0.0699062975838338
0.0740668958603666
0.0628934886274004
0.0539847377879732
0.10706918731954
0.0758816716948355
0.071540841335606
0.0841252947280916
0.0804616956758927
0.0738648558024955
0.0820388192963679
0.0747498671862064
0.0778658546294131
0.0826287426966441
0.0749941302098349
0.0956417100929204
0.0936257078041048
0.0871831705804878
0.0898604040498022
0.0852729984575617
0.0920311010756586
0.0937188587597167
0.09877955936869
0.0930085680932115
0.103598544450313
0.0900007306239967
0.112364860078188
0.124257388218463
0.0945987391561886
0.114917602108501
0.145403381700871
0.120238186519868
0.124820336982784
0.119265861509618
0.134239864931574
0.122189362119239
0.143801100294499
0.136977640917566
0.149262039509258
0.150864914791659
0.144775219791444
0.133660686057356
0.145027685524749
0.171208424541416
0.193297274662391
0.165563003158289
0.172565966211799
0.145069877033058
0.209573499796173
0.196154706394454
0.196884066185014
0.206033621849211
0.199195912731865
0.198651214005205
0.205344246662016
0.217363922277277
0.208872126721918
0.215477147590968
0.229189442134295
0.226974523575506
0.238362895811212
0.247636129250289
0.240941573742986
0.231389832931159
0.273526056565368
0.265596445791716
0.276539287460248
0.274116874025363
0.26225084594674
0.289114404019937
0.29241103440627
0.300375976231515
0.307077028187219
0.292478984846044
0.325335404767249
0.298070645383963
0.313735983515849
0.307523386963246
0.323543443904395
0.318606847223739
0.332461402620857
0.332503566911806
0.342869514809299
0.33567981597772
0.359424054655347
0.346308161412447
0.362262884006619
0.355991483548758
0.389533730616545
0.366907921380725
0.377549541954962
0.361985165096922
0.39925577778972
0.403771040077126
0.446932659259595
0.387539919187929
0.404328532528314
0.409589721515307
0.410046139621688
0.404113693207471
0.426278280301923
0.419775737573401
0.438492117128418
0.446242736019953
0.451610619617443
0.450066548279605
0.462979696018077
0.432164648245802
0.472713608720811
0.450362987753443
0.490829456538561
0.485841667348166
0.471146349338897
0.459653729152759
0.513840966421113
0.494448185320543
0.491280095054055
0.505197083102154
0.505506436092977
0.485834516851831
0.500554973388801
0.504917357063313
0.531126320595963
0.513263825751156
0.53069933149371
0.520231305752502
0.530353018781473
0.515588372123359
0.530850988226129
0.560042679778493
0.555234956027809
0.538862751783122
0.571678150502304
0.523774539807752
0.562369551705124
0.551586571804781
0.601464639485811
0.56255894998471
0.582287894515689
0.563807346344861
0.571586812219249
0.588021104935711
0.608325928930237
0.585089038131778
0.637270290536576
0.621112954241835
0.633426151486288
0.641125378108426
0.635839573632567
0.634779809476408
0.675287991416511
0.614923918121113
0.64552032892219
0.618313231192813
0.671230951377908
0.646536250326389
0.670979181619051
0.648314930456593
0.718448497008585
0.695196447449425
0.719595146458843
0.692815291476156
0.685941547096227
0.694769200522288
0.72886412996216
0.697786736128178
0.721559416708926
0.732408778987114
0.748020698666877
0.702636039321841
0.756521920704989
0.699917813277464
0.775982865979493
0.735692992194158
0.755390636616749
0.752715595180644
0.812900026444752
0.735858228455993
0.797770161313065
0.754076629003644
0.787700736762482
0.773131856205382
0.77863081124476
0.768975700487648
0.824261275442316
0.79014774062427
0.846571516077095
0.785823061948242
0.850885445633911
0.822823575197136
0.845332244217631
0.860999004756478
0.872905344446738
0.82628302516639
0.89963005255424
0.849865955718323
0.912096498712378
0.857860983750375
0.92414496822175
0.883433811343937
0.899308871843622
0.872696352600084
0.895559495066721
0.885912451670133
0.992197758592402
0.83496985757208
0.946214077143033
0.88293553711587
0.939746145653399
0.923511835676387
0.969337848984169
0.902735737830937
1.00576341575508
0.925749245435904
0.98026135122928
0.939408938107476
0.962338293729302
0.90370842640418
0.976242205731056
0.984303874137843
1.02615529142986
0.942116779635623
1.0170007883772
0.9777949432608
1.07830960121855
1.01329404730879
1.07504436421956
1.02045506824836
1.03108720062453
1.00353648281077
1.10293262876744
1.03455091729078
1.10862876779379
1.06716504240131
1.06844216793822
0.979306674451768
1.10902212315801
1.05344655810807
1.17219379907446
1.06056510520696
1.08619163317555
1.00925357350888
1.1064555873305
1.02997444018105
1.1584046053991
1.08567755439613
1.22076558628809
1.16372890022936
1.19670885422679
1.03160065943021
1.14178011144118
1.05561195517844
1.12751525202693
1.13739929086218
1.24215449899995
1.14157567320641
1.24584667759054
1.18448895610267
1.31470786555951
1.07086694680583
1.17803621547073
1.13607373696433
1.33250495918255
1.2532472010773
1.3106554889753
1.18722670228924
1.23827420011198
1.09332859467569
1.35936388462501
1.22930640101512
1.25936343540965
1.25636035965073
1.45347403323749
1.28025475070375
1.33150812490538
1.27533589036992
1.51081464950075
1.23194425488149
1.27877180710352
1.20416028003788
1.3419055357253
1.293862960263
1.55974603394858
1.33780735827322
1.37348665640536
1.20675090647448
1.53182630231386
1.20492429960585
1.65774702189469
1.45467255235948
1.42662708428784
1.31375617871235
1.44778883821255
1.27879340055461
1.58152539599963
1.38175920784887
1.43742185795732
1.34523213985525
1.45976903121581
1.5147367684479
1.55074076702979
1.19893555855822
1.64572870090335
1.50242205519467
1.69733694385671
1.38226600462283
1.7754988856911
1.47297481768611
1.59905211486815
1.33552027053057
1.42555366354379
1.35304506493093
1.73227204996497
1.49404181643351
1.72205431511979
1.54032792739266
1.7239945943424
1.46676644969151
1.64289285153091
1.59574265370405
1.95702617520608
1.47814450303767
1.81123844671832
1.37064015424151
1.57433767138203
1.52946600653233
1.81384094140191
1.48212015375158
1.80510877008092
1.61607685428353
1.98159961901246
2.12135082891
2.06449713436593
1.58846492168838
1.82804328136158
1.50605619399599
1.69786671102773
1.51849832124168
1.80764762999505
1.45641302705841
1.68536389002118
1.66378233539059
2.28538457190225
1.55345357458839
1.63478561104844
1.58024912475553
1.92115125100457
1.48552163575024
1.97508635513074
1.79231018115726
1.71177506233959
1.52060423221951
2.41190892625122
1.60856532491883
1.7171077947929
1.81260685394763
2.0363323470494
1.56101688857722
5
1.75093478129801
1.75848995694636
2.1176833834034
1.88427559253124
1.61286868238876
1.7612465767412
1.45160390928665
1.81110128113781
1.67728233861956
2.77806921204055
1.62001551236991
2.13993829573598
1.66192586676667
1.78609782992142
1.70491899425247
1.67851677372317
1.63461006623658
1.83415858498508
1.74251235527046
1.53681478340945
1.83689689322884
1.90649097749905
1.78387380689043
2.41874944178132
1.69377734931236
1.86845175389
1.59555312143901
2.14357463025466
1.80205842138272
2.11139434470809
1.69860681868226
1.96281609149243
1.77501855453534
1.74326611575486
1.54243265466541
2.14269295914678
1.60538483430481
1.69051634885789
1.55243381469556
2.06289918621725
1.66952983607698
2.2778103499913
1.87464034714919
2.02966512030876
1.89926024883883
3.43233916645837
1.73234929830819
2.2270608715866
1.81362208933368
2.16258660019644
1.53740603242853
1.71317271970205
1.85371913709256
1.70034075277748
1.56426509115414
2.32783260285422
2.0116245570906
1.87573577761524
1.90944270130071
1.65550547238861
1.56288262588647
2.07434236837748
1.78404839901902
2.08928082254295
1.82429816704163
2.47270489365172
1.61053893935358
2.06387376582199
1.8189152996
2.21981416724585
2.34290682697033
5
1.90705366651223
1.97985761190031
2.14467410653751
2.18457669870052
1.75225533527905
1.67238136639699
1.6032304791059
1.69359961794969
1.83734508014803
1.73140269224714
1.78853986969003
3.68334256395526
1.62758826994203
2.17094392382349
1.69855899780743
1.73095383266404
1.60354938619562
1.70196783046798
1.50797851498683
1.78542071939851
1.83365618026687
1.65193669086854
1.892964682137
1.95855733427092
1.50107203160642
2.09408823870341
1.72242295886521
2.27361905205794
1.69829588039916
1.657871637941
1.73040354385142
2.11008620524902
2.02548873364544
2.11852296299543
1.86387145950551
1.874075405745
1.78237882754002
1.86009354940665
1.7641982277645
1.67417449517058
1.72132008092557
1.81075407403928
1.68290054850271
2.1509731073498
1.98771485672136
1.66320724742013
1.88803489958872
1.87927798752594
1.73735737685613
1.72937250194232
1.74965643408074
2.07543006163541
1.81812927670133
1.70888040333638
1.6340143091397
1.79262937419236
1.80553681004006
1.86631025798881
1.70891812163677
1.92242328085759
1.78735617225862
2.00887917440007
1.68017879348293
1.64451484718327
1.79458217248007
1.97095267724754
1.70110370680837
1.69304174032367
2.45711665984893
1.86716409927567
1.69232745620412
1.71884732808441
1.64973576964942
2.42749713495668
1.88749081659554
1.82031968477107
1.97600368276556
2.00113666200804
1.62182331978774
2.26121823315402
1.66373262241728
1.86505513865617
1.95661271670684
1.69669194032201
1.75341716473766
2.89346310687268
1.85828160892553
1.79083360877434
1.75753616406152
1.84599178582319
1.60268421099062
2.29796418829784
1.94250872046026
1.94851286868546
1.69643420658171
2.08769623977671
1.68591216984406
1.80321125354248
1.58973951521131
1.84378709225123
1.7224705777524
1.7207966535073
1.67062914603824
1.65487754861109
1.79707709320045
1.96067689232054
1.70822157503542
1.61823471153864
1.73999759660167
1.85825536942188
1.80257004057889
1.82324518636455
1.57860234688233
1.76847266831245
1.70558121497833
1.73075576975865
1.5398169980944
1.75454168187439
1.63237076487747
1.57554688412341
1.69597744224985
1.7552864291104
1.67296006028542
1.75571564070771
1.71678005919764
1.99051253139139
1.50713289072629
1.76808905714115
1.77659173478714
1.67316760414166
1.75505950278875
1.78664504604971
1.44432884259906
1.51759875969861
1.68548735475333
1.546480196362
1.48467752397037
1.56969170527756
1.51470713200707
1.59853015156142
1.41437927626237
1.56024036551789
1.56133921536009
1.62427550354691
1.58609320433525
1.5690713509094
1.49687329818756
1.5027752559163
1.42715194307957
1.57624020830941
1.50071483999529
1.43445706304657
1.50140948248241
1.49792754297121
1.4542280499976
1.4947747774363
1.48408829790992
1.47065806722707
1.44884662345526
1.40492286061759
1.41693244792262
1.35446641465307
1.3844990837157
1.45781875837539
1.39557475692842
1.44309143380151
1.40046698838693
1.34140027265956
1.38514075785702
1.45487609151307
1.3890223501665
1.3292673114059
1.31823580099184
1.33693433367854
1.31711271231962
1.37730622269274
1.2686137844162
1.30763980136288
1.26925994417674
1.3261279694184
1.34621065994847
1.34599384668422
1.22825587748002
1.32106918781909
1.24097964704349
1.32987491802866
1.23688315877903
1.24683694858529
1.22025136372127
1.26777097527962
1.19403765683666
1.16917821324906
1.14420127380396
1.15615110910214
1.15169457634947
1.2192283955788
1.1036709364504
1.15920753670595
1.14850914227207
1.16965628175581
1.12339755525705
1.17126130866544
1.12209245924707
1.14335306258922
1.07455613722192
1.1130919230311
1.08303937472855
1.11619779579317
1.03849172342739
1.09604793700784
1.11000030537664
1.07530710085703
1.04042988885452
1.10347367773412
0.983727656433235
1.05179899888943
1.01174739106574
1.0220457548592
1.04733352806503
1.04599724780064
1.00374175002583
1.01486161316767
0.992732295509654
0.984635334377313
0.985243240601934
0.959774060239696
0.941408412734711
0.943573275026932
0.932030961603625
0.951982601962791
0.916906784985143
0.937586582226884
0.908010356699005
0.912551775447424
0.90536504887873
0.925660550220556
0.856579413140489
0.90810254103106
0.914389076949845
0.872690620176831
0.84350065030243
0.891654999540243
0.85586352613378
0.853602264177514
0.841463137214898
0.873610703308851
0.838273517061549
0.818125050789517
0.809444649629167
0.829635953470851
0.7844155759386
0.826161815856229
0.784720033164687
0.799324211064008
0.783166873927937
0.785036877139794
0.766760023012712
0.793741084913504
0.759346052852971
0.787872746140507
0.75243603951797
0.757134681292485
0.743585209955793
0.757221483234825
0.727445392423351
0.731662894480261
0.708190267518338
0.727419173199781
0.697791502542115
0.723433529810331
0.70451329768706
0.712163374083023
0.686249561788368
0.68977974449428
0.69103709452364
0.699506543277448
0.677367004949976
0.670207341229706
0.642100752008206
0.662125208189784
0.638013477145498
0.652556195876784
0.642293539380364
0.642081156542135
0.628730045580342
0.636081647275573
0.6315090922249
0.6298532206291
0.604404320408318
0.612714870108004
0.605728118897419
0.60968481690051
0.600880196248946
0.616767884801818
0.581083789844771
0.592811188195822
0.581456183373285
0.579762925081335
0.569283103067933
0.577464423634085
0.554031536133459
0.572751207679266
0.551079678170707
0.569535224379844
0.546407697418115
0.553651460078556
0.530922536761254
0.541087744555212
0.526920086184425
0.535757056080828
0.52353249071747
0.546934393553727
0.515188619667817
0.523225295643005
0.505105168315966
0.514698348278782
0.499152249460461
0.501219259635686
0.489816739425523
0.497467322945453
0.482498814121383
0.490319911803068
0.482180921537561
0.481298584853183
0.46206344266702
0.484293451933402
0.462696114051515
0.473096239595315
0.46228439295687
0.467506801653445
0.444779570520968
0.468979270263067
0.445290968323095
0.446482778781224
0.440077356827598
0.449367001642788
0.436101314625379
0.437992652919564
0.427688299337277
0.423323626738689
0.422182378955953
0.431834091144487
0.415963237313717
0.419920126943208
0.412676435575293
0.422601315213323
0.40943775497297
0.412626893608887
0.404254687013203
0.406061574538973
0.392919487089159
0.398258141464188
0.385325570783828
0.393639930513914
0.378013970856054
0.389357296674924
0.374166012465223
0.388094160436873
0.371813780464355
0.380932783680973
0.370609144015487
0.372210798139483
0.367480235281209
0.36523896490702
0.354908579719163
0.367864345813283
0.355617862177747
0.366462299384624
0.351097730328339
0.357070495182262
0.338667775820471
0.349994968080811
0.338724117836953
0.346653724189043
0.334707623398205
0.342118352269744
0.330560185278356
0.339268750894469
0.324224460194413
0.333936476541056
0.3163452384811
0.321425367136512
0.317063862707012
0.327637206312614
0.305859155264994
0.32573273221016
0.311250165716507
0.317477579698963
0.313577962047004
0.312922654160299
0.308413909867591
0.317796393078328
0.299750619410153
0.305962658187216
0.305693997888967
0.304246458638817
0.289233879940804
0.306225530055138
0.293514929693974
0.301172414193289
0.290833637850208
0.296961844728052
0.286819277134469
0.290298274316471
0.284429182372756
0.280437610539011
0.279247811202462
0.285469972216473
0.270647074307631
0.287206272062771
0.267271632541382
0.277221896045782
0.26934730607322
0.270086588272231
0.272559038301596
0.263360975419204
0.257450405542537
0.260943807433566
0.263179165628584
0.263440873448903
0.255305952195025
0.259829827084831
0.251697606266021
0.255039513287392
0.243557768310348
0.254768317175513
0.242377229199437
0.248215254858628
0.238369886968857
0.246572492268642
0.233721804060463
0.239787104139244
0.239169027768945
0.235828065871602
0.226377474967893
0.239297609225106
0.232871385970165
0.231754530677616
0.231256561773659
0.234264528472182
0.225521899153271
0.231091751970581
0.224969813546579
0.225394990648361
0.218225218714851
0.226128471765309
0.217894350781409
0.226094639801488
0.215086518908899
0.221543394726841
0.213967320820979
0.214289750646391
0.209770450338248
0.221930024256387
0.210007702475856
0.217436984848991
0.209059242967592
0.215401594780189
0.200875837384774
0.209565452914297
0.205061929066513
0.208401268194204
0.196433858131382
0.206134444895545
0.195916009059139
0.206141898886723
0.195714147921203
0.199680583245433
0.193553634300642
0.200997421670962
0.192185105110206
0.191277576968654
0.191784836613279
0.195409255803124
0.189316467907396
0.192077956471399
0.179544722233521
0.185573358678463
0.182433899779381
0.183048456914332
0.178037750019683
0.183546998718362
0.178980886991258
0.182925643280282
0.173984358754897
0.1754021268392
0.16926394243332
0.18188492564992
0.167981687276785
0.174224506787046
0.167452427763222
0.170765047003812
0.165484363112019
0.170642309082268
0.158363118092885
0.164687911331543
0.158426844626356
0.162156928957278
0.156921913930442
0.161203607348206
0.152001894168534
0.162280812054182
0.156573350299756
0.153217240857063
0.149042838101225
0.156208266329595
0.148757033935979
0.152799953537688
0.148036980660204
0.151558218166071
0.148699731904975
0.147950236605996
0.144061704110172
0.149910903028445
0.141050459597019
0.1435527288226
0.139144232319863
0.145252816004167
0.139280075250651
0.144239103912406
0.137977346062667
0.141830449730984
0.129600404909606
0.137717963744233
0.135532809554428
0.139804013351808
0.131754162991839
0.136347518675777
0.133700099885374
0.137108193916649
0.125631803246333
0.132989812544343
0.127268810499752
0.137682419512141
0.123600376112187
0.133095393621332
0.127448055122499
0.126543444396131
0.126663330288042
0.126983284158838
0.126265788208853
0.129179221043829
0.120196177403786
0.123998447488206
0.120578530554876
0.124899648515459
0.115909052956611
0.117902238406838
0.117190393180434
0.122738844801078
0.114795761804786
0.118389100979241
0.112549600149666
0.113289417824234
0.112654434356231
0.118508971375179
0.112832898307256
0.116897522852049
0.107950623278734
0.11363511833964
0.111498296316764
0.114131402100473
0.105606333473187
0.112754140695169
0.107748945086791
0.111267878570789
0.109619821907929
0.114877644658111
0.101691985301852
0.107449175990453
0.104976122808615
0.107014257308581
0.100608711546645
0.10617379707665
0.100595917247741
0.107297753190378
0.103560396430099
0.106168531167748
0.103772819976855
0.101500215550652
0.0992595132816484
0.104345274863568
0.0981963631909061
0.107366573193588
0.0993098864483274
0.100004166349005
0.0972059236868019
0.103471651676539
0.0977312162015245
0.101759285444459
0.0943992711492885
0.0994553023336514
0.0937408737238067
0.100703827132601
0.0934217639830609
0.100277114903133
0.0942480738578595
0.0960781058710967
0.090599022456387
0.0967786488020163
0.090484221923564
0.0953117541137219
0.0861506978883222
0.0963995740548247
0.090492294213654
0.0949267026662798
0.086856136417396
0.094799789162462
0.0882435790720186
0.0898814373330672
0.087560369099834
0.0913177163403071
0.0889316667021876
0.0897613039645503
0.0852790261767251
0.0936116213292239
0.0901041430601572
0.0911713233525751
0.0871632397509276
0.0903185073392007
0.0823891947501637
0.0902254751458198
0.0857105036842801
0.0864253703929168
0.0813600841733695
0.0851211502610776
0.0854982282301021
0.0868271215837176
0.0837494372307335
0.0857859910589712
0.0804378263862825
0.0853379172924105
0.0793840923007432
0.0837039081799458
0.0786961986458164
0.0826489553731998
0.0835612300921257
0.0817950486819832
0.0792599822176562
0.0852336924224935
0.0757277772104139
0.0829804990511687
0.0795927875115856
0.0834177904139501
0.0751211606660944
0.0850911654970748
0.0794806287150856
0.0860918842150074
0.0770057827666133
0.0757977798886629
0.0779145467679652
0.0835104366500418
0.0767030289746017
0.0796847849431659
0.0795758752920803
0.0805069484621845
0.0755634688045078
0.0833197775309263
0.0748572894707632
0.08018387589771
0.0745506212291178
0.0793291968464472
0.0748300885311729
0.077335362224457
0.0711113989658431
0.0772651468837066
0.0717257515675113
0.0786361568653804
0.0748302814432554
0.0762081047507727
0.0701319925499376
0.0770432223600741
0.0734770121291436
0.0754110952631876
0.0701387057665187
0.0747637039716339
0.0708760052592491
0.0745008832611353
0.0743784250394319
0.0752689446551493
0.0658653109131581
0.074624326579521
0.0704382553155899
0.0732827299215405
0.0676168613626274
0.0719114707523694
0.0680811534789944
0.0728571102268625
0.0691934644764783
0.0700090756585705
0.0679683245432936
0.0735560395752445
0.0664835494179021
0.0688196158493658
0.0664355738635888
0.074543302859376
0.0672241375741095
0.070963130816393
0.0696744536931691
0.067669194757188
0.0651635444424151
0.0719005011521918
0.0626087634596321
0.0701258937853281
0.0689349081163146
0.0709733817083536
0.0649174034867736
0.0663710402534407
0.0648890456043264
0.0693141821531764
0.0678487066148819
0.0695007872221457
0.0671104413938607
0.0658077598329917
0.0637999445630854
0.0678273280614796
0.0643848707678726
0.0707756563847884
0.0686108896949012
0.0690378096891012
0.062774050318094
0.0682442284068099
0.0636523498134137
0.0668132494979451
0.0629876742495676
0.0648582299512348
0.0621228571977885
0.0694886746497786
0.0588364011129807
0.0668437116072349
0.0652312831786534
0.0676414260048697
0.0597747388623536
0.066276809537028
0.0626012374354184
0.0675020497833723
0.060917546414609
0.0686452631737955
0.0604866219528983
0.0632782916008257
0.0633296102948592
0.0648085871869806
0.0582288769511881
0.0648091382457777
0.0610420189005862
0.0643707804587822
0.0613044028183885
0.066000055195636
0.0592936719760739
0.0619878733345021
0.0595712889005852
0.0670006117878635
0.0632272222312148
0.0652774491782915
0.0625679544699801
0.0633545512582871
0.058212304013506
0.0654227673039957
0.0611823377809266
0.0650374451217962
0.0597940738453105
0.0652464737724037
0.0645115076927153
0.0650363138736577
0.0620156056091075
0.063330610486515
0.0621043022751574
0.064708158792245
0.0653695976760198
0.0667006682003468
0.0637812391616697
0.0647425081947289
0.0605149493468759
0.0679499876776588
0.0630975811026999
0.0612660253153384
0.0628960515524972
0.0614204406009096
0.0607953589107988
0.0645722766513759
0.0643396606674702
0.0649855705320903
0.0609810217551878
0.0662043964746154
0.0667875559460279
0.0643671133015726
0.0587573227756732
0.0618231519634081
0.0614970873027736
0.0667463878894635
0.0624330261517713
0.0653885116235601
0.0629360272767455
0.0654818800547673
0.0604403405521798
0.0664849031421672
0.0644396839440153
0.0666121934581789
0.0620980575852577
0.0647197195296526
0.0615521082765618
0.0660951226680283
0.0586336923739703
0.0646535334407338
0.0621481745905284
0.0650947317368554
0.0611022845553391
0.0678525964868445
0.058201687885106
0.0662446724587704
0.0609587283131367
0.0657480729187667
0.0613464559787988
0.0675126902205809
0.0627867904934863
0.0663356562149094
0.0634461963284604
0.06617963671932
0.0639158787231579
0.0716104520876849
0.0660684192676627
0.0671857952597772
0.064647636770863
0.0685542162512884
0.0657389703021456
0.0669286958167884
0.0628757180780396
0.0678078563325277
0.0634690633797854
0.0694441754207068
0.0648998738379762
0.0690507040879368
0.0652830520310638
0.06931512407534
0.0656244173153393
0.0673881797468947
0.0661269126704109
0.0709203693195488
0.0623650635234997
0.0670703059185347
0.0643000991922052
0.0714297047040907
0.0647248979277598
0.0702448478532742
0.0681008782338403
0.068976730553834
0.0665480488697689
0.0690692606548104
0.0666008597853967
0.0691684571018877
0.0679741781636073
0.0710053673640667
0.0667701806948192
0.0663509769986795
0.0633115630620533
0.0683651371586807
0.0637890508514018
0.0689469721636392
0.0677702666637892
0.0683047203017747
0.0638787553892173
0.0677552115235966
0.0673185611043294
0.0716515294948501
0.0697061407064492
0.0700055797686806
0.0662707922331881
0.0692999907029431
0.0680427659059815
0.068357367126417
0.0663779500794847
0.0718745431060247
0.0668772823703581
0.0696631245340198
0.0657821571517525
0.0711675180558379
0.0694016806271005
0.0722101210320101
0.0700755972467432
0.0741608741682158
0.0662963360364193
0.0738518510888146
0.0702636145275108
0.0728225464676825
0.0659705902568263
0.0745811021606761
0.0712692136159979
0.0779683460491078
0.0706345953321961
0.0720416755257538
0.0711710058889314
0.0729929370846933
0.072607180464762
0.0743648827449743
0.0707247112551852
0.076534476388711
0.072881242143067
0.070587115353002
0.0716002400450961
0.0721808026088673
0.072027269484699
0.0738916201800157
0.0740958805930755
0.0765370680164685
0.0722369943457543
0.0722487971400267
0.072531682619558
0.0757366423137427
0.0727461225442112
0.0759641537704026
0.0732589376677637
0.0769964794127067
0.0710554580759247
0.0753139348850679
0.0737685333580817
0.0763540927560479
0.0725790697337461
0.0743007505137059
0.0712618806002605
0.0747427936624472
0.0748779261504081
0.0788667000770207
0.0765466086055676
0.0771722681929813
0.0749638209883955
0.0748379187802098
0.073411176814001
0.0748602184420519
0.074139885793297
0.076780713357886
0.0758182684087897
0.0749980867381727
0.0731609614927692
0.0754758735245403
0.0766536617150145
0.0769086492503749
0.0728206507390693
0.0766678672140141
0.0769000388681739
0.0802904286511518
0.0748143790103285
0.0810531543062979
0.0794758325432991
0.0808072622853417
0.077557262836473
0.0804780984267872
0.0759594563861384
0.0816010237080525
0.0770188081523781
0.0805031457516295
0.0784321498145153
0.0826956671166328
0.0803708229779398
0.0803745669108849
0.0789492674804901
0.0822062868118157
0.0780164525514582
0.078652394551749
0.0786278133652185
0.0823717567081993
0.0771082898614043
0.084177237857767
0.0796561375601652
0.0812555759020353
0.0814278947152414
0.0826618893841369
0.0793219110579045
0.0865100191803615
0.082916742505183
0.0804971213928179
0.0826007122227538
0.0857937697912381
0.0818268575957968
0.0823948288363658
0.0823750862165924
0.0844410965307014
0.0817726896322333
0.0834345125336627
0.083689662468747
0.0850603330898331
0.0833695873319183
0.0856887184634986
0.0858980472670956
0.0836507487301757
0.0839813329640642
0.0858629269925272
0.0855008291370695
0.0844082032669814
0.0866071493343975
0.0865653677904691
0.0885318960928448
0.0856610449756877
0.0866578227935099
0.0878879897767763
0.0894849675012621
0.0884380228306496
0.0868469102341325
0.0886897420718262
0.0868102760336411
0.0888930722578423
0.0897808102137416
0.0882100799316245
0.0900163204689142
0.0899248248944603
0.0908760158964797
0.0921633983723559
0.0907539738351695
0.0849493925813792
0.0885878564449796
0.0904796532837132
0.0881403768222882
0.0847896655135036
0.0894723569002422
0.0934915603827923
0.0950519405467694
0.0985076180821745
0.0965382104043505
0.0887431099672987
0.0914505933457974
0.0884650541027001
0.0981324319067285
0.0935759714252887
0.0912279233666506
0.0925604287956094
0.0997905573939163
0.0906607570559272
0.102363727668715
0.0918277402553638
0.0984203282555493
0.0943695687352931
0.100565107272639
0.0956552264461269
0.097077950934392
0.0916693804307353
0.0998146105164638
0.0933148624679709
0.1022141869961
0.086120548087847
0.0948690740182262
0.0919191862324411
0.100824156960684
0.0900257582651425
0.104912076019787
0.0928282414592256
0.0997601905068293
0.0914272008104687
0.101774518483507
0.0889915167771662
0.103740154265924
0.0916547664535349
0.109320661519023
0.0983690387078271
0.10623903804834
0.0957080171174026
0.105920512023043
0.0949531133340066
0.101453493584673
0.10400828114053
0.106402300594112
0.105292764678756
0.0962136882509802
0.105760391918287
0.0891272459569649
0.125240758425263
0.0913969385389038
0.123575708658684
0.0704379477325154
0.138211420083121
0.0720331171770874
0.136777632995754
0.0750331365870295
0.142202936229926
0.0718081722775745
0.138497136567066
0.0806694398441097
0.130737485023804
0.0894257450014188
0.126792674246555
0.0981323286258264
0.112192262538929
0.107301191118797
0.107943388489707
0.10894281924668
0.110234606158813
0.105478423103219
0.113558246139571
0.104385728808139
0.117993498934448
0.104826636469014
0.115838487631073
0.100539372705522
0.117368324352451
0.102953865246264
0.113062567576472
0.106370257495934
0.114404035636385
0.107789911965286
0.114982643046338
0.107386994947128
0.113450194648342
0.106542600789378
0.116311753090349
0.107513506061414
0.114241331467062
0.107140371908956
0.117354614103739
0.1100394888677
0.11568118151569
0.110977702102646
0.117088821100208
0.110846173937095
0.118046712989693
0.111525515190523
0.120687825544863
0.111370568271941
0.121037025197635
0.110823431345682
0.12082594813373
0.114497868034088
0.119538712692727
0.115992272754798
0.122455433580989
0.113978734288803
0.121207599946655
0.117022221546596
0.120455453176419
0.116584799534196
0.123150338828561
0.118468800975443
0.123273790426802
0.117619383043892
0.123942743639448
0.122460587186723
0.129835820451502
0.119224667574616
0.125064768453772
0.121758155212246
0.126775587799352
0.119816487944463
0.125561949164956
0.121915175225791
0.127866235800497
0.12212021373832
0.131157034577777
0.125896806893371
0.128819800423563
0.122299907223946
0.129038090486837
0.126177712180925
0.130022805465211
0.123273634972269
0.130375847324571
0.126693590575035
0.129571468099853
0.125558912762325
0.133476376049243
0.126214213997924
0.131333917172479
0.128257406753794
0.132096891514803
0.127729945426067
0.131555919677928
0.128239424752078
0.134661429117988
0.12903718443138
0.134214653564908
0.130858807285662
0.136980206133558
0.129006811134691
0.136747505220369
0.131438835045072
0.138582480436616
0.133379320154903
0.138478810489495
0.134169103700232
0.139550884220892
0.1330152885082
0.140393578807173
0.13388140581605
0.140329232960743
0.134425819811209
0.140664203872811
0.134667224360042
0.142874549031003
0.133613127529055
0.141979851169179
0.141220282458635
0.142125253625553
0.137260141631879
0.145638923722146
0.139223268246645
0.143684984288417
0.138693851703153
0.142911317799743
0.141207932399259
0.14624277655669
0.141387012072863
0.145276333302292
0.143285730851039
0.1465403482069
0.142057247012328
0.144158706451224
0.142764932649907
0.146295735209061
0.140757243187448
0.148547548337529
0.145096706221469
0.150251026269129
0.145066719413222
0.148043981091958
0.144645429102571
0.148708136722828
0.145577058270968
0.148987082551787
0.144382194723381
0.148152100996094
0.145890688068973
0.15042161959134
0.148083173995928
0.151317488766154
0.145807887637618
0.15110887978079
0.150468468631157
0.15285752795319
0.148812280296486
0.153832367864276
0.151263654648211
0.152921098746324
0.150259582282603
0.155838138390698
0.148189961815764
0.15378115365415
0.14921750207908
0.153294633322134
0.150597456908162
0.157081171423089
0.151503344636721
0.159678301616333
0.153999702769119
0.155432327759597
0.151679989007559
0.157741020104187
0.155383077041461
0.159828056897201
0.153379428169418
0.158886484410743
0.15376819351282
0.160597319601315
0.15561155012955
0.160742067207247
0.154368802867122
0.159431016712204
0.155535411422416
0.160294221885036
0.156253870552801
0.158750723933803
0.155064364402891
0.160790940545147
0.157610716061341
0.16146185300694
0.156198159034878
0.160096477419829
0.156547495594683
0.159428375542342
0.156834775106083
0.161940427799011
0.157806948602993
0.160454930137355
0.157666704130205
0.162074434472461
0.156394334450756
0.157645364139684
0.15815233355473
0.160739488015685
0.156836503402749
0.159868919332358
0.159858213471435
0.160194532611735
0.156006932622555
0.159852924937575
0.157380338935213
0.158393388241341
0.157585821613054
0.158738774804434
0.15551654614988
0.16203082452897
0.153570132869647
0.158922566151413
0.158976651434824
0.158906510656353
0.154814481216999
0.161183396402788
0.158305498291408
0.161984938163858
0.155873642263214
0.158640071177865
0.155867079044849
0.162686673253312
0.155631263730382
0.160949676815412
0.156499490678687
0.161193114832678
0.156782707153653
0.159653049681719
0.156220582541502
0.158869540214279
0.156382733144617
0.158799445190348
0.155917898442361
0.159299064453347
0.156330433994099
0.159964166668502
0.15436143321635
0.155385949822192
0.155555419786578
0.157367220955072
0.154090802207285
0.158930378266412
0.153779805545345
0.158568812890613
0.153227187259178
0.157137685987148
0.152676627312539
0.15564678124027
0.152407356776812
0.155757548125036
0.151617218722251
0.15536071944552
0.15083364905771
0.153903279691169
0.153119857412386
0.155261286441376
0.151091249675356
0.153755426729527
0.151839735110068
0.152922758026904
0.150110558817432
0.1508706251086
0.147443196520216
0.152563775715546
0.149226863401385
0.150315270851393
0.148171512474731
0.153635243136727
0.15031848751928
0.149492613642401
0.147150385853385
0.147136473875763
0.149819955501525
0.145787498539351
0.144495279662157
0.14829512198818
0.14444894450506
0.146372690320663
0.143878084221285
0.146756825198767
0.140922424172685
0.145652919317282
0.14323668724419
0.145367024371233
0.142554161700351
0.145731681961575
0.14069421844473
0.144603414643461
0.143233874099206
0.143319876156175
0.141055050370486
0.147462177300039
0.139330861663276
0.143298508103341
0.139700365537299
0.14248658221167
0.138593441959524
0.141132303900413
0.136616721181859
0.140188413740494
0.139569376127251
0.139951945484818
0.135841743657468
0.140209960288528
0.136691327170701
0.139790077511693
0.135453434143297
0.139418986267159
0.135696138025938
0.135140029714099
0.132333849376656
0.136592153693568
0.129557548397662
0.139940779031965
0.132064416678044
0.136299565239043
0.127550867555495
0.137253283400121
0.131220673534201
0.134437092816127
0.128988094716746
0.129263919026455
0.129538771834542
0.129032336000907
0.126722176398959
0.130663953659725
0.128587009077542
0.132196344486882
0.126344814850928
0.130084543894037
0.12634392734376
0.129985633240839
0.123332793834127
0.127946247404075
0.126433555814963
0.1256891205798
0.124639334753305
0.125219079689867
0.123313698354201
0.123882092841673
0.123140628569078
0.124054090231714
0.122080263621547
0.123418396281476
0.126353948550671
0.120204139796541
0.121800969898578
0.123199372754202
0.125043575959576
0.123391015349135
0.120777734892886
0.12300077164662
0.119281609036905
0.120311409845149
0.119269934054557
0.121254132023453
0.118041340580581
0.118533951203751
0.117931486314444
0.119092971925684
0.115131509934893
0.115789928023227
0.114627221787705
0.11887058723134
0.116654636486063
0.116200535332576
0.11336206858089
0.117250962943782
0.112780555165138
0.114463410908499
0.113684740105109
0.116728860490412
0.11161271592628
0.11354267731919
0.113221869928778
0.116821623476496
0.1131186284806
0.114262971011186
0.109398102613381
0.114359345147607
0.106974742691002
0.110182461043526
0.107951505593982
0.111462340636943
0.108078811067439
0.11319606233405
0.110201474590419
0.11265503939962
0.107070803505486
0.10977569524204
0.106485911799231
0.111732705176945
0.104359857084676
0.110688429579611
0.105368469500482
0.111140876925471
0.101419266542971
0.120162346575568
0.105688464345362
0.111277272417448
0.103763877676181
0.109440805739044
0.104750861916076
0.108092836870242
0.103447685946304
0.108155685151446
0.103244537244445
0.107622783826911
0.104146402422598
0.108678537345334
0.103222834479707
0.108935326865524
0.102496646708451
0.10763928472003
0.103326466411451
0.106129101641828
0.101721213245662
0.104139524298169
0.107986705884033
0.109308425678603
0.0993223244580211
0.106915844469101
0.0963905407390065
0.116462243239228
0.102498345558393
0.105127946191123
0.105140908522251
0.103334885017615
0.104505888211382
0.100443115070713
0.103986814352983
0.100044888088028
0.105516537872541
0.103353868333954
0.103776190664534
0.10321236642115
0.102691027435045
0.100364810859943
0.100841701392238
0.101472643529207
0.0992081341239759
0.0995271409204874
0.0987045488052205
0.103467225585294
0.097282691823804
0.104757168500561
0.100097064127646
0.10005701603124
0.102607922210076
0.0998039353676532
0.0991167586394015
0.0992837373208637
0.0986870178662593
0.0933151162788705
0.11067486866075
0.0984338035645775
0.0996676526711296
0.0998368927314568
0.0983618738764041
0.0986747078242857
0.102364014278322
0.099710228458204
0.0997683902262888
0.100905282966096
0.0992792609962097
0.101933238368458
0.0990117196434825
0.0981957737851135
0.0994004907269648
0.102587639501832
0.098085566299589
0.102618011815138
0.0988350290627767
0.105065716507813
0.0931158089190343
0.100768052873601
0.108612811269128
0.104853650612584
0.105016963447482
0.0996398597418462
0.100621952520475
0.100289491310494
0.103134331098957
0.0993296446108405
0.10450109340787
0.0984207846484416
0.104266765454714
0.0989407026252242
0.10240999783659
0.0974704303089736
0.101250126246384
0.095724334238812
0.104761446740179
0.096417958129353
0.105159777509762
0.0954661934820805
0.103813106624856
0.0950451659554213
0.107061052641348
0.0993973773037589
0.108652185625975
0.0909287391852777
0.109118610547235
0.12071136505007
0.0956511051595812
0.111167218664247
0.0941029020584701
0.106059241520999
0.0976413393096701
0.10054508267169
0.101247009215771
0.103035485111011
0.0980216598843999
0.106597345325159
0.098249836931854
0.106386880930619
0.0998698709305086
0.101554222292929
0.117747398553758
0.104038100068048
0.100875603410011
0.110036402929493
0.0991270916203969
0.120799415026424
0.101136118512542
0.110726509957629
0.102629042249317
0.105242944395246
0.106595703431171
0.109048685934999
0.103248107690657
0.108040003420003
0.108887409662442
0.105882120092544
0.108526068429039
0.104615819727941
0.108339028005426
0.109549146649015
0.106709894533364
0.119989993188004
0.104097764396064
0.114479109299496
0.109743592240762
0.109541869593865
0.111211237494068
0.112461676102676
0.10969381878368
0.107393554486124
0.120204491288337
0.110386744806712
0.11508851643903
0.124363772802029
0.108758091857273
0.116546311947562
0.111351121760962
0.11938691762531
0.11290192757717
0.107850681183898
0.142902256182962
0.106938987154999
0.137628272738042
0.109631748722975
0.125838726858468
0.110922094156775
0.125330928069339
0.109022826065116
0.1345713939182
0.118686854539663
0.124597359582274
0.120326174650149
0.121405453507407
0.135041523560694
0.123070558906672
0.126901264790049
0.122724743634907
0.12683000294336
0.132165345564439
0.13785357294967
0.111053061459649
0.14542015436951
0.136694041356978
0.14463445909047
0.138638551025494
0.117898129044528
0.156403795216691
0.139249542022097
0.140104966450888
0.134467134816822
0.138133339438891
0.140274021106255
0.13057910089885
0.160576210163612
0.144273307839983
0.14282747529497
0.152587234458085
0.141679475554217
0.161522501665016
0.153213809666263
0.154522432271743
0.14889320343687
0.159075256273401
0.141212603049409
0.1821281581129
0.171963031742229
0.150879223213851
0.181536216500929
0.159198646147477
0.180108775227697
0.162932431960069
0.172416516778292
0.167582497293318
0.184470721132472
0.171435098843375
0.169809568450539
0.168559218438371
0.211344467643101
0.171385684870402
0.198168684061059
0.184640729382481
0.179500861813518
0.193567829130183
0.222967047906261
0.209853899034173
0.206479588671149
0.187345957200181
0.219826216700562
0.204607267718597
0.213143487075069
0.212532729693406
0.213734778583574
0.220301916223132
0.221725973599214
0.227799913897784
0.229464236396186
0.231369560299997
0.240175874318291
0.228106918083182
0.251879469844841
0.233985684391135
0.298128325764986
0.230633183479674
0.288730101351107
0.269935375340915
0.27674954949838
0.273091087209889
0.275302818953711
0.286339639516741
0.294236124129108
0.292857262766644
0.295432035917823
0.307804490810037
0.329475435525974
0.305076469564829
0.353984232290105
0.314121109044128
0.346458869068388
0.267263229772884
0.488794131169292
0.349389410894436
0.371191503455339
0.360176851791632
0.34828627904603
0.439865211626774
0.397026774536195
0.385282600619649
0.397789710431508
0.397635835006375
0.413976992737661
0.415763517856521
0.437233422219403
0.429304081829213
0.454652818058819
0.429224610005257
0.440261195058593
0.500888313878109
0.491364623380748
0.492932596633443
0.479543196435311
0.497027526692542
0.513196183729432
0.503809849505996
0.515945752078253
0.521952441185014
0.508151233155415
0.603542958908769
0.537796447259128
0.560330772080116
0.53332745240724
0.603760581252445
0.545039876016802
0.600658751704104
0.602244995469685
0.592258985008549
0.621402782170367
0.615300737873905
0.636391901097651
0.584700020766546
0.665978175938352
0.654209083785681
0.648865251950306
0.657921012555527
0.676380161839039
0.67489846022815
0.682722310941821
0.69212643539503
0.681317258828355
0.717210079131511
0.697309153896678
0.879829974150029
0.745859912940813
0.719182109736022
0.728125384368038
0.710710729348082
0.780667081776789
0.731688702777974
0.79924436736774
0.790269474029102
0.747801912871958
0.761352143349088
0.763701988082817
0.760160573245264
0.755514660424424
0.77547963541893
0.75141472673165
0.793852284178179
0.761016637838427
0.769742085120198
0.904090538764151
0.763855143898304
0.789975175916854
0.757308718900763
0.801340866865688
0.757719212970949
0.766388137993763
0.737839199552968
0.783145298512367
0.727055781923524
0.758588010830805
0.706684734365612
0.760256774813778
0.754404230818529
0.713569808650959
0.711924861152753
0.696997995362975
0.713698159276067
0.683283618756766
0.654973448104329
0.778897128341003
0.655010657064225
0.668861338220482
0.630166321572913
0.65868003057359
0.618533981349783
0.624391152847598
0.608470082714469
0.61695327265391
0.580110752827522
0.604093713868624
0.569158260826031
0.568122250917382
0.551570795855944
0.561655807615903
0.54343103312601
0.542016529731977
0.523674998875564
0.526192906123286
0.509450077772607
0.507199992102378
0.499894600081688
0.501092804238742
0.483877768406395
0.487537604734786
0.466713176728873
0.477271996801005
0.458974678051458
0.463174240756872
0.451627928728402
0.447038379071279
0.443305858226594
0.440992750843544
0.431224142828891
0.430642369659303
0.422521987156338
0.417293506578324
0.410870244894418
0.410386975839847
0.402446891792333
0.401962035894906
0.409744868852022
0.359243462205418
0.427366989725476
0.419227465447546
0.383450914665402
0.393822006802682
0.369000417659227
0.387587802797571
0.347051642768341
0.41218630860638
0.374667744191482
0.369387278376441
0.360157766735807
0.365558508260276
0.358836245932809
0.378322292796541
0.334835561825053
0.370147085692826
0.310030096661022
0.383056595116482
0.355674731937586
0.371027492823602
0.401707337670999
0.358383769858172
0.328698896438621
0.335575933896112
0.378093756023519
0.323154634011133
0.344176119617086
0.306977177282843
0.3357449142114
0.338033288305784
0.317063345407363
0.328370188468561
0.300951453102926
0.329015246702251
0.345748759661453
0.301845783859114
0.30935069260916
0.344148145863681
0.293272960600584
0.328641553842032
0.341697244471226
0.328592635077766
0.30118702745462
0.311703648486441
0.304928520529028
0.285888511920569
0.334855194364523
0.299984287570551
0.303757734282929
0.300861895968165
0.293740200480128
0.303937121623689
0.296144079272646
0.304599893058328
0.272637453827531
0.339969233349809
0.270884328798246
0.313239979780624
0.272675189087515
0.313233997187368
0.320472284130878
0.307723986917112
0.269484548316652
0.301620730310269
0.313577016657542
0.279555549775286
0.303057868140122
0.279221173776745
0.27557747856128
0.305741965823937
0.276010884047687
0.288918728573183
0.290894256463411
0.283484204621387
0.307741130769788
0.296258822692543
0.321084659430001
0.296816938268614
0.273757879573455
0.286440909555278
0.269207990783391
0.293204611365976
0.254495604285798
0.309935270165481
0.285880664603581
0.258215198840396
0.305667680759613
0.279480429291287
0.27745508683088
0.278549071104145
0.267007613110564
0.271649773661718
0.281721894306764
0.30291754133107
0.27550664595085
0.27394855888377
0.295777553395804
0.273890834435422
0.273710034473311
0.272310960827232
0.280569289090925
0.267811740823574
0.282103829470465
0.275687357792183
0.273140544702858
0.278949319709027
0.271577227641401
0.273886069223472
0.305121537278013
0.250588905793464
0.310114605408027
0.255225607539049
0.314533490664891
0.284729587214842
0.27712353120482
0.283465638496616
0.271255787512307
0.287498727585492
0.27310390552967
0.268742629444705
0.315705651146075
0.271224716958665
0.290007142874995
0.272894535957102
0.295778037409292
0.266118068018009
0.304925608440663
0.261994726741065
0.319082820229359
0.309156824010094
0.282016354873381
0.293547083276114
0.271351060805694
0.292075139101399
0.275339270966785
0.280863495185861
0.276549251720077
0.272625535431776
0.292289107698363
0.276741025726768
0.283000010389952
0.272699218834467
0.276667548366168
0.280409103666385
0.276852119189378
0.282121178838534
0.277612782048736
0.277074970104007
0.276500223788377
0.257186468371801
0.336119565050276
0.276900202847285
0.287748215302417
0.276990056807333
0.282245226574295
0.281242218326582
0.270718839187593
0.296034969870927
0.284088960939393
0.280387044781523
0.283335826077841
0.278025758000463
0.279123274040991
0.265680986555235
0.305887271785424
0.265376409163872
0.293460061020872
0.252683054726116
0.294472981138711
0.308551263425762
0.270436503284211
0.292780331557568
0.271946861401052
0.283513470307059
0.270109305760653
0.28070939429071
0.27129018401646
0.278247624886699
0.274632630782631
0.278326996480549
0.271193428718495
0.279951164420031
0.272118134779193
0.267235065692782
0.286097382233386
0.271778945935497
0.270579041954802
0.273791555418216
0.275276652160496
0.261075263241497
0.280923070210897
0.277049569460277
0.275688254789763
0.274863892947983
0.261686441931884
0.28436915906892
0.278354580147019
0.268625307742714
0.272501780459913
0.266259289636957
0.271577653088735
0.260635164216636
0.26757006302459
0.290615610143255
0.273417854897143
0.277810611872941
0.261853189663642
0.279157141154774
0.271264163942397
0.277913369113439
0.270502079891181
0.281513251344832
0.271999733382137
0.283327590117574
0.274305896598797
0.281094175523589
0.27678823902222
0.284740454282761
0.28761086265376
0.280243194837773
0.283118193622829
0.278380050424761
0.275262094710846
0.279652307576292
0.277653463347633
0.278481906659528
0.278945336438598
0.27592244734567
0.271308148033805
0.29953799057581
0.268466839243823
0.292142914555378
0.273521446199912
0.274377766516116
0.275313569395361
0.279991618561267
0.27191816380374
0.275148144163673
0.276063588772453
0.273186393868615
0.271845646126719
0.274932599370155
0.270216460261741
0.276021389327039
0.271705163001902
0.272437849392185
0.270418790505034
0.271775597423403
0.268099036864986
0.272839365097183
0.270001487317859
0.276705448006412
0.270284831444573
0.279352838775629
0.272157075224228
0.286088852710094
0.268189779209742
0.274066888250944
0.273900941090144
0.272348235891679
0.271603407384545
0.270411122309987
0.272582657793356
0.270804886973907
0.273015301744705
0.270652970155082
0.26876254990851
0.270064962476028
0.270391633439593
0.264365166162081
0.267047898928628
0.264166731286803
0.268027867008165
0.265714186264314
0.271180706372724
0.262847882048836
0.267325365412266
0.266651740397797
0.26637464119365
0.266388424808942
0.262591204284777
0.26898931311418
0.262526903864221
0.268314281568065
0.265186810066754
0.267648523492046
0.267397259752495
0.266079240505688
0.262752658456542
0.267488060515001
0.265070107505787
0.268423767522424
0.263570497419345
0.270630908950805
0.262352852415962
0.263134528279676
0.260755285986639
0.264840085118639
0.259847398813508
0.259654600190277
0.260897549204942
0.262250157817965
0.261995243744339
0.26265404295789
0.260907351492061
0.259751477757678
0.259949661901441
0.261573510591434
0.258042067300872
0.259424409602297
0.260529906190065
0.258991031773347
0.260504759566326
0.260105114267738
0.261449704689087
0.262118452431123
0.256609904598178
0.259705876448001
0.258787649180128
0.256312797841115
0.261302980870509
0.261384726323377
0.26028306972159
0.261468830622335
0.259877417789027
0.260512745030714
0.258077414423206
0.260496030779935
0.258781828939138
0.262370061598386
0.260119273069654
0.264227864374017
0.25891280501115
0.262330892080998
0.262693737658483
0.264917375084293
0.261226526158643
0.262835762207366
0.259979714881446
0.26251541900083
0.264044223711559
0.262985849702652
0.261985621600757
0.263643250126211
0.263542793166475
0.260241936563395
0.261215157359641
0.262500798562319
0.261820336912617
0.261240872170797
0.259404591272005
0.258528675565193
0.260935445521983
0.264203420735022
0.257218927304751
0.259314280126156
0.260765382207894
0.260172291529108
0.259641858428846
0.260376639233351
0.260076305968066
0.262629233518512
0.256761836871677
0.257331891675527
0.257627990549366
0.258437874019645
0.257470356405233
0.256710072493925
0.2559621976511
0.259404337683475
0.256244519371605
0.255840285771934
0.258189568443246
0.261345759581094
0.258989686721837
0.257272018342586
0.256468696434458
0.259422122891773
0.256722332074313
0.255012511565861
0.257175697443173
0.256195862345643
0.255942042578577
0.256783557202376
0.255700832189739
0.256441463162997
0.256175045720782
0.252882692393778
0.253844215365466
0.25460994996726
0.254872485319015
0.253587135611798
0.252856186103702
0.254889907457209
0.251888611483628
0.253291409325276
0.253779277039165
0.251801309352666
0.252633795653379
0.256009289299388
0.251923599911904
0.254675815052674
0.250883092680416
0.255523389904897
0.254048025218151
0.252989003936763
0.249399470892809
0.251362226254678
0.249754298867085
0.250353037003032
0.249546925203515
0.249967782733258
0.249001889206343
0.251089580439865
0.247996873070864
0.248366712483157
0.249692444818126
0.248726762474588
0.24794954805686
0.248352656667456
0.249408058355317
0.24903067397446
0.248766324626565
0.250451865974335
0.248806130762116
0.251772422712284
0.251748032184871
0.252535711179886
0.25019317274136
0.253590448582222
0.256707298383964
0.258209374848915
0.260564849578985
0.262054316200818
0.26234161180577
0.266519720300073
0.268012196439359
0.273669677362538
0.274656195024839
0.276969814414822
0.280849971666281
0.282985990792808
0.28665699469463
0.289260596224516
0.294051327725719
0.297093884700076
0.299897127878532
0.301302602063176
0.302382538097726
0.306354636955103
0.303122258701405
0.306047879031191
0.306691695160614
0.30547563645601
0.30549621748817
0.306776766795593
0.303624822019507
0.304097589474616
0.299026179273615
0.299746152153401
0.30084955869903
0.300288148431981
0.29801746519995
0.292193969696748
0.295386221672447
0.292613456251384
0.292479900548397
0.292985996481621
0.293018624747784
0.2910976368449
0.292787583469487
0.291527181214502
0.294592104596397
0.292089522016994
0.294050751018453
0.296595341465677
0.29554647412724
0.296618066617285
0.300215099222968
0.302377663725065
0.302998750247286
0.307112069404692
0.310740438674445
0.312426002199066
0.314316498608599
0.319466917691321
0.322786163041792
0.32532370032981
0.326018943660468
0.328137768624551
0.329941969163115
0.328059095257562
0.328649009002975
0.32917733377074
0.326213890233852
0.327059384338954
0.32739840978755
0.321627497211316
0.318232185389582
0.323380005079392
0.317130131492642
0.318977334439194
0.316463891303034
0.317571799551731
0.315665985543057
0.322526785036677
0.321439110706119
0.327302076136708
0.328677829969485
0.333240797858728
0.3367428804063
0.338148083477803
0.342778562214157
0.341720764723681
0.347335059579339
0.347319455430808
0.353577346935711
0.352113120079718
0.35418131484154
0.356993079479575
0.357793717444832
0.365656601031117
0.370973389217674
0.371489304236667
0.372313722952859
0.377775571429311
0.386485252253369
0.386970941917384
0.392179472936157
0.399525540787552
0.406283807872457
0.410693085007801
0.413228932911512
0.423762057599969
0.42076968188216
0.428820784296168
0.429148551253366
0.429928410210113
0.432255852414537
0.42803663788655
0.428050847240346
0.425627799942423
0.428185637280575
0.425890823314019
0.4161804859291
0.409308195400606
0.403518352760966
0.402957131645027
0.39887561282336
0.389558012905789
0.388838091720566
0.387586535465835
0.388145136769272
0.386565013536556
0.390084330820431
0.387568351079273
0.385871804324942
0.39097773734064
0.386549656267398
0.38640417301321
0.388450514950971
0.390216713931576
0.393086956453578
0.399709779473059
0.398686113025188
0.407575405466639
0.407989767911483
0.407723598464899
0.409175969282279
0.407554454805831
0.412742022320126
0.409996517941495
0.413313552772434
0.415898769578055
0.420948782181006
0.417805520442984
0.41780729139261
0.418312426078513
0.4174698219755
0.414165115886915
0.411440393295416
0.411959108507796
0.411232548775213
0.412301444804504
0.409410966368119
0.409987313095539
0.408310552620746
0.402388629785021
0.399101499966684
0.396483297897207
0.392746368466328
0.389495668497446
0.390151549349363
0.387416652841961
0.384123830346703
0.377737160242115
0.382083246267488
0.371540971472471
0.370929981688445
0.36291662511081
0.3517777603106
0.345737136244917
0.340983358209433
0.328753889957985
0.321335159124023
0.316978811459371
0.313834071366621
0.306684679539321
0.303878412071963
0.298659563541587
0.306551133469563
0.301165274960069
0.29863802281972
0.295727014054746
0.301886271844541
0.301400149274211
0.304725903210735
0.307463559446497
0.308081182166973
0.312340410774792
0.31558539119233
0.313442201601664
0.314252643638052
0.314043222793511
0.313081098708438
0.311897569289944
0.310189060144278
0.310135572662505
0.310798797405429
0.31378385135186
0.307737164850807
0.31248079254954
0.307863521751401
0.30697264834942
0.313470969050311
0.308397453336333
0.300886807538362
0.301256912502472
0.298920125545306
0.300017821624779
0.301559624981829
0.299128819361528
0.305594033731666
0.30532330468984
0.310733062632889
0.305201682675777
0.30350374072947
0.304141279112518
0.309269675572239
0.308827684029215
0.30720297337716
0.308246273803666
0.311280343504402
0.318020696063216
0.321281988844774
0.31806560365046
0.322282031852125
0.324203093404651
0.324581324155692
0.324733416640235
0.325567997971451
0.324129128256895
0.335206124268079
0.328240633412163
0.332678462312026
0.334035824972374
0.332392804532697
0.338241688244612
0.342292938838595
0.341941152135311
0.337468211066739
0.346222141783735
0.348483364896801
0.347954474036799
0.350852043269443
0.354155891276311
0.35346574441311
0.354918665701104
0.352781497312036
0.352167422872065
0.365039240984737
0.357681634673887
0.364067316827093
0.364716882698383
0.366477291206393
0.368143883752973
0.375560051640647
0.379048753182919
0.376943173371643
0.376226801023054
0.380466794851409
0.373525460337517
0.382887913961533
0.38482409570733
0.387083578274805
0.395585337374385
0.399316562793383
0.395073089633717
0.399205750216521
0.407101802009092
0.407280779906693
0.40551434090928
0.404611995665433
0.408310080672975
0.410080559668443
0.409085814430382
0.420859864457233
0.419764515206066
0.420998376951556
0.424353189998885
0.425395993953045
0.434146284698301
0.436369834443845
0.438111378018878
0.432303110048475
0.444795036121204
0.452446734375576
0.447926691324457
0.463135418291834
0.45958918562519
0.468537897392417
0.458737311654089
0.469083298966985
0.464586872091346
0.473599979523794
0.472743877372536
0.485268951671144
0.476777522202481
0.49055532388866
0.491673388643801
0.494792015416298
0.495138252535847
0.514540534171085
0.506229395994665
0.515524879715735
0.510856482263058
0.516770886763659
0.507059423613248
0.513512144893158
0.520168590471759
0.530442127292464
0.534066999221166
0.541373359222172
0.546188234747142
0.543792258050329
0.533096275914493
0.541725444363533
0.545519152900404
0.554652225653575
0.55795642270449
0.582943919165514
0.550696097625233
0.581886297139196
0.580460342287825
0.576231804770533
0.587731821802285
0.582735905495313
0.581120746617757
0.602497510780174
0.599755054181612
0.610200849047233
0.607741452641135
0.617418380395813
0.614273388015711
0.61230334032963
0.613917220735959
0.645237242820078
0.638017309968578
0.650292722503249
0.633741175727888
0.642993342434252
0.650457093192149
0.655606843655785
0.652213969782281
0.684224371388566
0.673920597026619
0.65863647190115
0.657404672394185
0.683362171132458
0.688870062723899
0.694059311120409
0.708911405834205
0.727866787857318
0.701041541454227
0.731324807562131
0.724835767576038
0.75482260015307
0.75414861991586
0.725730467738127
0.731432277738374
0.734671036673604
0.731658774390529
0.77042048662081
0.734705192298636
0.769814740198955
0.754103395749944
0.779957276230355
0.765506924684735
0.785182553492188
0.783938230158274
0.785741355082528
0.783107276127786
0.80691841983293
0.783106837064579
0.827847989063515
0.759682830892681
0.831289495474893
0.807167163261187
0.850261629387936
0.788416703030208
0.844823943072068
0.82496576044753
0.839625490335563
0.84715394940394
0.846007774863282
0.858086937112962
0.839507744665888
0.858266299442734
0.882136447028356
0.875960161131075
0.880815587267302
0.904084915867619
0.903340176509679
0.880374117047456
0.931123519187919
0.907552071640864
0.976078122168652
0.871664742914569
0.953177356894041
0.936815694562108
0.95592870033596
0.920447155419757
0.987715430739134
0.881319459117657
1.02607445449326
0.906957537027071
0.970419053476974
0.908416765190749
0.990055913350431
0.884579901732056
0.990068672426815
0.956809440443974
0.973463002802117
0.943324829552286
0.96726952444289
0.942126515336716
0.956272194781255
0.988223207607477
1.15364105076298
1.00022807828743
1.1108066235584
0.990943832729924
1.10600008136638
1.0457066179959
1.08081019530344
0.944143471273842
1.04755995236727
1.00579781029847
1.02420140908461
1.03048536556594
1.23589985330385
1.07621619619156
1.12806252795201
1.06170241093717
1.13940375548253
1.08967594913463
1.11851662705424
1.00694742029078
1.10726442444252
1.15167634980208
1.17565286261302
1.30164643911597
1.18880187311515
1.11719197804134
1.17259686114613
1.14721341537665
1.36278612804438
1.06875376750405
1.09853309896148
1.0491894373866
1.45373915326479
1.0606100685366
1.17106740450597
1.092228135174
1.2149566473629
1.04030854874281
1.41697772000214
1.4158590419795
1.20602872233526
1.18926812986643
1.23001586607969
1.15836450252869
1.35491373509101
1.2151006914879
1.27729304269893
1.29474664202328
1.35225373742732
1.10550833805132
1.71759197798868
1.21243936088433
1.35191589201016
1.41878774799394
1.44411265532447
1.20981864382717
1.34426333663789
1.12186780113632
1.38922013899061
1.48044198001152
1.51285203951548
1.08902432097838
1.40262409423659
1.38636079007085
1.30661767066699
1.10242365242403
1.28543390675366
1.52805937451313
1.46225973565196
1.12610110308763
1.47445982646032
1.03513219859347
2.02753315678693
1.26226790312079
5
1.51316736653128
5
1.37900161929699
1.16107907124393
1.08857384057265
1.26527662994023
1.58230441235543
1.69455460532145
1.23532570835246
2.61831754439953
1.60459349431867
1.62948400653926
1.32564026894996
1.25127565592201
1.24592022236189
1.21653833412449
1.47119595753336
5
1.11220191604828
1.63402246950072
1.44767173918022
1.20636973017653
1.41696388615062
5
1.16752480831438
1.47253259446895
5
1.67188764008594
2.45760828363564
5
1.01186284013498
2.42261906860237
1.26748064382667
5
0.911534162184288
5
1.98529292560172
5
1.05055898842507
5
2.41083365840381
5
0.774135999187634
1.46429316385293
1.49464480667951
5
1.896744964891
5
0.895422180196881
1.65896365275397
0.799156240881362
5
0.707974049393928
0.969288787702415
5
1.30065629727861
1.47734944930318
5
1.00978000454159
5
5
0.662291692785405
5
0.847085495270321
5
5
5
5
5
5
5
1.52901175057392
