3596
4000.36533379555
650.420452594757
1
2
2
0.0259405399629717
0.0405585380591137
0.0232284021547425
0.047094537788827
0.0284258194025842
0.0442274228057759
0.0282982392833889
0.035382722711423
0.0266475362042349
0.0424800600344186
0.0271381777021597
0.0410323002786515
0.0267277104920506
0.0445884758237228
0.0306632707798216
0.0401811255280018
0.0276060010957541
0.0407565633948173
0.0357460113273397
0.0409595081041594
0.0263058519807945
0.041733545550384
0.029589082219505
0.0385538148238452
0.0269081374541256
0.0416206534097947
0.0286513190771401
0.0423574345525205
0.0294505017444635
0.0421335231017201
0.0265218990174979
0.0348154364600345
0.0186232999968582
0.0388136929929837
0.0253524151134735
0.0407325493005347
0.0282887148038886
0.0449374057197568
0.0213729645581882
0.0404764646088128
0.0327357642067656
0.0445331917673864
0.0306542598574794
0.0444346548851951
0.0257171279469517
0.0422875426967899
0.0318171911743231
0.037785096891582
0.0190977812777454
0.0458845559033459
0.0343439540980763
0.0279308056641101
0.0363114913515059
0.0524837070565796
0.0279748486138848
0.0479944397038582
0.0342145427984491
0.0390356562880066
0.0342937875209859
0.0366972638313742
0.042689701060378
0.056153700006883
0.0330551423200922
0.0447567087397128
0.0291606443856733
0.0444088205319057
0.0338460097323542
0.0443265744610993
0.0226512218368141
0.0502910822961692
0.018034975702116
0.0471657928525725
0.0459668456503566
0.0454314249369669
0.0350572639884644
0.0413285846985697
0.0275269711166127
0.0443302128127147
0.0179670371831206
0.0474578684965819
0.0341490731226581
0.0446273448842447
0.0291448530395024
0.0304126382012075
0.0270195984946597
0.0568602923722903
0.0160814332710938
0.0462535743983387
0.0406439909171393
0.0553001603196843
0.0305824831325717
0.0365509815272369
0.0272182864604466
0.0387567942465467
0.0252061970678739
0.037015887708532
0.0180092553627766
0.047715632810235
0.0150508222985991
0.0360917106064404
0.0333956031329631
0.0493106151800269
0.0724177995868141
0.0138423975412593
0.069518415886268
0.0481693436241461
0.0242962937465541
0.0852911794369393
0.0431292181710259
0.0552998393837723
0.0287590256609795
0.0456804272307083
0.0263436332626584
0.049521637914728
0.00413006307707151
0.0482241263470951
0.0643454345272774
0.0532198021259728
0.0201129507090256
0.0433646863319218
0.0077234428645534
0.0703616887471191
0.0620131956974025
0.0381680970904652
0.0410299498157456
0.0401593060426547
0.0120080743687526
0.0640993992410628
0.0611112238942286
0.0448041670658877
0.0235910942472738
0.0384210142053679
0.0331367697606956
0.0214164341000805
0.0611915533227142
0.0470147576397339
0.0416938645763035
0.0156699642275572
0.0470765715839512
0.0940909687432276
0.0442624336095795
0.0449555670674063
0.0105669256249107
0.0395993617168368
0.0590598284114465
0.0523318503445495
0.024479586959268
0.0552954400568747
0.0354296812401378
0.0404421794525634
0.0304112916324477
0.0265604383605938
0.0378345079041745
0.0492967168068541
-0.0202136194471391
0.0784834950380301
0.0701829974562893
0.0571031842916715
0.0956380311836883
0.039514713581313
0.0463991029305577
0.0328579104822893
0.0400938888663053
0.0325122412330633
0.0371366355594956
0.0236161979767712
0.0403538717326521
0.0548792251869073
0.026307238871793
0.0415997179780555
0.0574216210736306
0.0416023140581028
0.0098849374613592
0.111495966456091
0.0414963947907228
0.0321756922591819
0.0576294128157384
0.0569212965158322
0.0267988324893687
0.0422867509006245
0.0531154767834359
0.0349106814737503
0.0345973229423369
0.0292912301614485
0.0288764370377262
0.0516732527821303
0.038739080726736
0.0376721909785142
0.0301802695208001
0.0173669644622666
0.0301793696638395
0.0807863951415733
0.0548821765126229
0.0389621033359614
0.037949715908701
-0.000866116187251203
0.0605772239366685
0.0638632347234514
0.0357778293042082
0.0379647411712937
0.0236694034931199
0.0278809509718296
0.0275090183098509
0.0403441401776273
0.0205698568537692
0.00788828406180708
0.0772635656569451
0.0562578359793556
0.0359671475844555
0.0311743294045419
0.0201820881968389
0.0105029056538869
0.0799688850318985
0.0634214087496175
0.0368208156306783
0.0428966933100208
0.0193767608593054
0.0462722717353006
0.0479977352337545
0.0350197145155998
0.0342798210683397
0.038119054013232
0.0285071819748936
0.0292677059212367
0.0260602201630778
0.0359763310497294
0.025948797783588
0.0312010753353988
0.0266602598585405
0.0320212437039402
0.0445499503001869
0.0425828742470559
0.0271108694586447
0.0396183795402186
0.0131986411395545
0.0450476433823321
0.0544995371203706
0.0425766524744045
0.0364525670683367
0.0259054697700047
0.0293171186201399
0.034688778079321
0.0285287175869073
0.0357798219288727
0.0229156682810721
0.0183149719496092
0.0742489147550625
0.0407799655223
0.039069340774836
0.0179415676836999
0.0497847535068781
0.0447164004918874
0.0359174924540096
0.03114753813626
0.0364419748241781
0.0192704260777656
0.0185864388783701
0.0564478293851145
0.0376493655412554
0.0275569410358289
0.0443912735957115
0.0420551840216576
0.031810467579454
0.0272298494039681
0.00525250082169047
0.10489682202332
0.033591791196195
0.0148426441800976
0.0916543212524648
0.0465666035910088
0.0491097766763878
0.0313280079722923
-0.0299151187283479
0.13146055671868
0.093475262910208
0.0490433399823734
0.025386942631241
0.0586608225803423
0.0281702903705915
0.0521859400656671
0.0248577263061444
0.0509948728506395
0.0477850694632481
0.0533493365590078
0.0824821835749768
0.018631235044303
0.0653592081129611
0.0561931560691749
0.0402225025639338
0.0362681917705473
0.0392438748529932
0.0263982631220319
0.0393722685586421
0.0496779943267438
0.0453872058559988
0.0427699970595735
0.0244829338351525
0.0641334291762782
0.0482558023358565
0.0336540155176475
0.0331518401094361
0.0468846277975446
0.0348769976582282
0.0416415701245244
0.0297589862885694
0.0495505897985494
0.0259062999042217
0.0223500083007118
0.0840169001476564
0.0517267673933858
0.0326376001118933
0.0701838763332674
0.0357186994919148
0.0360950254263203
0.0279356600017763
0.0319691940928928
0.0279323407608796
0.0387226938919161
0.0180827832835144
0.067807393228092
0.041334569860991
0.0387180162453253
0.0288965023887186
0.0357239549896463
0.0287998653797614
0.0380158853233017
0.0354237160648871
0.0382728238861499
0.0357904819043733
0.0215117194797312
0.0414157322635836
0.0723755616718699
0.00754007976179859
0.0689755923998781
0.0661257735605585
0.0437118622402396
0.0332796244901926
0.0389830183983242
0.0356304740114439
0.0325933278459098
0.0368364849800745
0.0363838205044353
0.0333311352696135
0.0528193533210973
0.0409752255303958
0.0374683058326191
0.0195156041220339
0.0836191434742397
0.0985936005444758
0.0597595544502785
0.0432488768890189
0.015452804074558
0.076094193634225
0.0615925497684661
0.0540685967221903
0.0770270881524398
0.0382850890491028
0.0505695557207468
0.0349033293708771
0.0515469069154457
0.0367834750171455
0.0513818397487025
0.0378344971596043
0.0543097587521226
0.0379988765230276
0.0550199852892898
0.0383108387893615
0.0377554249556969
0.0712867787068116
0.0598512014080225
0.0450254006794554
0.0542138148891317
0.0234295643393085
0.0728146544823787
0.0504834373857985
0.094394109437778
0.0751244997340264
0.0843950919446045
0.106433935799755
0.0677122343362279
0.0583691431999717
0.0575929589220165
0.0589530307012001
0.0580428851356819
0.0520663379329832
0.0630124035841608
0.0587643120383435
0.0597568499754519
0.0551265927297134
0.0540452041687331
0.0591823365452721
0.0572125031987498
0.0740525419532451
0.0704554221041141
0.0683825205441324
0.0544537731162868
0.0745197454185297
0.104694777666234
0.1183175935247
0.0802559006927649
0.0738246720912637
0.0768061870128635
0.0698468644953998
0.0668908691640688
0.0748020305561568
0.0815848757966512
0.0645782476522396
0.107247596781178
0.0839871402993103
0.0968679339094937
0.103253459476652
0.0700912178648442
0.109888050007678
0.09238273454904
0.0997672382271348
0.118229852994665
0.095510562396911
0.0812565239341073
0.103276632189732
0.11522380491344
0.0924119551377294
0.115294199508822
0.0906931603483395
0.10740506944524
0.0926681564235642
0.107584328978373
0.0911113681195551
0.120883369243978
0.105782908328656
0.0988920324526264
0.111461483793442
0.118048682996932
0.102862180596885
0.133959621675783
0.111882598393453
0.11836433617926
0.125396194733564
0.109514555115595
0.122168685297577
0.117513989223762
0.134451686063717
0.140492982144035
0.137968560494583
0.16810943590796
0.117494658951666
0.131679364776744
0.125171015285956
0.132534976226882
0.123805153562479
0.145286595885705
0.137424132190153
0.143446895535649
0.127117077282284
0.147770827715644
0.138168659346223
0.143947135084815
0.141537104170744
0.148783183503985
0.153087596011663
0.156017508022899
0.153073032134843
0.154149952617621
0.174297496750162
0.194439090830397
0.176771789371058
0.196803372740023
0.168467315399931
0.183790327909202
0.173647583604581
0.192653321327953
0.166110751426557
0.196082732023003
0.181006069499942
0.196956208357154
0.174483817953525
0.185684298593793
0.172193345479029
0.196436510718937
0.19053601580199
0.208022536436694
0.201386005897208
0.204254201399038
0.19075528477307
0.217043494434151
0.20792430243266
0.225782787082785
0.209607011481202
0.225443191796113
0.210752969552964
0.222577401771858
0.220461689765896
0.242463596361987
0.222567736893985
0.248116410296925
0.226211441222308
0.231571447969846
0.220150937269209
0.251308563686182
0.22984579945152
0.258424397244027
0.24252938635822
0.256970890710419
0.240362889626813
0.257009248454164
0.254140631029126
0.257147323093619
0.245834814958841
0.268918811814989
0.263542405188916
0.258013635548887
0.27355635363354
0.284347095481173
0.253558938439404
0.29066019899689
0.266202023888853
0.300329161472565
0.280753011716426
0.295111406938157
0.298331179196904
0.306550525508532
0.272334798760907
0.300883510482245
0.29807342644477
0.305461446110746
0.282848573417226
0.33080701723953
0.309145806584471
0.316831725653304
0.289095325203236
0.328933082559761
0.294923314048051
0.314124243285361
0.316311611425886
0.322707419745737
0.323729421720034
0.349941656246472
0.32308193712922
0.34956343511735
0.330681774474295
0.368689308097181
0.347161863651971
0.369302523054906
0.340377924881335
0.378039478208238
0.342010140879629
0.364325222813842
0.350077312394933
0.372544715348659
0.348242626232047
0.387670545262165
0.344337664854057
0.390832063706758
0.360170874471081
0.376560447830022
0.38278520391464
0.394852038362535
0.375294783345971
0.394735672040705
0.380029435112239
0.4119042155411
0.396537795542918
0.410071686219725
0.400023648144435
0.430132296088313
0.389958436844303
0.398848729146378
0.386278956004341
0.431205309393472
0.394911526758698
0.420338233420947
0.398855217731894
0.438095128507817
0.41978388066098
0.46127851352746
0.423763895412072
0.447233836474614
0.439120516790173
0.449472486711349
0.398890461074461
0.437018157602371
0.46178225289038
0.456150057062106
0.432382653724094
0.469183529692023
0.439595502505507
0.482558393530441
0.466663331944509
0.457474389948647
0.468079934515959
0.490106792424669
0.457953076532568
0.486449559503788
0.473737309931749
0.514978311491746
0.46626020727853
0.49672301558287
0.453929555900432
0.479160854334923
0.483317479755773
0.504905313437101
0.479538000267189
0.502916606581596
0.473506209482493
0.49507760966158
0.483888472704175
0.500632175923787
0.49317864756129
0.525691280136937
0.490626213998098
0.518368646041607
0.500043193621313
0.535788111116696
0.501414971587101
0.511209289995024
0.531971769406689
0.548924469673913
0.512443927359501
0.525054512677155
0.51999085383094
0.562711957744807
0.508147004241139
0.555353560705927
0.533575737622218
0.522433628994971
0.520745840723439
0.550422685773806
0.527702329211976
0.541911483207156
0.511108919358737
0.568223252823185
0.527458616962741
0.541597687376497
0.521128575436312
0.571000691470716
0.533936505799929
0.540297888634357
0.545600134029177
0.595407056212247
0.54594929707864
0.56481910512523
0.531485672608996
0.566371744075252
0.516389310787959
0.581773992647805
0.553974786883429
0.585935036962256
0.551060706970743
0.601706090318858
0.562490797309959
0.581435896943167
0.544479643760246
0.59472443559603
0.555767399147448
0.585732134791785
0.562259719278165
0.61413565141359
0.584275896524547
0.612784409711916
0.560898968296216
0.614213687984703
0.580574199200839
0.590151237453311
0.57328161423688
0.625981701888561
0.578192012607578
0.612314705314509
0.590483409774386
0.606833909636124
0.597665274379127
0.601480999691659
0.592126585280256
0.648011039197053
0.585367060749625
0.578258810464718
0.573835743763716
0.5708881709191
0.583479239793617
0.626773912678847
0.577232298616554
0.618205789813326
0.589147835590421
0.62476864560691
0.599767944184976
0.627320102551049
0.59512445886923
0.641906113947517
0.618954491229272
0.610318291904772
0.601722598426058
0.636780528117876
0.594886125931292
0.619988598003842
0.602554076962182
0.629526717928242
0.610616229929091
0.624258769122149
0.598403296644697
0.607040708262435
0.587124446147422
0.610269897751319
0.619755858368504
0.637827762812676
0.61187553961763
0.609697507222245
0.588877224131036
0.634813814147021
0.594210218715258
0.614840544954537
0.581753948787976
0.608457031169327
0.631404187255272
0.616506017138145
0.609541917179744
0.639700805385653
0.59138482510077
0.637197213984854
0.592696109115869
0.621791413357764
0.581749711848808
0.611559057257879
0.59476962081122
0.616605184146934
0.570926416189749
0.59118082866234
0.593226936075048
0.626517601867407
0.592624893867146
0.631220503483511
0.589883432526333
0.622363237969551
0.610604458082704
0.640035915076625
0.605899974059111
0.617762930235144
0.589218595356111
0.605499920695092
0.58894030895535
0.60931537960826
0.565813782413768
0.59222123760719
0.584496969488736
0.587183661027672
0.582845150991948
0.596323249295216
0.571312164535134
0.622612343593927
0.581630772837066
0.610528430798554
0.577258463692361
0.58255763473751
0.570457109689413
0.610457948340583
0.576963102061508
0.595408386403374
0.567853311402029
0.600474815699458
0.57367494993173
0.577847829492514
0.575993233706722
0.59144631803181
0.573369139653154
0.583596441364521
0.578172714400326
0.581382978831846
0.555269541978848
0.589276857351996
0.569260946475179
0.556835613503515
0.552176081007508
0.574872320698773
0.551043578285676
0.568135120755608
0.560599201710923
0.574495510161883
0.533946889444916
0.560328656669366
0.559734121153445
0.552729883608679
0.53873108391089
0.567795070447951
0.536057693061293
0.553450385827623
0.526697289392088
0.560670208578181
0.535724171489514
0.575329644539851
0.553024147076348
0.533207704566193
0.517611626095399
0.536272700035793
0.529809880403077
0.561727327797473
0.525060515430774
0.541585451900738
0.543994404156072
0.534433986656722
0.517301783886516
0.512942493294692
0.526815117406347
0.540757819997675
0.522359843612944
0.516983615249625
0.506181880639517
0.512259839045454
0.503376389776192
0.517446047385148
0.500537189934449
0.502009975672097
0.508235194499732
0.515110286553851
0.512583824037936
0.512547202773948
0.501944905818528
0.490674219184709
0.489987256437528
0.490150000649964
0.483604550342573
0.499747765957615
0.474049631771837
0.492236116046328
0.48253520345279
0.46550072109827
0.470968691252794
0.510464576071955
0.477188513267634
0.484219612627742
0.483608093719093
0.465791709462153
0.456475075627416
0.469354028625739
0.471366164316639
0.487105783969567
0.4608932625187
0.454691160427531
0.460444534769619
0.444481415666168
0.451578538337707
0.473945112485524
0.454034700633722
0.458148184075012
0.434043097817116
0.449766814490366
0.426399261274305
0.449414838370187
0.437547694947389
0.452346400845704
0.435586661906781
0.447528985545828
0.446390212128604
0.444562314025969
0.422320564007129
0.42506042796226
0.429240512166678
0.413525769523016
0.408725608067398
0.416792018332456
0.415432598189655
0.415623098800196
0.397185597931902
0.414174779801714
0.412437147458343
0.415232011333166
0.402670870097179
0.394355421988357
0.391890365273465
0.39530629202727
0.389671195778164
0.397197552527183
0.391041213271261
0.397445433084977
0.3802287637652
0.386710871172592
0.37932122407884
0.384519101946016
0.376296375480855
0.382429264136605
0.368139834186318
0.37934311679388
0.370609184841533
0.366617035993193
0.351791785970267
0.35828535574654
0.346172354543433
0.35767129713559
0.352320952382219
0.354069849284394
0.356974658710015
0.345558391967967
0.336615948993319
0.343680647073707
0.346378611696079
0.347589226515433
0.330884361858579
0.345081686528353
0.329987524260976
0.332975363037705
0.329833071138705
0.331532468246144
0.324768880854034
0.324368664124131
0.319623784981193
0.318928083411266
0.315494135816821
0.320440326236333
0.317762607471858
0.313680976233167
0.304031135070668
0.30201516685767
0.301631235886382
0.307749059646133
0.302909552704616
0.301521201762802
0.301534382369957
0.287361642369657
0.288506705744427
0.290698610352647
0.290298475563188
0.289779220559902
0.27994923174681
0.284850714559583
0.283352170205406
0.282692943193912
0.268704783971364
0.285482547285042
0.269439610841186
0.271203535269537
0.268803706800112
0.274414050865995
0.276340431151848
0.267681406438292
0.26553905509466
0.265865061855374
0.254568763226345
0.257466583384976
0.250153389637015
0.259749866939054
0.251268605257926
0.251280518551159
0.248397858392532
0.250839204375083
0.241715977889495
0.24734412865678
0.237457913342017
0.242055166733996
0.239055638698496
0.240421755749102
0.233961804684294
0.232324271315871
0.238810596200027
0.235382956030522
0.23115389233683
0.235328108045
0.226250236496636
0.224483002210223
0.226566310341577
0.233504056104509
0.220755125539154
0.221006996646512
0.218741037839256
0.213745356893518
0.211083195145765
0.217240033588895
0.212285373985376
0.208332773466401
0.205889888214714
0.203268538193629
0.20562982139983
0.204128109943803
0.198755383486163
0.201025763846604
0.19888616461346
0.19549581949526
0.200625165760658
0.20079667399645
0.19317754995864
0.197566452908129
0.199937054840532
0.197080746281871
0.189325085540718
0.193772770755692
0.186991405787693
0.187020093794479
0.186039791294018
0.18855635832526
0.188613978352313
0.183593655406006
0.175298700672543
0.176558604673481
0.176546001838584
0.174165847377067
0.172879489484333
0.179689212198587
0.167926231734414
0.165664824620442
0.172709391470696
0.168555855350346
0.170143673642874
0.16674017157777
0.165903382798569
0.169581682796897
0.161796933774858
0.164084722859836
0.160120471746302
0.163863768147549
0.15937300467612
0.154169894492226
0.16385499791005
0.162428444923609
0.154821638292017
0.152551908657773
0.14824371174292
0.144567402197366
0.148953707822231
0.149871015337762
0.148224883097663
0.148694882458564
0.146014414658455
0.149062647723821
0.143274190172176
0.149559061948931
0.147557710656997
0.143410696364738
0.14227441888611
0.139286677224886
0.135816881869338
0.13783222528591
0.133989721943219
0.141611406687038
0.138805390115452
0.135539340314471
0.133245321472584
0.135630547561505
0.135598140472704
0.133652488325338
0.132718345277406
0.129742886940533
0.131554699693599
0.130157312690651
0.130200118452173
0.128446967533739
0.131775342234959
0.12018269927349
0.120323788403308
0.121170456164013
0.128123632714639
0.120396530591426
0.124564393672507
0.125255010676604
0.117413911458629
0.124549483060667
0.121767059358009
0.117087301815691
0.114635700332861
0.11774871206843
0.114639039758545
0.11321498243876
0.119242480155357
0.113961932066115
0.116902204383678
0.108816923897841
0.109354139554277
0.114431864383676
0.114621789309772
0.115639698955261
0.108181741322612
0.106644890276752
0.109743463232259
0.114973068376493
0.112947265409031
0.114083632495095
0.107103090291237
0.111082955772023
0.109236302160176
0.110889700093031
0.108572685050118
0.111437568572005
0.109762121689536
0.108968453231016
0.110595076724799
0.113483246596506
0.108570122717125
0.109221714792046
0.105677853037065
0.113693218316028
0.108552165894707
0.112239557184008
0.110971194716653
0.111760808251467
0.110251040995932
0.113553224463539
0.111159759846901
0.115284534237213
0.117776433808303
0.116737584712061
0.116333256398332
0.117899916525298
0.116095944900449
0.114028880125452
0.114960919733629
0.116747047558493
0.120674564471633
0.119706169145477
0.124591866164554
0.124012351018836
0.120124977463673
0.123237130018244
0.126339441342286
0.128801589943807
0.127214188219641
0.121510828004836
0.124203618110757
0.123892339567147
0.126365614308591
0.128380048741847
0.133378883532983
0.130615691588339
0.130618295343267
0.135269151125251
0.141433126032286
0.133702791316709
0.139019484904255
0.137131559662929
0.137303735324306
0.145802510034606
0.140329200931247
0.14593775756437
0.147059457970157
0.148560183821743
0.148615349145892
0.155241125871783
0.15662064215235
0.146355823193471
0.155024081650165
0.157448750315469
0.159491440620901
0.165792671600235
0.160304222888176
0.16602552034335
0.164114023434194
0.162006593337229
0.169255612347343
0.169653708661337
0.166461232444512
0.17048819106502
0.172304389757224
0.173436239185168
0.172662932456505
0.180790749023933
0.173532666440121
0.175630418561014
0.168416937796254
0.172760317633246
0.174759090790891
0.172409242705164
0.16556632087212
0.175313538608466
0.172408636350927
0.17838549937844
0.170237510980144
0.167850661914153
0.166161307354187
0.163854824607285
0.171771653263917
0.165797819746494
0.164464820409426
0.168263247540606
0.166187139469947
0.170104557765353
0.163918892794255
0.158777508289145
0.161607304420185
0.170875495007971
0.16724603018735
0.168359901497021
0.164446518725311
0.166608563154202
0.166050577738309
0.165159883249323
0.162114867441077
0.166533998505473
0.163726672229802
0.16083963665965
0.167073469787578
0.160766915564039
0.162889051194969
0.164488230580841
0.16254541589365
0.161102193646177
0.163464087825445
0.161765492989305
0.160089747612953
0.163666079081328
0.165093109352548
0.161559320848973
0.161858854454722
0.162826979963715
0.16112560945218
0.163034949985812
0.160949808108824
0.160667505027772
0.155519626739686
0.159675951425795
0.15380562521901
0.152746568208262
0.15668898091291
0.157983857843534
0.15379853057116
0.154282498238031
0.152336435314297
0.148653001441547
0.147943675262023
0.148320394642171
0.148310870572894
0.148895803546572
0.142835804621624
0.140633004890181
0.140827453610123
0.142103619365193
0.139852277430942
0.139383639291868
0.137076425084686
0.135232258146052
0.130576666828398
0.128775120179783
0.13105845205202
0.12842565575387
0.128626469557071
0.129395204870522
0.124205662623453
0.118876414154483
0.120252542381851
0.122894596352833
0.120602925246437
0.120064553986734
0.113686888764974
0.109689729840168
0.114936469639122
0.1151745288725
0.110444093061068
0.108404328635085
0.111503864196998
0.109706103885721
0.108201963324618
0.101661343584057
0.105638159820296
0.109784259832182
0.104697427695105
0.10408003658644
0.108214741107336
0.104923383496447
0.10141566604312
0.0985049709300315
0.09987857777789
0.100771685100487
0.099226779005144
0.0984908880806393
0.0976662058248179
0.0935139130158287
0.0977241020724282
0.0964734879397464
0.095846984087951
0.094529422422468
0.0920906225673345
0.0892827675797833
0.0956014908150291
0.0944854018901378
0.0921134011503001
0.0905109938891452
0.0957497955747143
0.0898043283133547
0.0924713049746737
0.0877999749375261
0.0863018436946628
0.0908406243247622
0.0869287119832411
0.0868242470800157
0.0869369368201769
0.0860694474838273
0.0830982315606081
0.0868266914548956
0.0897275403924664
0.0814652603736167
0.081817354561218
0.0855413993038456
0.0841873773733383
0.0811192590929854
0.0817712934317338
0.0839391404618701
0.0787915241277528
0.0783330073741113
0.07952554208756
0.0766319928554189
0.0738012992829437
0.0759128436951615
0.0766587701329237
0.0774083133485694
0.0790618653936704
0.0760076279768985
0.0771384652471021
0.0746389761031485
0.074855448489878
0.0739642749622842
0.0768164607923858
0.071273351114487
0.0728078487720127
0.0778477619371373
0.072134516206421
0.0734610876695771
0.0718446669601587
0.0728157972261172
0.0732735325084791
0.069603925796662
0.0739572696224208
0.0737542200325381
0.0716400849624218
0.073766129389894
0.0690779367132172
0.0702360388150688
0.0708036031924446
0.0680125928579859
0.0693457765536211
0.0719854474464418
0.0716545896526134
0.0759060240865598
0.0756518587247284
0.0687590391592527
0.0716735854747492
0.0715458693971028
0.0691841436570753
0.0692175008802485
0.0674267444400458
0.0697989867762439
0.0685422340693805
0.0646443152190731
0.0681394353310057
0.0663518044883173
0.0694402703363117
0.0645592556527997
0.0710416411154086
0.0655024184747642
0.0684825316777554
0.0654106763707526
0.0663996577321742
0.0660122082319814
0.0652028669542317
0.0634613583292043
0.0654640019264405
0.0636359306141814
0.0610171776051074
0.0656372078426586
0.0664140067233113
0.0630950442019026
0.0649264189737989
0.0632977816375706
0.0676698103596262
0.0613732320958909
0.0630469030694817
0.0656764672275634
0.0625115787852377
0.0618800214281932
0.0603088625795245
0.06244878320793
0.0617113998575743
0.0624994562957442
0.0613868141946725
0.0597411211058177
0.0638130665691443
0.0633171790199911
0.0615495349910056
0.0614819724551533
0.0608481297739169
0.0651250636285559
0.0597754428002805
0.062505035927033
0.0641543435046213
0.0596612723152419
0.0647527648788149
0.0615874241433984
0.0619148824144097
0.0574345637003299
0.064221262456485
0.0614879002684812
0.0646069690519517
0.0602845189718546
0.0568353430382199
0.0568733627433132
0.0580733212578568
0.0569827107765358
0.0587066378279316
0.0622668440783637
0.0588915344943819
0.0577983848492505
0.0615299625557174
0.0587326248571354
0.062114445528359
0.0585934269235828
0.059819251293631
0.062279536922379
0.0611676138103463
0.0570622629900493
0.0567208155476799
0.0532572127456367
0.0604005762282403
0.0569960749740958
0.0546501288205622
0.0542099864115358
0.0596812757686065
0.0555602495320651
0.053479207087525
0.0531116535302275
0.0527827181506723
0.0556776927009016
0.0572337224678318
0.0548526618042184
0.0544041136106997
0.0473717667188745
0.0516700470738297
0.0513599115031757
0.0534390644605422
0.0519448346930967
0.0513817957855646
0.0502620400011354
0.0526251581493276
0.0489312872762295
0.0489474814929199
0.0487901867088333
0.0540927978902992
0.0506122002884363
0.0515264475950347
0.0521657790497458
0.0531244397945742
0.0511413685956364
0.051145506701618
0.0516423217351478
0.0458297116672784
0.051113512019926
0.0531928982793286
0.0456354033178971
0.0456274864223525
0.0472515212318875
0.0487509852547542
0.0498632006814935
0.0476501561702218
0.045010507998732
0.048104956541517
0.0504375140287088
0.0476342901594839
0.0467187766926215
0.0458691226440977
0.0453240526532958
0.0429126746212178
0.0440690936569425
0.046617679468961
0.0508043690970941
0.0504130448844834
0.0437774857033769
0.0481846145265929
0.0467496152567419
0.0411505289163401
0.0417722421833433
0.042809628352611
0.043857741832246
0.0462835570476611
0.0396151098447896
0.0401816334487097
0.0404287532430509
0.042231744793562
0.0392728641074441
0.0427666664275543
0.0396237267568217
0.0407856987986465
0.0393871823658711
0.0446446279353568
0.0391531108053593
0.0399952065621678
0.0391199506712488
0.0390872210911575
0.0377835241139586
0.0408914113193958
0.0405079451652202
0.0377490952104739
0.0372605167007689
0.0393153489521799
0.0381379394099557
0.0398549437478053
0.0378752390850064
0.0394060214137354
0.0403276258151181
0.0386200395315452
0.0355121824065495
0.0367124930305736
0.0338395078091142
0.0392397150123158
0.0354287468564986
0.0373327094063825
0.037443562507662
0.0380772794775392
0.0372923396245959
0.0378355710520891
0.0345964457485056
0.0353140730816236
0.039949478089003
0.0364080576237434
0.0398162245281629
0.0414284302858133
0.0386903462074993
0.0369030891551786
0.0366637412869202
0.0399804905147693
0.0344903057647878
0.0309221313488555
0.037331703314371
0.0350284323356999
0.034430107550171
0.0319312603485184
0.0364100209013382
0.0368057843265731
0.0319395717797121
0.0318192721475192
0.0359550561012241
0.0338446483545821
0.0341442802210525
0.0347653156898372
0.0337200387686775
0.0331358438001811
0.0320415992485379
0.0343265533056605
0.0323213172531933
0.034067847403066
0.034144645321506
0.0352216201009059
0.0350106883012147
0.0340784540890912
0.0308648229561768
0.0328291025854957
0.0319383456425961
0.0321820982181945
0.0294637898695088
0.0340570314138704
0.0302364560334139
0.029181557082044
0.0316885279842147
0.0321915841406826
0.0281629258889858
0.0322521527448468
0.0324108634421319
0.0309215051859118
0.0269224473206829
0.0335869896583674
0.029977461733618
0.0304990035193851
0.0327076442041965
0.0329121108984213
0.0311871725165668
0.0345856415352495
0.0312477111216914
0.0331361130537761
0.0312610606795357
0.0334425272074722
0.0345057912916674
0.0309967543197074
0.0318805706177913
0.0315309666248156
0.031452783520598
0.0344302119442583
0.0318681798485952
0.0313903552590429
0.0328574359508516
0.032441233526292
0.0303789767002385
0.0310634486965427
0.0320113999220346
0.0338481816187562
0.0282064185662803
0.0292973721861175
0.0296398595725064
0.0304669632222266
0.0278877998473645
0.0332099603734988
0.0308384000363349
0.0307812053698761
0.031541248855998
0.0302006186146969
0.0294769711079364
0.030942524063346
0.0312635654432234
0.0300769536535717
0.0284922659679977
0.0264010702160486
0.0240436609233996
0.027237158492942
0.0270068280403369
0.0274043962798003
0.0273912727471762
0.0265878983713814
0.0270780714074091
0.0254795230684642
0.0286482666506899
0.0288543740200454
0.0266476027843105
0.0270849377748821
0.0257721086757722
0.0285366479105687
0.027413086632906
0.0273867928017948
0.0267002197844006
0.0289748387307526
0.0263725909128328
0.0258759283176691
0.024258539337779
0.0288338288476164
0.0281171244094431
0.0273619200898397
0.0282358437262303
0.0308246644626931
0.0239215673818686
0.0261740759326464
0.0275017442993248
0.0298670100011205
0.0245084719259275
0.030027123914557
0.0263949463624421
0.0305940730707669
0.0264036736292954
0.0279096631707274
0.027454279113707
0.0288965505620771
0.0293372761154714
0.0283536632900658
0.0267874621337522
0.0292450044157021
0.0262992765687181
0.0252403116265685
0.0251066873292601
0.0266026212022285
0.0262344372976373
0.0248066613415736
0.0255333140954972
0.0273647006106295
0.0248364827187107
0.0239831261980488
0.0247107601424604
0.0245765594545822
0.0243713265448538
0.0243891107790541
0.0225782999163414
0.0244610788885616
0.0235751869141108
0.0245345091414783
0.0251597449521179
0.027614572499105
0.0234994638103617
0.0216476002774353
0.0232085781477591
0.0224568521545486
0.0219104530213148
0.0225684752800824
0.0254972970468724
0.0235913286986403
0.0225006855579806
0.0234454241556761
0.0225468141341772
0.0216425700158685
0.0221083256457017
0.0210567195800479
0.0223018242833187
0.0204936087033666
0.0210353842032762
0.0212907168367858
0.0201023595814305
0.0206199386645914
0.0183503856459244
0.0239794668203395
0.0242001169273953
0.0255882848768721
0.0220448212977639
0.0239689828992721
0.0229788637395863
0.0208853021007896
0.0189541046035995
0.0219465050287053
0.0184743527412435
0.0238892987115037
0.0224882171149004
0.0226316824810242
0.0215567498752914
0.0241415769095795
0.0204171234618426
0.0219255596077039
0.0198482791272095
0.0216073650551104
0.0190158467109687
0.0204764619555684
0.0198568177473953
0.0204400453071944
0.0185145504641569
0.0217847830762511
0.0202198804786691
0.0214287346888786
0.0204060076967356
0.021820296197656
0.0187446980035631
0.0236970538662729
0.0216902175515844
0.01947482982503
0.0202591796694831
0.0193626420416871
0.0175865939912756
0.020350253489434
0.017715079988758
0.019579939570071
0.0177932106934337
0.0196906691483127
0.0198824426457897
0.0175308483893333
0.0165018340364939
0.0192050945748749
0.0203803573674904
0.0189236291750458
0.0172238605752596
0.0195020710995719
0.0181907838274609
0.0166580711421752
0.017524996227216
0.019983001810293
0.0214407914521686
0.0168836910745518
0.0195940247041818
0.0208963927764493
0.0195342501924961
0.0187900315382711
0.0178268163495672
0.0187984096823176
0.0193513364588765
0.0202332918249166
0.0189392330509015
0.019717721236436
0.0209354957429648
0.0221074042585529
0.021793873343453
0.0222905787444044
0.020728515010519
0.0204392310229564
0.0237322728371826
0.0232510292614198
0.0203770429282512
0.019226033588227
0.0188002096738156
0.0241943899480714
0.0204866213147798
0.0277307006286296
0.0319199589914144
0.0321313348415971
0.0211900239519278
0.0169141787549445
0.0245415509248146
0.0264707830166503
0.0215598224818651
0.0223519582877433
0.0285184967229511
0.0201362400929425
0.0245809277417633
0.0279638364863466
0.0237466203805847
0.0290544696829092
0.02352465387295
0.0262195598873124
0.0231964291454859
0.0221744831101471
0.0280413930517822
0.0228014996030431
0.0222097494175131
0.0173067537336821
0.0165482641393013
0.0215512834641818
0.0245348841880927
0.0251156418845052
0.0207106841384709
0.0260436508432715
0.0187256276319216
0.0286914215031469
0.0168245813246835
0.0266481339738374
0.016126309873984
0.0254290549713627
0.0139921057341236
0.0263470105312032
0.00771154410367282
0.0271966849302022
0.0121535830452011
0.0362149117552629
0.00583047985864648
0.0373624703404764
0.00350743407753812
0.0433789662189541
0.000544715097264395
0.0473663199040544
-0.0116856017044094
0.0505921300465988
-0.00135621509730057
0.0588210790551627
-0.0182420376910344
0.0586145128558021
-0.00925873202928756
0.0564970188615537
-0.00724451574953628
0.0467468271662491
0.00228285369168521
0.0384731938632364
0.0124013250953969
0.0276342422856032
0.0200784909723227
0.0217763413755456
0.0278524428785163
0.0106682388840148
0.0295027547578535
0.0134798933272255
0.0235540807252596
0.017269424645342
0.0222754658766069
0.0216670566439535
0.0145498327101036
0.0253901005392204
0.0168022055015377
0.0245163257788169
0.0159737284049561
0.0195860227595172
0.0158230637953779
0.0183512536932657
0.0162376462420905
0.0152970708691177
0.0172685665710329
0.0185220349813902
0.0133767602395606
0.0168442700271501
0.0156321653070293
0.0169676984588227
0.0119780191896825
0.0158027488695218
0.0139198262336766
0.0154687104512984
0.0145915648369534
0.0147504577087652
0.0141998254602363
0.0156530652077875
0.0144800726624942
0.0193938161488046
0.0145369527266294
0.0174146355475796
0.0150549456710467
0.0183656728285419
0.0149196723361922
0.0171398022720339
0.0138196083838097
0.0158170228193486
0.0153348293407578
0.0171630390455806
0.013913333170057
0.0166327630794042
0.0174832074413599
0.0161859017020149
0.0146995423034903
0.0173857899647816
0.0138315518883066
0.0155660289723801
0.0141034746570228
0.017249581818013
0.0183055539056498
0.0179745484208245
0.0180399964082161
0.0168824508508548
0.0140795507063738
0.0195033224336508
0.0146586875354913
0.0155712157287775
0.0171840170300028
0.0161303492366272
0.0159644187805232
0.0178555979661087
0.0192095532399939
0.0163562743293094
0.0158675287143593
0.0160958009212887
0.0173489733170445
0.0153719255253476
0.0143277824158798
0.0181798945317655
0.0155271633310663
0.015087072599362
0.0146753744315398
0.0170955962316677
0.0146268296767629
0.0152672080335416
0.0159623176583307
0.0154985984225462
0.0143036006791591
0.0126527740378099
0.0138657088364532
0.015364350165631
0.0152097092291077
0.0139810506258002
0.0136365053379569
0.0174471842399772
0.0144144013770328
0.0173401614609204
0.0184552194547816
0.0190641810453347
0.0161625466538772
0.0160458661400828
0.0152654511468935
0.0171210980914173
0.0144247728660396
0.0161719465737058
0.0144791627470035
0.0164008457250232
0.0134989913287302
0.0178295781399189
0.0156482849416633
0.0147505950217485
0.0127872324120908
0.0169626034766232
0.0178240834139435
0.0155547485502375
0.0146243470076518
0.0189117323817928
0.0169392944376692
0.0160573554981294
0.0142997448303499
0.017835957699508
0.0179584388811975
0.0168710740282489
0.0154186502585214
0.0172741428318387
0.0166953555931132
0.0169067279491517
0.0157262573401992
0.0170514257715563
0.0172665721565382
0.0176263692779738
0.0153719143149598
0.0188448402910494
0.0177531452223954
0.019344515531511
0.0143618395238062
0.0163165618693275
0.01599626978907
0.0166628322198172
0.0144374356500178
0.0140375840587881
0.0145878407416308
0.0160739386558473
0.0156932676388028
0.0163523159533806
0.0156436279846103
0.0140954384892416
0.0133796093295982
0.0176554442139882
0.018718141601133
0.016611894519039
0.0148478759684759
0.0172555683695155
0.0172257034901761
0.0172449673765255
0.0169894929428847
0.017507587480173
0.0150464871285626
0.0172668142893556
0.0145244006634042
0.0162063674405385
0.0150800073531674
0.0174918096162009
0.0153491713953605
0.0204674542932637
0.0183025863675186
0.017715034981049
0.0163036592367241
0.0197627706939245
0.0177811287534362
0.0187151408655959
0.0161045973048617
0.0175831541067972
0.0146534038789367
0.0173102154662482
0.018156116084176
0.0194828681167348
0.0168056517358978
0.0200163609841247
0.0168444332453517
0.0185410998653868
0.0173841335643539
0.0173395050173485
0.016553949624863
0.0187729294882076
0.0161588093271765
0.0178557636074198
0.0170807290754994
0.0170871995237727
0.017153696101281
0.0164461645406253
0.0179078480519954
0.0188795308134526
0.0152185207158968
0.0161740465609279
0.0167580573793899
0.0187372847730384
0.0139342155445169
0.0157919277742931
0.0150062203181383
0.0174610224962633
0.0183034772787694
0.0150142331728048
0.017123154502896
0.0159409219094728
0.0141260490717694
0.0150045752046528
0.0162735346296467
0.0166505128469944
0.0172133386979723
0.0146183042482082
0.0135742651975579
0.0157199165806244
0.0128686365388925
0.017218795245944
0.0162031665044885
0.0168717810006383
0.0150764634259797
0.0163432455818139
0.0180956788451926
0.0165370369054463
0.0164077392478191
0.0170916727682255
0.0160173293053637
0.0180534117662991
0.0134148360467104
0.0151498801343053
0.0145733542590333
0.0173758461488034
0.0150013088549811
0.016257029927732
0.0166755535760657
0.0169325059083135
0.0148917803212196
0.0174965644168914
0.0176516091801684
0.0168633767753624
0.014257894007678
0.0165594741272543
0.0136986447920571
0.0151186290404437
0.0160215813428734
0.015926197404396
0.0132618406989682
0.0159570185996328
0.0143358168009402
0.0175107316167771
0.015825167677395
0.0158116151258864
0.0131374464183989
0.0149925342521503
0.0149703998446541
0.0159140152103368
0.0150246573594388
0.0152502555784986
0.0158430505518089
0.0169253328620115
0.0162922532057293
0.0160256757825553
0.0128105792131157
0.015717182562541
0.0133876222180287
0.0120523410915634
0.0128964122537016
0.0139712406355657
0.0127907287625425
0.0160396351437414
0.017334424606418
0.0156645229148342
0.0158026670117292
0.0153107726065594
0.0140856334316079
0.0165612510130695
0.0138582303109285
0.0158480893879064
0.0148516815845123
0.0131548344148212
0.0144078304631426
0.0154266650154229
0.0136422888780507
0.0138265108221674
0.0136646550920421
0.0146137158344902
0.0126347683441507
0.014014355687076
0.0147280371350651
0.0141217735986175
0.0137521908098268
0.0150538419744833
0.0127534373074254
0.0155159728555196
0.0151331544329716
0.0143673450894669
0.0151890160124975
0.0174018101768003
0.013598335037332
0.0138570370604943
0.014200255712976
0.0146541301010533
0.0140977767201942
0.0140121966906709
0.0131910485725867
0.0164391660593899
0.0150193539296597
0.0147026877248327
0.0128430292862963
0.015071474478963
0.012705275152295
0.0144538578499219
0.0128772208133547
0.0138273204191929
0.0149645027619462
0.0130732748259159
0.0114091088875526
0.0166111127045279
0.0118011652605127
0.0138782595796781
0.0128735472058254
0.013028772681589
0.01113438770084
0.0156663454498873
0.0158136051212455
0.015269235939761
0.0128005724196518
0.0110162652379587
0.0116648274579106
0.0107933756275257
0.011776239536579
0.0129380169458017
0.0120995108971898
0.01427526970276
0.0122620431782665
0.0115227476447115
0.0118107863395057
0.0115597287305095
0.0107832387240291
0.0142087979141358
0.0132704752015945
0.0120881897499509
0.0115178071262006
0.0116410324516446
0.0132987908993763
0.0114250035921136
0.0141780986284792
0.0120409151195735
0.0122156196929109
0.0140934100911517
0.0196045685689467
0.0136766681435973
0.0118712322309375
0.0147453546364571
0.0151323024558284
0.0140380783868169
0.0117841724644305
0.0118383289339534
0.0119961186375484
0.0127858556628126
0.0120317559454199
0.0132011809235236
0.0121806245164858
0.0129848129319344
0.0123675315780359
0.0121351754181513
0.0120382798627103
0.0105974401624552
0.00991320564387992
0.0130905732309718
0.0131382835752921
0.012104157021346
0.0110956265956514
0.0131406884886095
0.010653549383641
0.0112362455323725
0.0159060841431228
0.0174784191864798
0.010258053464882
0.0139128759938749
0.0122753624819547
0.0133264235745157
0.0115480364619469
0.0124386683989544
0.0106593222840061
0.0133403114613763
0.00868026423250263
0.00971358675460026
0.00856976468462573
0.0106353245856212
0.00890668981623089
0.0116530353920939
0.0122469867330288
0.0122214203019233
0.00992225353778367
0.0119168346365262
0.0071361313139519
0.0119586575690424
0.0101238808765657
0.0140398908067084
0.01155532092615
0.0124805174363044
0.0117307886373907
0.0230853310678679
0.016702950952343
0.0138958056127724
0.0102324418656991
0.0110589798454202
0.010871645314948
0.0110929870579854
0.00942911237658376
0.00909145036538763
0.00958478619276886
0.0105801222498911
0.010391987490514
0.011477424229413
0.0116339139842842
0.0108977704131915
0.0105503397410814
0.0116205257660303
0.0107207414524254
0.0115190804753173
0.0104231946582765
0.0107740310805111
0.0186213199556392
0.019185752690916
0.0115906090662713
0.0117227772030471
0.00855070180677275
0.0222944281754917
0.0197239229843198
0.00922446242734426
0.0154454269316477
0.00977431050798243
0.0124125738128656
0.00858503771228885
0.00974126345777739
0.0111184054514445
0.0153179653576873
0.0135672653875788
0.013075516420454
0.0128686213683247
0.0110498695502369
0.011365244363458
0.0101955246929539
0.0104911926728248
0.00990987768084193
0.0112639007354655
0.00774375775987104
0.0109928794907184
0.00922500871270944
0.00886654567941026
0.010526934034129
0.0115630047307155
0.0124308185148204
0.0126773774011054
0.0112396912217128
0.00916108245973182
0.00874194604370904
0.00990987509589898
0.021290674091788
0.0149648948172362
0.0103723121931245
0.0105625577119261
0.00936346826162323
0.0101367369948589
0.0100569575101464
0.0119791242975262
0.0096272891404711
0.0104212838238466
0.00868014841724491
0.0127976448753414
0.010379561057916
0.00863772231962699
0.0103470031178559
0.0127054827182869
0.0117062796068847
0.0100243005824796
0.0102581301003522
0.0118841576075457
0.00978957338660033
0.0202254659334294
0.0285681427250803
0.0229709417582151
0.0200426570151895
0.0137993887600769
0.0108193520099514
0.0112446526187898
0.0103176663607388
0.010295265773361
0.0145767855594855
0.0116380210504539
0.0112727747790411
0.0112501827786176
0.010511001204717
0.0107871873173428
0.00997179093701327
0.00963059421072046
0.00999057176613307
0.00890929767153383
0.0096060408363184
0.0102616745601214
0.0111425988159195
0.00912240173236299
0.0141017607927574
0.0167995683506893
0.0131250551013535
0.0090340744545716
0.0183899492790094
0.0367610036567838
0.0122860473243622
0.0164501659678663
0.0103582454202607
0.0111007617146214
0.00921320436744004
0.0108196185194985
0.0126996211612009
0.0111561911825179
0.00798559699699518
0.0117073051311083
0.00945333295182633
0.0108284800574604
0.00804712194773187
0.0206502962517147
0.035438696661765
0.0214789056517602
0.0130038225868603
0.0108427581273008
0.013005609645512
0.0358403760226281
0.0173034349202368
0.0115497243000863
0.0113830273934167
0.0109037561853715
0.0136216406644121
0.0124295447901574
0.00942934553005587
0.0161149717685518
0.0144254698739775
0.0117700529267608
0.0103427069964639
0.00815773123543261
0.0118330819159975
0.0132052291014104
0.0142931215756544
0.0222140386834158
0.0126579686168301
0.0164162605069479
0.0151119693725795
0.0113216638651461
0.0137034669108927
0.0131565602964551
0.00921610996734667
0.012977518014621
0.0206418894282066
0.0150441746471797
0.0220980427606925
0.0244468079362042
0.0108166178194608
0.0109759400986126
0.0189796734887063
0.0178966683418026
0.0101689053536944
0.00925881912452912
0.0363014894806092
0.0280915856636834
0.0283707961797868
0.015366342398631
0.012909784977259
0.0133812883062335
0.00898151150626903
0.00950823971188551
0.023673932923749
0.0211814237240987
0.0104729228233236
0.0118435800177379
0.0098354205032567
0.02593242553112
0.0147858025407753
0.0143496481903774
0.0103710829871555
0.0147418356437515
0.0235913349689978
0.0186932777041174
0.00678887609928101
0.0318097665406093
0.0338299305756213
0.0327277828124906
0.0218718706183727
0.00995213901976125
0.0294623093079702
0.0268496047651529
0.013491703382243
0.0137331326590319
0.0117241244250679
0.0116300741563929
0.0148089603435087
0.0421609896052885
0.0245413664755378
0.0166218967628559
0.0187949223490647
0.0171441369890757
0.0319095380033207
0.0258749485812012
0.0144466588415984
0.0195128082462277
0.0142211954211406
0.0100896864935175
0.0426283148693913
0.0392446747692659
0.0178937376576571
0.04005740805486
0.0294509674224328
0.03248224302072
0.0237785569164466
0.0202876621511802
0.0242879319605107
0.0314939658493947
0.0196007531057359
0.0117982367488966
0.0241917572951111
0.0439919819932913
0.0214045740451906
0.0230094199883196
0.0203131289379163
0.0122073001621577
0.0394679140603964
0.0694034270499828
0.0463108878181747
0.0291715954231893
0.0210860602911305
0.0356869734024539
0.0277606693492153
0.0224694169650635
0.0216055735157716
0.0209677418498032
0.0212170078049949
0.0212085836362302
0.0246312830324922
0.0244566517031281
0.0226517932299061
0.0233332895110603
0.018208212881214
0.0422916484546995
0.0517824374242127
0.0580663232306383
0.0294920183758279
0.0369271587186877
0.0428029726361212
0.0345316217482113
0.0311359718361567
0.0272071226271654
0.0322550872632826
0.0324590704336122
0.0284072493946567
0.0277292243927183
0.035964271799895
0.0440285667394677
0.0441331641298442
0.0514596552547064
0.0361007095589654
0.03204167845326
0.0241570038918174
0.135047264226671
0.0693860780033245
0.0457936044180707
0.0392267290997274
0.0353441930990328
0.0910827222965532
0.0551713026400585
0.0365272147329438
0.0404789606972792
0.0364410418286926
0.0476781403581315
0.0496155272170283
0.0487179740863484
0.0538110557740344
0.055025067521935
0.0393089655481174
0.0489668234530133
0.111081422708307
0.102967254700484
0.0742109112511088
0.0565970948254606
0.0699630121765106
0.0748699176237977
0.0590635514102433
0.062902360369042
0.0596384295326163
0.0671431039837238
0.106959935588709
0.0810831152972208
0.0698734520038148
0.0674083930165165
0.08269942740059
0.0697046856835022
0.0986650225132797
0.106364216991164
0.082111764667121
0.0824754608617326
0.08368135565957
0.0842702096590577
0.0742116528862322
0.0978016542751526
0.103249990821634
0.0895763338807474
0.0834667672126894
0.0878570235151357
0.0877790314765066
0.0923641089615161
0.0952487921580755
0.085976769794409
0.0947264501897134
0.111577543118852
0.194305635189609
0.123382989336922
0.0997584782504774
0.0904610008509727
0.0871284003088106
0.116579462444748
0.102244405903359
0.132198207376181
0.116121743263639
0.0944067588818302
0.0897126122560042
0.0899100345570426
0.0928054824314154
0.0921162954773478
0.0910711558639967
0.0866969881284887
0.101036766316886
0.0843486008627269
0.0991646706812134
0.14391187367476
0.0887126843022488
0.0837577707042432
0.0798212773361926
0.0733733659007748
0.0732661486438935
0.0694089482342995
0.076918119707684
0.089785308151834
0.0701042295472425
0.0761900361784042
0.0635293484950063
0.0835983040424592
0.0914863132887414
0.0710479511739863
0.0665969749395967
0.0686721117583114
0.0685856490410706
0.0551810978462819
0.0685463050124058
0.106195243986209
0.063121148798424
0.0613768771416594
0.0597456388223837
0.0577563670531637
0.0551646606650576
0.0571098157260737
0.0601668632105652
0.0600176562677259
0.0513824882354759
0.0574514429679294
0.0509860807141789
0.0511549701300845
0.0473636420924482
0.0551877389707407
0.0533768680953124
0.051971528608525
0.0482963068981381
0.051230286668876
0.0486824515001292
0.0463119866545086
0.0501253243012978
0.0469995215445334
0.0443073362512752
0.046636934585431
0.0432857266240168
0.0469847741343668
0.0421931047488957
0.0474346118693971
0.0440916263003593
0.0434540263212756
0.0403067435862808
0.0447041611469691
0.0430786229551145
0.0421390725019332
0.0416291983920795
0.0416675584193774
0.0404425699635422
0.0415307764796179
0.0369896998811176
0.0388436453400923
0.0433469334260092
0.0285959628555098
0.0718213548202738
0.0687925853724726
0.04282526979828
0.0407755993737039
0.0407497355085732
0.036992779675565
0.0305388559672807
0.0692818734732117
0.0589307226981574
0.044232228511424
0.0373448212786209
0.0359151229236339
0.04405002782109
0.0471508836677694
0.032327617113914
0.0417708479219967
0.0234193818183908
0.0717729573531848
0.0739043713859515
0.0907756460886403
0.103829784570888
0.0635682638268349
0.0323672380959048
0.0578017770613654
0.0645653410714508
0.0408028777261753
0.0376272475626427
0.0296472651895736
0.0452072947856968
0.0531660997121286
0.0373050982253561
0.0346151862577147
0.0256321278652733
0.0477422343974686
0.0658315499955971
0.0397887354883535
0.0509768658052292
0.0685811444794429
0.0478160078285632
0.0598128109622069
0.100220730852953
0.0649216055220203
0.0365564529283933
0.0411436783565214
0.0306865226515839
0.0409191242887505
0.061016148119473
0.0455407526366976
0.0466267181295185
0.0363162985984919
0.0333339348935391
0.037539723649327
0.0524333876757024
0.037123960113955
0.0409446671868923
0.0615363771727159
0.0334876835237617
0.0442943816380762
0.049777224529474
0.0706964834294983
0.0769266763848359
0.0539064999626921
0.0282428291015778
0.0604386130242508
0.0634778194907024
0.04855463689836
0.0495391692806693
0.029503274920192
0.038164612938405
0.0572997613886173
0.0369278856076833
0.0438396066664637
0.0515046222074405
0.0638092588841646
0.068049083372478
0.0831531335246216
0.0808092677950077
0.0554160183324093
0.0347464816273362
0.0388983738884143
0.0399171603998681
0.0415535086872601
0.0268162843754326
0.0591688288605563
0.0496510850042573
0.0394179847610048
0.0600402530459934
0.0506322120338036
0.0387870656363359
0.0465566329108764
0.0367994522646401
0.0444951702687198
0.0684696111658507
0.0856747670474508
0.0502241318815866
0.0525398138396982
0.0591270947480252
0.0572627728840561
0.0494015269403359
0.0528983485468708
0.0505266004301962
0.0536478974906315
0.0582728034583082
0.0615877646948423
0.0575497200745986
0.0661289524425484
0.0550360762937709
0.0839755742061249
0.0831085159085212
0.0670243907440066
0.0905451243656659
0.0895942093637598
0.106365124180223
0.0934396148713577
0.0805165285846856
0.0778916847594937
0.0763897462264965
0.0832031087625803
0.0763826733365773
0.0879579409851609
0.108349787551904
0.0946976286461477
0.0883669331043249
0.0871349006577659
0.091337047766329
0.0929771693681577
0.114275254852328
0.0973969811441494
0.145327899196438
0.134077169781477
0.114685117247803
0.101279931447785
0.0976685096232207
0.101564688714817
0.0980606972852926
0.100292861463111
0.0906718093809826
0.101776099989685
0.115427169517079
0.105419462640838
0.103139459125005
0.0975082490192004
0.101059543090759
0.103695311561947
0.104058818682801
0.105793614004321
0.102109440493255
0.109971195118026
0.0975659503124683
0.107932064818732
0.154747752223911
0.124760352744642
0.11506470295786
0.107968570312321
0.118617329328391
0.110151980917998
0.107094539204865
0.123855977319048
0.119310660061347
0.118063737056154
0.113883919651596
0.11748818946507
0.108476923037279
0.122235273671771
0.133524882478316
0.1186838270075
0.126790218453682
0.102235404580482
0.148979750042317
0.149226753158135
0.134461798772718
0.132907372286347
0.129587045453439
0.120345456288932
0.119208606017677
0.118497162473558
0.119650826384487
0.11857155807133
0.1196240953957
0.119883449886637
0.115805847670796
0.119018750657122
0.111113540548871
0.119784078282509
0.130919280195714
0.118808764919601
0.11503785105302
0.118328444160793
0.116083029475346
0.108539855299838
0.128111573222739
0.125175427262031
0.122451208556139
0.107869044962259
0.113538074496481
0.133940271099887
0.125741741318764
0.111677746980369
0.112214373285485
0.108852260576459
0.117931495036726
0.105001853086319
0.115720140797622
0.128848269445629
0.126202926894526
0.113494247514461
0.114982328095942
0.117876977977588
0.122522396882694
0.116317680321204
0.121159263811406
0.123347000514442
0.12472825645776
0.127292400183728
0.121687652567115
0.126550801225169
0.128520676949313
0.133747211831701
0.137169609345124
0.125325793428663
0.128380178942354
0.12087799814098
0.125418445939391
0.127760826428554
0.12705933919338
0.118000565432512
0.123006263303677
0.113764093882042
0.125187987672685
0.135338515318286
0.122721319591094
0.131693053079224
0.116899866303288
0.117336750900979
0.114819036665244
0.117850009015694
0.110106916011248
0.113404761624584
0.112145854002789
0.109241477833594
0.106774733390803
0.110303244277001
0.107868540327707
0.110520345844089
0.109367686878083
0.1062922983128
0.107986465865012
0.106911222032427
0.108274030872694
0.102453198780981
0.104987586118399
0.106712491915103
0.102911741928968
0.115108395603559
0.116508245683928
0.120250260197502
0.107126538569776
0.11620075833445
0.109236336868802
0.105704235495662
0.103578051883943
0.107078312306001
0.104529069242905
0.10801244618391
0.10567179938113
0.105731009507751
0.104931535807225
0.106043877157823
0.104985362791519
0.103317805958086
0.102945567516169
0.103033509649041
0.101391364818674
0.102041352146543
0.103050535172021
0.100002178220281
0.107652194676649
0.100988137108649
0.105589570768251
0.103014214430089
0.101313310735859
0.10265539899431
0.102484277804301
0.104170571725316
0.102198721458816
0.100461538978104
0.0998809063666711
0.100888403921783
0.101718636109699
0.101731854450917
0.100485197484348
0.0979693279686039
0.0969064405416278
0.0994302479316099
0.0954928460309173
0.0957062279591754
0.0951842594372169
0.0962640204334027
0.0930821755778608
0.0893654827695618
0.0898903656731049
0.0895375558737926
0.0924624027841874
0.0891807390260001
0.0881096538520401
0.0869149052880615
0.0861287504824624
0.0864949479369253
0.0832290519598567
0.0847548641093901
0.0843162950417353
0.0796826778819712
0.0807456882062917
0.0821910977599311
0.0825994978652357
0.0806057681824594
0.0816048996568203
0.0833648408292933
0.0810888790219955
0.08195685998648
0.083818761673663
0.0811894959287125
0.0811083117626007
0.0820720180270819
0.0833574813398672
0.0845608026344317
0.0845595907409776
0.0846025627981906
0.0832713815627872
0.0878633052099766
0.0895547470348844
0.0878834316559127
0.0860796508871079
0.0872583122854906
0.0862439999293599
0.0877225858164537
0.0894915260082768
0.0889127071581697
0.0895980960346474
0.0923824513362445
0.0903385265416002
0.0900131611071407
0.0902375975319658
0.0892770198226194
0.0880654188860386
0.0908405374183782
0.0906847970484636
0.0885610236007663
0.0891612301912705
0.0908061760893999
0.0874086654473916
0.0894448359972359
0.0898816842228425
0.0921665446875965
0.0890410035111215
0.088390611476605
0.0895220224783134
0.088373094504151
0.0875216924674134
0.0871597341500433
0.0854713086960363
0.0879460872003051
0.0852063297922283
0.0864160979934136
0.0870964298032992
0.085718756631823
0.0861362079752659
0.0849974060645704
0.0864886685098562
0.0870769191479674
0.0856779746505869
0.0843286542458561
0.0842779908826913
0.0852769494892134
0.0845084044514959
0.0839207054369064
0.0849726255146297
0.0855399404886511
0.0819638099379398
0.0822405127640839
0.0827642189117851
0.0802676589840791
0.0807040931213636
0.0805281418093301
0.0822540409735102
0.0819569139783822
0.0794112814307078
0.0779431039435874
0.0789601920974541
0.0764841495898097
0.0774026108787553
0.0781689108500893
0.0773593372551996
0.077879548204115
0.0755855131168025
0.0762504890122361
0.0774508474543442
0.075634544273511
0.0757310391250737
0.07642538522216
0.0764353984966123
0.0767025226617869
0.0762064041088744
0.0759644775198088
0.0767051564329715
0.076445923191667
0.0748970760056531
0.0739422440091159
0.0733471477965888
0.0740423464258896
0.0745518420488798
0.0710795656916666
0.0717338889024274
0.0711600972595427
0.0687308278294583
0.0696341722386228
0.0687755419001228
0.0679737035909091
0.0690959703107421
0.0686475310002941
0.0699304045571474
0.0700039096548803
0.0706539170857429
0.0717147148233635
0.0733243310979403
0.0779478421972673
0.0798583790300369
0.0837214504221487
0.0865701855346893
0.0896764389341736
0.0962248250470389
0.0998637289681532
0.104594494859228
0.108809246412003
0.113476391450021
0.121312312848966
0.12629240240643
0.130219515170204
0.134832663486932
0.142196369093945
0.146387326861948
0.153326548718822
0.158382024043371
0.164550147375332
0.17208594394844
0.17630224314734
0.180656450996632
0.186268712029947
0.1909126000217
0.196916915686067
0.19794343098751
0.203166041052504
0.206926495921789
0.21012729894958
0.213140129225134
0.213872998779744
0.214167917429025
0.213394803089541
0.217202376628296
0.214914703959331
0.215852926015149
0.21490306749493
0.21261842128172
0.215996752392003
0.213556867594291
0.210656404484128
0.210608294147815
0.208461371910603
0.209853346906474
0.208773056118112
0.209295595533905
0.208232098026845
0.207011590460481
0.209288325482608
0.210408904713401
0.212059990240059
0.211280872054051
0.213809761897551
0.219897646962042
0.219291957578051
0.221799559038546
0.223734020746316
0.227485037230856
0.229801700041954
0.232533750102796
0.235325784747287
0.240829210289299
0.247055926341146
0.24915083145137
0.251543757372322
0.25290367455772
0.248364805450578
0.256709606732172
0.259513219456978
0.256459155703838
0.25579928841989
0.258617410185489
0.258025960787032
0.256675292243791
0.260008493476652
0.257230933426278
0.25794456179503
0.258520564511674
0.258042896776596
0.258665308357893
0.261806317977941
0.26268376660839
0.267144154311178
0.271692794421472
0.276059051103983
0.279074400312406
0.279864201646304
0.28593562655978
0.289351812409303
0.296893461152683
0.300825297954801
0.307241543397148
0.308726468139776
0.313280786498178
0.318867396343756
0.323338038584378
0.327843498909981
0.33655281620662
0.346328547319758
0.351104963602199
0.35864002897776
0.366115504467539
0.370203197976122
0.382127320898718
0.388669702939116
0.399305015828605
0.403288436911809
0.413424881249457
0.419637662726497
0.426392300313413
0.428728017920427
0.431222145484811
0.429308887488863
0.440896016248429
0.433295239858829
0.437374815673344
0.439698670227657
0.435838753980745
0.434675769182075
0.434552347679069
0.431470853209499
0.421908076816848
0.419877123897741
0.42024479014195
0.416182949034352
0.412112177884974
0.406796579539034
0.407473132684836
0.410440787598518
0.412601370558387
0.412879056283324
0.411584607302476
0.414653091394277
0.41639492585766
0.419555888401015
0.422237102674105
0.425233210805393
0.432732159507627
0.435820134724801
0.438796835590997
0.445377246472652
0.448462098657773
0.451044861557842
0.452572712642504
0.461686627831994
0.46023795910707
0.462157736612797
0.467697603835186
0.471308623745418
0.475826090698287
0.472939325384612
0.47148516861666
0.47601131303764
0.483631998988055
0.472988979326562
0.472463009513448
0.4736156657483
0.478241041742319
0.47429197464243
0.475504856589409
0.475721626563851
0.478809139597722
0.472639301490755
0.472280728362382
0.465441402449748
0.46998676486133
0.458666178276424
0.462805628668409
0.457668627810148
0.45316674225769
0.439601333252113
0.435966732868887
0.438398609957658
0.428737519999086
0.411717667515672
0.399252252084102
0.386149075999869
0.375734796464325
0.364925185374163
0.353676040624427
0.335966878010836
0.323540071412735
0.307757849304826
0.291384905183194
0.275523362764386
0.273643361766385
0.25813475580315
0.247634900390594
0.237431769080947
0.230177885283797
0.225557886256572
0.218390722026045
0.218171716045684
0.213836530638626
0.207671521221778
0.207738465598778
0.200918992687565
0.19863361284348
0.196270272493941
0.191578787322925
0.186219628730406
0.180855292960097
0.1760004579041
0.172928211754479
0.167453775798772
0.157563071689981
0.155824506044714
0.148841178185156
0.141367033191911
0.135014823205062
0.129699228576426
0.122132415761867
0.113606513105709
0.10530462293825
0.100914609215931
0.0944936670420688
0.0880250762488853
0.0839623704684601
0.0784717830808052
0.0739066767487974
0.067841284456282
0.0620525675225567
0.057935991161954
0.0573841730026348
0.0508595101566852
0.0460832315674803
0.0444080877421275
0.0417481768157728
0.0400376997353358
0.0390787798435449
0.0385023997749994
0.0409620052212006
0.0391429499757509
0.0393174966469227
0.0330802133215832
0.0357610140379192
0.0322543790129859
0.0315364601291701
0.0307116610671875
0.0296798624293742
0.0322310120117716
0.0329305340992086
0.0325663980937208
0.0377920428873792
0.0344881235985283
0.0329353331532874
0.0327281405983548
0.0369085283329131
0.0357127423211313
0.0377877963094642
0.0410560853829921
0.0406902662983325
0.0376148138048147
0.0395653790011974
0.0431392224066326
0.0447624016519456
0.0434551664217155
0.041870388733309
0.0428883697657686
0.0444050541606673
0.0446202246427729
0.0451276562819076
0.0446807585950899
0.0469184695514437
0.0421189067669038
0.0404767277319835
0.0417779822141099
0.0477284990102798
0.044989685474167
0.0430835221638003
0.049047680067208
0.0484428379908096
0.0466915401060052
0.0488195562881564
0.047073371868645
0.0490068818707167
0.0486177163295178
0.0485443912884696
0.0498372475784779
0.0477243170298531
0.0481673496006876
0.0497576863411089
0.0514435385370118
0.0514946103384934
0.0512631847722127
0.0489504825341901
0.0495691764045173
0.049911221139159
0.0495215978108883
0.0487616833307838
0.0545432867108896
0.053669872973903
0.0474643752397526
0.0553874624884634
0.0524285444151654
0.0548742956394263
0.0513387404578361
0.0562848749812411
0.0556139542488752
0.0566449852870575
0.0594544441044121
0.0642049498418282
0.0653636775507866
0.0663694453431544
0.0657126274065357
0.0675922360503614
0.0685876221813047
0.0760896367202722
0.0654577488881697
0.0683331308773785
0.0644733542163103
0.0655327917159141
0.0626835977600931
0.0607166665537676
0.0589561325958839
0.0611000917034189
0.051714742070562
0.0592821442184239
0.0586235358093662
0.0556299022100103
0.0531747849910971
0.0538226231172483
0.0518429922574626
0.0587236255681545
0.050780772046267
0.0555965360122709
0.0550579117551188
0.0601336016575886
0.0583593119899402
0.0574857597993275
0.0586042658961023
0.0504697313484171
0.0514988801544994
0.0576089130816729
0.0536517344166301
0.0460963333202707
0.0528734762955623
0.0521872764251383
0.0500794686832373
0.0456327531876578
0.0440003074334267
0.0531656686790966
0.0550606639842303
0.0517223779961648
0.0513069172677658
0.0500688283205213
0.0530528785979959
0.0442274165941938
0.0439364425608077
0.0518965526791887
0.05477032279348
0.0502391176515837
0.0468435513297928
0.0494992036741299
0.0535028236255174
0.0469868602798584
0.043150618050081
0.0466297105025603
0.0406085065412466
0.0437618159735208
0.0443351542926107
0.0532522072578166
0.0451750996695156
0.0482309576221212
0.0449330784475719
0.0453556676434907
0.0509174571416502
0.0482972584429056
0.0387254651601045
0.0355924482605317
0.0403239428001559
0.0452321876476008
0.0478997552785694
0.0441365591642093
0.0410283762686166
0.0452206381732511
0.0446592168946054
0.0428742627003117
0.0425881080817632
0.0395907950756249
0.0372494735367306
0.042624942404873
0.0426677200065955
0.0426300521428367
0.0423629215093083
0.0429117231546111
0.0508006349419664
0.0426485092521739
0.0436273838253377
0.0487283522215565
0.0424116393552765
0.0459019926052023
0.0517493539473928
0.0490177689960733
0.0365276441789084
0.0423035768466352
0.0472084261488156
0.0563816208122735
0.0485454912148567
0.0541581644945227
0.0497350987173191
0.052086441380657
0.0449553293233641
0.0479440125349768
0.0544949488928413
0.0593094248650645
0.0578678332371868
0.0531511497630601
0.0542224408173385
0.06306604797123
0.0681484096340593
0.0746377380239621
0.0745374424187958
0.0733970670849844
0.0675012499286067
0.0722536942556116
0.0781801315745305
0.0910741084388195
0.0863258316133733
0.086767004304824
0.087732568964393
0.0820002330285072
0.0862399212462474
0.0924442707166962
0.0875117980576556
0.0892190978797582
0.097507596754631
0.0990520734877658
0.102933747667618
0.0894523209122988
0.0829300283134735
0.0696001873176773
0.0879901016282481
0.0761578668920816
0.077782657010002
0.0751811245030654
0.0911243776471993
0.0975959653998052
0.0826619120103911
0.0849356182770629
0.0848366554936149
0.0884413413124997
0.0898383471626796
0.0924325670766745
0.0768264352862559
0.0846835700024645
0.0763227694275662
0.0651262723153363
0.0782169470082795
0.0957820772224585
0.0845793222398073
0.0796837984029884
0.0752928890341303
0.0750949332635832
0.0712167297109715
0.0883529435889983
0.0628169253481756
0.0773383451098139
0.0694191738317651
0.0797695533100062
0.077386335149555
0.0735034710598899
0.0571789446521408
0.0854633784804206
0.0795665083741922
0.0826750605298493
0.0776659554200197
0.0931720195596352
0.0888123558486583
0.0836336923311321
0.069868337708681
0.0843903033149589
0.0786338557129617
0.0789802730613576
0.0781277314467433
0.0775667850190797
0.0704938346212437
0.0898999472303413
0.0619457460241717
0.098432638290119
0.104657878084064
0.0814730940936269
0.0745113001482932
0.0780129992238687
0.0976502218640971
0.0835885046737894
0.0856553323426455
0.0813278496975713
0.0596502542103648
0.0775628034964141
0.061561852251671
0.0966623093642278
0.0822954978055646
0.0868246887530429
0.112178335952034
0.118541106416368
0.100498329159129
0.0916557245265047
0.0802613359701186
0.141046781881089
0.11368337285484
0.10481620725064
0.102292304292044
0.122649578075035
0.0785434227181855
0.112456915470098
0.118714890692122
0.0978984471544807
0.100423506312763
0.0944842611114612
0.104766981951849
0.133175865169526
0.124973233376339
0.100872955498741
0.084573352750559
0.116650458890792
0.0932567588988115
0.113846890219357
0.11648714765901
0.101790457836846
0.109277416916681
0.109881742534772
0.0907229155509045
0.121377629255582
0.12781776419069
0.125030021223915
0.108823024044677
0.137260372268486
0.0987356291157354
0.131790463979788
0.0761749417465492
0.165782252458938
0.0570005978947382
0.120035933200654
0.0839304743147127
0.147296854448999
0.098011059056151
0.120694271289447
0.129896103438595
0.157336670510096
0.0967404960926463
0.143954632624238
0.0638059732407056
0.101062245368435
0.108088994670336
0.13317689321339
0.118141723759286
0.0905758581447572
0.0799569700285948
0.0331315347143605
0.232212377610854
0.248369206519916
0.115287106262475
0.079647399748617
0.0956001078679102
0.151552275628234
0.0189328336549298
0.148937304839857
0.115224798888395
0.0741842211568901
0.0321448409340237
0.107738301602842
0.156746917215374
0.0124176793608204
0.138662195840196
0.263050296873947
0.209477261697997
0.0825402980718823
0.204595162362446
0.0788781324955562
