3596
4000.36533379555
650.420452594757
1
2
2
0.0365065584133078
0.0534394103738185
0.0403704585404292
0.0467536579226608
0.0404728733230876
0.0444357741353997
0.0366270579305141
0.0346177346321184
0.0378598355693964
0.0487398755374694
0.0347962594848854
0.0470269875636696
0.0418507571578427
0.0471448178442921
0.0364274207785549
0.045106177074552
0.0380791065422658
0.0445804070935889
0.0458811186416584
0.0412454403060549
0.0375579472277248
0.0441352740876574
0.0352029825720235
0.0444058547564209
0.0374886297980265
0.0490942884942092
0.0375255481847942
0.0452461150373454
0.0398518872255694
0.0461643967624036
0.0296682598321396
0.0388139721283051
0.0338454166423159
0.0493017028202599
0.0382466944077702
0.0412431975204954
0.0356055748502955
0.0426621222723521
0.0312059506692524
0.0449110619921698
0.0430353309412133
0.0497416105700063
0.042577793040225
0.0531443434501857
0.0321011456058618
0.0445388564488333
0.0458077558296929
0.046546430726829
0.0246112333670868
0.0449587135708344
0.0410274942107555
0.0420549828585665
0.0507454816078445
0.057285365805359
0.0419253366852833
0.0553550779428095
0.0431340361237602
0.0491315902655156
0.0441191608122115
0.0457831689155229
0.0559826777820217
0.0583389904749528
0.041948376270311
0.0444780428661348
0.03902926258959
0.0486697944626392
0.0475551606712964
0.045443456372132
0.0370273120952662
0.0466606803482021
0.0285099944862938
0.0483328186022496
0.0510272020849009
0.0477128944173974
0.040859290812746
0.0486699421379495
0.037871446737912
0.0441810117410447
0.0312111079347684
0.0504106141127965
0.0521947529556915
0.0470263428107167
0.0457771814201653
0.0425136011423945
0.0374454133602906
0.0612598900383001
0.0326499914174038
0.0512021116771055
0.0560811749981732
0.0567586559653937
0.0353417512523467
0.0364615179704597
0.0303736753333914
0.0485797251689686
0.0263381641278332
0.0418807545589017
0.0290990707812244
0.048826216596008
0.0273963564506987
0.0496662933917944
0.0309889724313343
0.069598545723114
0.0723780892483106
0.0457254540141063
0.0761218726867392
0.0520362083588246
0.0413044837809887
0.0821912100807564
0.0591570071621486
0.0531465126609471
0.0413654516992244
0.0419340986351965
0.0447836878890177
0.0563107887355606
0.0183964191968019
0.0627335585617063
0.0650804225042555
0.0557289568667446
0.0333176847211166
0.040549507247357
0.0212925323169605
0.076684497027276
0.066009932846802
0.0576703839459346
0.0444688747990081
0.0519285028532199
0.0274405564219449
0.0796417669019513
0.0624283036518925
0.0524379781942614
0.0283613982018526
0.0444043904658522
0.0246459637025064
0.0390019289837309
0.06400713689002
0.0575758728003748
0.0448008451816501
0.0269382401735299
0.0527527915634188
0.0955617568438005
0.0567297874753484
0.0509724221791183
0.0165027717986873
0.0528006728696689
0.0727334650324301
0.0585449124728493
0.0320586873033864
0.0732784523716566
0.043743726617894
0.0500466156919333
0.0365371291709059
0.0372526504359669
0.045999300373578
0.0527706081061142
0.0011860383347205
0.0960929592552766
0.0630819111510865
0.0937515232875574
0.0897045086577594
0.060739841040672
0.0384566860348222
0.0424505228244337
0.0349545525273687
0.0381613440190409
0.0400450319169131
0.0300012779417541
0.0560380129918091
0.0647073621671582
0.0376329862628432
0.0508061940758075
0.0682717183225581
0.0501831924873913
0.0305146167621791
0.101469165348273
0.0545834823800566
0.0492335089478021
0.0639554928818409
0.0637790369385055
0.0272538094553099
0.0605697846194534
0.0514118840682347
0.0499184397815882
0.0374313351995191
0.0343324399587002
0.0346477886029581
0.0602627986336907
0.0417993115374006
0.0482498272226876
0.0323463950197045
0.0267811248457439
0.0367374005878745
0.0897383293998876
0.0589584500650393
0.0571723697045895
0.0327610585362144
0.0181032603277611
0.0652578494482247
0.0812774055185079
0.0416756446565023
0.0383674261757365
0.0354462080166425
0.0417594672238702
0.0323711205224506
0.0456350691220287
0.0179637492236612
0.020679498804669
0.0755453597100517
0.0627748003614358
0.036659774245535
0.0404030998348279
0.030357260708276
0.027860374055828
0.0911123902087344
0.0761255016120992
0.042266192390179
0.0370765270358112
0.0306737182741639
0.065036537051557
0.0590283214373162
0.0428420016514309
0.0369411018132082
0.0408764276271949
0.0384710267683354
0.0386169553720953
0.0369226527529685
0.0360014002441919
0.0334913077344022
0.0348817269504945
0.0325073715418218
0.0439768919026798
0.0467518243367955
0.0466577091980626
0.0316686371315366
0.037736531082058
0.0201200195526953
0.0588009717099441
0.0616511693623183
0.0527581404199365
0.0396474315447527
0.0448660984805714
0.0291677651072443
0.0454939796143465
0.0324584691979583
0.0437611674837965
0.0235851677279517
0.0415199183233318
0.0729259135554244
0.0545735183155678
0.0405236510531343
0.0304149978733655
0.0587981516277801
0.0547875476333402
0.0441877795665505
0.0312340625948088
0.0406112667253482
0.0208226252687533
0.0304059615676507
0.0630813922023424
0.0431910086517414
0.035306829933144
0.050287269024127
0.0421270181542479
0.0479081622009838
0.0254667181645395
0.027254626940447
0.107586918408849
0.0466631848838436
0.0490487982357363
0.0968204831544224
0.0601229701248082
0.0577291440883804
0.0286055823220019
-0.00103203076104595
0.119942852051244
0.102686269565987
0.054586571502319
0.0447090071961535
0.060478953915457
0.0350818546174362
0.0542331519081593
0.0360860030487618
0.0626535654027547
0.0586818323896526
0.104585805623038
0.0724300787728123
0.0366885753952526
0.0707975007541854
0.066099601700505
0.0501389051843565
0.0427437197763709
0.0463649705834899
0.0355130215444543
0.0522525916709922
0.054525559464599
0.0617731846662236
0.0417570068158348
0.044312035226878
0.0612584274681686
0.0511308473055494
0.0367108244659726
0.0524782820612603
0.0500720185598923
0.0420758879021418
0.0421262842403215
0.0382804373730126
0.0552868090363291
0.0254958498759884
0.0350861366658007
0.0995865247729466
0.0540948656280902
0.0472338429543111
0.068797104385395
0.0501250940473756
0.0422512059756061
0.0435006777054987
0.0406212825045814
0.0414753366862582
0.0303432648791838
0.0330675951305527
0.0670091910407438
0.0467481988827742
0.0441558595487842
0.0338741639706297
0.0375718226554846
0.0327980065126119
0.0485649557876798
0.0373386314610686
0.0446948942093851
0.0391407617783036
0.0212941613353768
0.0561141178603777
0.0603930912483472
0.0194354972436854
0.0675318051225926
0.0662687131539265
0.0546868164960798
0.038137940034808
0.0465893313698322
0.0423958415111407
0.0418344789501993
0.0384718248623256
0.0446651097901342
0.043752148094046
0.0642289298755466
0.0456954411870384
0.040783759319813
0.0377952931298963
0.101024297879945
0.0986791525549765
0.0670355344704204
0.0432754591756815
0.0190449536430313
0.0851281249936916
0.0726155447018157
0.0727709267753302
0.0699132999703461
0.0499916945624793
0.0444066726236882
0.040477768143534
0.0459989389559679
0.0419592179578775
0.0456887866696892
0.0452850590983555
0.0522514665736474
0.0420959039780442
0.0609033217119609
0.0377993408395176
0.0473810095869765
0.0787559311517162
0.0633977446024923
0.0450494443470217
0.0539050761186556
0.0253586076496414
0.0723192823883646
0.0633947456667683
0.0976115376702504
0.0678071008096136
0.0901177634442115
0.0877340247399924
0.0786784164701656
0.0493374839152555
0.0548993244940983
0.0523755088002558
0.0631263122588322
0.0465553497399134
0.0663423890530697
0.0493538887740592
0.0636347382531367
0.0488004800633629
0.0561413565184139
0.0454104914866477
0.0612958237025094
0.0720853649683555
0.064293545530788
0.062269025479365
0.0463864260360485
0.0654235928632192
0.112722257399311
0.11788085461166
0.0702590134256366
0.0717648925840444
0.0696790263755572
0.0592187230999193
0.0578920820503579
0.0724133340254069
0.0704901563532107
0.0611737921692126
0.0968964381023921
0.0794755865025844
0.098081076644515
0.0821698985330444
0.0747077763543776
0.0902932978557177
0.08395600834234
0.0882420678748499
0.113567752808237
0.0909998146092622
0.0699340255711816
0.10202207824339
0.0938252150678735
0.0996753273679636
0.105816966549047
0.090359528853508
0.0790602523234156
0.0839097115926321
0.0902177595094725
0.0726134270966935
0.103742100564803
0.0877081415946347
0.0842062028678651
0.0952605504259927
0.102410077870692
0.0866657566189534
0.116312093419675
0.100317271384858
0.103719919824769
0.102658201344354
0.102369002605165
0.095259368429441
0.0899741842274869
0.126314692045338
0.123159541297311
0.129676125113508
0.145997661244875
0.112776196841506
0.113391350203358
0.100762090105387
0.119021468684936
0.107268861726131
0.119341113341719
0.122553966872599
0.129443344676114
0.115070154544913
0.119238026385192
0.116214600295316
0.129864929169078
0.117486195092232
0.133313016795439
0.122798254223657
0.135278361716566
0.127225921628617
0.122085690478892
0.1539211370759
0.151959548549372
0.171891030369811
0.163862921572754
0.147843269000689
0.152171379531683
0.14728600569018
0.151123352252666
0.141905953699832
0.166707415677533
0.161559786929922
0.160267708295314
0.154654421318655
0.163300752251025
0.162536753586439
0.158072922213279
0.163478163804699
0.190829852324449
0.162330341869038
0.165334029351692
0.177146501702074
0.177241506935094
0.170782203758056
0.194592855535034
0.184593782149699
0.198546850035309
0.182370910577372
0.195279900745788
0.182340197828588
0.197955128737153
0.188083658973608
0.201350725397461
0.181987857276313
0.211933892944449
0.198690996563274
0.20525380145781
0.209716844471889
0.225969566816648
0.197138160208579
0.222823761362821
0.218965222534552
0.231694329498579
0.205890073428931
0.220280790810897
0.212218571318563
0.236131908613126
0.218895927946586
0.226120881904944
0.227411686408409
0.251330847885101
0.227849522127409
0.250647465340396
0.23269685524172
0.259265547651087
0.237404582838595
0.2528600507766
0.245484997907893
0.26460267301766
0.24743673739435
0.262484743568416
0.253578816694266
0.260821583159628
0.251091610653598
0.284344211133195
0.277397249093906
0.288432076287061
0.253741821414255
0.285562802767197
0.26477795693609
0.294705064043855
0.273083312598778
0.294170191929458
0.292425200482156
0.297919379645316
0.290469229661765
0.293111041114794
0.291668873257867
0.30771508355554
0.301433175003931
0.330663016285203
0.316282864479507
0.31720350847508
0.294586965767355
0.324671110020843
0.309461911566412
0.327139333504851
0.311664938893438
0.327106966396186
0.301464110427352
0.338682816697798
0.324611397461948
0.329940727267047
0.316367884478734
0.337683177354122
0.335210806883887
0.346556659096847
0.323423277248674
0.350044979908828
0.340034588637756
0.363737604343575
0.334923180616608
0.383183930417141
0.358356050964212
0.377208092692642
0.338957528419262
0.374008629216478
0.34691872508561
0.370498746193042
0.372795709563917
0.38111837887489
0.381144505838489
0.385025002882495
0.364296557376858
0.398139749897125
0.355244795280267
0.381311009481941
0.38846614232462
0.388270202553667
0.376516735802482
0.406187209292056
0.397710301237597
0.402590754015571
0.403583944373853
0.411342063552632
0.413983198726473
0.417112107683232
0.40127249233852
0.413464255324927
0.397470650879471
0.436738041448728
0.41462308200788
0.436839104699216
0.429144525599802
0.439914137191685
0.412603810575017
0.438648395902294
0.410911242314691
0.417876350584673
0.426264222563807
0.456648286481938
0.410784277327099
0.447001227090499
0.419612082727557
0.450128803445996
0.446714419681731
0.476651453448871
0.440887175723436
0.457142874778287
0.431860976695707
0.471155333435721
0.419099044994809
0.476500784573627
0.456425214708037
0.475888428216544
0.448039295198799
0.506177488412265
0.459989823447613
0.47604656088345
0.468256104740947
0.480359643875185
0.456727743587649
0.486072389165522
0.478663967875702
0.480116890283634
0.477308583522338
0.490093558196794
0.478083973709955
0.488083204177681
0.467489718439214
0.512121018979481
0.48343139397389
0.499254264559233
0.484606028267911
0.492409587971121
0.499931085119408
0.512446648395401
0.495217209248424
0.512377519439056
0.475866945471565
0.520623505140653
0.477730001180673
0.530655810189398
0.495930564815841
0.513558933885496
0.497228508048872
0.50880785705137
0.499172709183307
0.518020270759857
0.495240893649278
0.512376692411752
0.497178332217883
0.531949604308661
0.531624862903241
0.561679695598914
0.514357140554481
0.53522024356113
0.498375960301301
0.546578903913844
0.545782573097373
0.55484948320568
0.499315332013235
0.547251724063166
0.519155216694879
0.570830062369025
0.515068147727053
0.547431434092692
0.505436007193483
0.54892728126545
0.516113493391743
0.530343080616121
0.533496527494484
0.538472811412069
0.489247545155688
0.53473826152352
0.54068931344051
0.568944032452885
0.508702211074678
0.551380388486414
0.557751720008352
0.549296592194727
0.52603881745163
0.548298271630718
0.520246027358633
0.551910873339328
0.533240147907886
0.571082801188878
0.550355381261976
0.566368498975989
0.534585406616596
0.545739380449806
0.540461507912126
0.578640090503011
0.554379025907663
0.557732479564233
0.526735678938364
0.59134640101902
0.543646326519138
0.577654049209093
0.557431471085064
0.571798918615874
0.533354725753344
0.5753719448614
0.538043194160885
0.566159465021487
0.545375134879162
0.564872787320164
0.536680042491016
0.573257711519804
0.547124915365062
0.568759115874709
0.523840916336905
0.575765284527194
0.542863217513102
0.584234016601559
0.555082676348434
0.558675016715219
0.551430956645123
0.567886793638452
0.514320155989664
0.553380805727425
0.523767808226361
0.569523118591759
0.523832798870203
0.580057561278319
0.534967834066302
0.550944736240623
0.520781480362166
0.557889312314033
0.540190130132386
0.580337245613654
0.538606304941982
0.546403876304055
0.518844394564179
0.564540671610368
0.52186645653689
0.583376440663858
0.546529619139252
0.547955581881087
0.527590834974733
0.545843752928734
0.526501414654531
0.534352558241172
0.50810614506161
0.565899899407047
0.535619437886813
0.54757373142271
0.510777938884515
0.545983613974311
0.51008466470456
0.55496496395372
0.532330082146458
0.525841702232717
0.501234133210817
0.544281243393677
0.486816150745767
0.529193784281764
0.51984178012364
0.527599844715115
0.517907944718641
0.550862457820759
0.494204997321397
0.522316454629587
0.50809897352474
0.535193438718479
0.509757435303756
0.529814242701177
0.496697087360181
0.547319237268148
0.49246528948064
0.510357815733847
0.521478598999828
0.517941435039238
0.491348944764172
0.51820251732214
0.486766461598691
0.495300751985358
0.486981020752482
0.518971772875135
0.496797897540487
0.515320198806665
0.468192484260729
0.49546503489521
0.485445060547314
0.50594408940723
0.493137667190228
0.487188209801798
0.488653157595368
0.497365507538279
0.482383314438178
0.494051980476671
0.458404225720769
0.487534795565434
0.482436504426556
0.501991360018754
0.469927603521707
0.477533686837079
0.472425570550298
0.47032551401505
0.46576749593365
0.47692357833079
0.464377860755292
0.482852983761761
0.440578698104702
0.460519433950187
0.457944971002399
0.468150946578781
0.451569496662612
0.475861923794194
0.455156948369235
0.461984736477627
0.429695378405098
0.448832784466879
0.452599123969316
0.457043404184802
0.443519584438348
0.455655374997423
0.429576226348697
0.462541490433105
0.424541393399888
0.439875042491398
0.423658446098585
0.447342966079707
0.427065602706571
0.450571251504161
0.438030367545685
0.422263555010145
0.41119948075406
0.4287443286389
0.428077397025044
0.42257152977248
0.405124101259379
0.4118381654596
0.395695027981026
0.429697023263109
0.40254793503832
0.4063783139329
0.405684146042052
0.403216019528275
0.386004309526186
0.399686002174178
0.382904859338783
0.397508047497939
0.388201344078128
0.398501923373032
0.390332661473704
0.397405989097245
0.376818047196807
0.390128460969614
0.382496969710413
0.390484562205756
0.373911047030888
0.380965030250847
0.362625472348027
0.374403745633622
0.365856630044571
0.372978261371704
0.350726972397756
0.370211648319985
0.364098500505496
0.356961149416431
0.353516619286791
0.34671357017462
0.347333998670442
0.360162547190072
0.340843623547872
0.34677512637909
0.342528484613668
0.353130056636814
0.335860192123478
0.339466826802606
0.342875996750316
0.333097824739749
0.318847143969132
0.331068344863517
0.327207698494611
0.334508295032437
0.314576272975119
0.327115814028175
0.302395018700049
0.333257229883749
0.322600925819751
0.316032427180618
0.307376745477226
0.320237563157734
0.303252277723816
0.320348463868391
0.294916610927883
0.311243554746001
0.296117583834205
0.304717288329619
0.299973159874515
0.29337149378097
0.279642640366174
0.293843031435705
0.287489600268558
0.288819056395989
0.279389286539083
0.282715955043607
0.282401399457717
0.271956962717396
0.271396258082829
0.274085316493785
0.276792667712521
0.274561670086136
0.264859858768516
0.270550933901965
0.249040046202851
0.264506024771525
0.259858472896989
0.256748786052208
0.258224603217122
0.267861187939567
0.254440874922713
0.250580942949862
0.244594678517025
0.248043912633103
0.24209842941656
0.241386298180775
0.238236101850405
0.247506672982225
0.230759137867605
0.235198218756444
0.229310839780313
0.234708409889079
0.229498418081265
0.240468827833212
0.223154176192283
0.228674360921658
0.217628149857854
0.230707434684601
0.217974433980385
0.221291480180901
0.216453705634442
0.224259020574756
0.221115841538095
0.214295707912589
0.210181721778734
0.213292338934135
0.199055060742276
0.207694581664991
0.201060645020759
0.206145161554655
0.194956695332009
0.206359857350428
0.195104843998307
0.199342952732764
0.19634010485064
0.196059234054773
0.191436860497111
0.192001269342608
0.18517635719873
0.192936136909805
0.187530319342763
0.197027888698387
0.176844957885163
0.19322034976413
0.17661387238889
0.174758790329874
0.172947737951124
0.173973359243402
0.167648483023653
0.169285431030674
0.173934271228441
0.177701194170107
0.171457393647675
0.169645088406541
0.159063664719339
0.165110784496559
0.160780524859572
0.162934470512988
0.164571075423706
0.162836689726916
0.158023667440267
0.155747925508652
0.158218729533814
0.160635720514858
0.153901002305379
0.150832603738802
0.155092249650881
0.153137356372114
0.140645747520007
0.157474051808014
0.149604161046537
0.146114032156971
0.141094780859005
0.145019422570173
0.140232004784833
0.133553013885376
0.134486469907101
0.1387311347463
0.134439074431263
0.13758267384405
0.136215276247658
0.133582939406838
0.134237465730026
0.13367878109208
0.123708847264581
0.132754950221238
0.125916315173248
0.127417483547256
0.125008365597532
0.131808441503351
0.124691261765785
0.124233070522097
0.12720553710458
0.126455058561835
0.121525807982611
0.124868609736935
0.11838947574888
0.116850380178529
0.11372264144188
0.12048527874379
0.114740585489282
0.115698648491745
0.112086637039126
0.116448204147539
0.104886517699829
0.115727249731842
0.11320063835546
0.11218233049378
0.109650667309484
0.11908192624207
0.106399732560294
0.111131416803679
0.104849873022627
0.107397748068953
0.108117348064272
0.109944770049508
0.102656041036691
0.107186838834264
0.107125997373825
0.103729570094641
0.105238235645974
0.103610218387009
0.102894343283809
0.09995171429684
0.102624473074628
0.10241213446305
0.100193151330374
0.0948526310694821
0.0931999512367122
0.0948210691482256
0.0975078750767383
0.0971784632682538
0.0986084017361883
0.100271087933736
0.0905548870458131
0.0948155177210916
0.0939037093532017
0.0956981118385353
0.0875628990929744
0.0940163322951402
0.0859638261711626
0.0858794985704275
0.0920339556359245
0.0910322889554221
0.0883598090346947
0.0885330006051826
0.0845749382708411
0.0864466120530572
0.0865781550514813
0.0921787248130772
0.089212486332051
0.0855031617471066
0.0869786165860691
0.0936950647247926
0.0863245305462372
0.0896605820237751
0.0841534317406348
0.0930277834078384
0.0832547232986225
0.0871371776668793
0.0839415892944658
0.0928886446960227
0.0847127462174266
0.0899459599574699
0.0819857446994164
0.0910534184470044
0.0856560068913341
0.0878808241702167
0.0827516499352549
0.0913101810799713
0.0800695389458148
0.0917332354197598
0.0926811644457013
0.0896083606444446
0.088794943273306
0.0939522053192855
0.0898932530117407
0.0928740541431016
0.0965083962368856
0.0930308267799548
0.0927616243615527
0.0982799731190922
0.0896894172489422
0.0966175117558079
0.0898761650371354
0.0951978492505604
0.0982452096640466
0.102285727045706
0.0996726115809273
0.103734300228188
0.0959112261457049
0.100461874127537
0.103397791910527
0.0997565281984763
0.098167248742625
0.10945255776468
0.102605772060892
0.108284148344322
0.103234901840968
0.108452422979176
0.105461291635932
0.108473307129
0.10910332251473
0.114003692036109
0.114040888499011
0.110824993091503
0.117130210978988
0.120552153637053
0.111667766966734
0.128019821928721
0.117773295492335
0.127938206807072
0.126136774708334
0.12286930072453
0.123056615722706
0.135047557680452
0.131163198093058
0.13431019387206
0.136424894435086
0.142239136466514
0.143304950113789
0.146647308507
0.137915554530232
0.147136200266195
0.147332325056835
0.147208607059814
0.147489551837514
0.152480500877855
0.150329313762416
0.15329326111868
0.159419190094439
0.160951041974023
0.150487343299464
0.159077287322375
0.155873265349725
0.161214230718108
0.148812233370233
0.159510962782012
0.156743090461254
0.159814744274674
0.154537461118925
0.16224692030253
0.153824669085142
0.157932505239223
0.149056025865701
0.153834473805129
0.148754163677533
0.151815116174992
0.149289973750151
0.151022649307167
0.145906864091734
0.150723887908813
0.140448506783949
0.152624201636746
0.145783031159832
0.146581321444114
0.144686275943154
0.152839025971809
0.142489289055232
0.154194635179031
0.147738864580196
0.150250642178417
0.14387977907727
0.151313151797441
0.144925746252718
0.143392350987042
0.141806401752582
0.148994746971036
0.142663466874442
0.141444393910847
0.142523936182024
0.143534350316373
0.140829560624183
0.142510430882404
0.141193133418379
0.148820641013282
0.138609065809035
0.142299984354843
0.144039367642078
0.141854759822819
0.140016654540836
0.146738816905003
0.137599227449333
0.143574280260989
0.135436220137098
0.138057373012169
0.135013412810819
0.139940528617278
0.131846886248554
0.128839509016703
0.129752928980156
0.141411675863551
0.126438975576055
0.127485253252194
0.122414942657478
0.128515342377155
0.120443893145415
0.128434796634965
0.119384449261191
0.122975044374973
0.119234646757826
0.117741320032537
0.113718965282119
0.122140638125489
0.111609821184367
0.115775403549219
0.111262842677134
0.113639187286561
0.105944378440692
0.108463730203519
0.10759970166192
0.102244708096088
0.101346486806953
0.10988928445176
0.100701475391146
0.100806142530389
0.0950385803521766
0.100345732182537
0.0953234309141829
0.0995080223454133
0.0911696972556552
0.092488240007427
0.0942127601095871
0.0940171699840129
0.0915132762639843
0.0955432619303023
0.0930903850282237
0.0933720555435975
0.0911945022890183
0.0849515402851609
0.0865670050631322
0.0900947229083252
0.0863706613542068
0.0875433552230061
0.0853340334884755
0.0829014674848229
0.0808366727846995
0.08538337358695
0.0825737679048581
0.0854169905162282
0.076043258401816
0.0825812592704737
0.0821506311070446
0.0797576377264708
0.0781750657313326
0.0821168102353146
0.0771906816429276
0.0812967678579616
0.0756562823493902
0.0781117715587855
0.0750357901590223
0.0787720880888567
0.0737800898988766
0.075867317176417
0.0760031982515055
0.0770345781640612
0.0711057317589373
0.07576221727944
0.0742748897977338
0.07573954053017
0.0677905981803915
0.0741166432626323
0.0736067740720307
0.0684155621001455
0.0700363774364401
0.073815678886394
0.0690443289042307
0.0673240126680067
0.0662307701463288
0.0692040204574906
0.068879340377723
0.0691870700243924
0.0641643028354318
0.0678393045947182
0.0621965695239337
0.0624626176781476
0.0624466256367476
0.0674231620386167
0.0634891599704407
0.0651218787225233
0.0636854508264191
0.0625365814145622
0.0614208944532178
0.064055394419912
0.0661214882274394
0.0650759826572447
0.0634899693905636
0.0611144321421753
0.0593202282295419
0.0600761644390306
0.0591447951758191
0.061298210402691
0.0583228839194853
0.0650510665012696
0.0594903623481159
0.0614400465405826
0.0586622704059523
0.0624147129455368
0.0568058380138178
0.0602087487137873
0.0584341631236605
0.0634863210669232
0.0581007311566884
0.0609219156704158
0.0587537542155063
0.0568132022357724
0.0594748216657409
0.0615293533074905
0.0564723748411969
0.0626364301406828
0.0598541454204906
0.0568972629869515
0.0553632642501548
0.0592373930510852
0.0561107397459777
0.0572969565650069
0.0581158953144323
0.0571177166642474
0.0566599313069207
0.0560034032272404
0.0565285426957142
0.0579250563805541
0.0550281785916405
0.0543689559146398
0.058441797059141
0.05422301731069
0.0501579371485902
0.0559076094557688
0.0531579544867691
0.0549225372525455
0.0532253208761783
0.0554606121410817
0.0536632408749205
0.0583398807538677
0.0499130676456302
0.0509831079830936
0.0519589584820225
0.0554556915172423
0.0510895329653156
0.0511777630336447
0.0565305253259773
0.0518267889650639
0.0496924834515873
0.0521965305473541
0.0487436573966052
0.055724572726439
0.0489913382165929
0.0527126377875433
0.0513255952440362
0.0540012164311944
0.050122048248714
0.0531784753972455
0.0488556773839868
0.0531151156148001
0.0485310484280468
0.0514698516532221
0.0477201699532581
0.056542067238252
0.0483850750316235
0.0513331877614663
0.0523704885346132
0.0493093844983928
0.0506674457773937
0.0522769300653141
0.0520309045525516
0.0475251988527645
0.0530556949468051
0.0505867736276442
0.0541687141500971
0.0509750893713526
0.0482639005126076
0.0534519127176211
0.0513349326731374
0.0487702904403919
0.0425374989124752
0.0515814391550288
0.0487251276228823
0.0484102436430822
0.0512407418803891
0.046737856867098
0.0510565550210096
0.0520231127399382
0.04719504825967
0.0507089630721826
0.0496365814612824
0.0490594692405426
0.047581690707255
0.0486482943174736
0.0499554973602428
0.0497531286064121
0.0446876440567505
0.0429369982829831
0.0489216959736469
0.0470533301503
0.0446620994796493
0.0449665538914149
0.0423402153703826
0.0449803529728749
0.0430534926002649
0.0463237348897231
0.043822249077742
0.0384370428168713
0.0425593137731343
0.042191809279926
0.0458577534477324
0.0437837467442403
0.0433995654341151
0.0426803200070294
0.0396007560406964
0.0437916941950203
0.0416760108193866
0.0420914138737279
0.0448341026647882
0.0405674044264403
0.0408602005022446
0.0458205772214731
0.0435283553166662
0.04416581270869
0.0366968008552579
0.0446766467652026
0.0380187667880421
0.0451134716523793
0.0411422002075322
0.0404119549231307
0.0377062032144287
0.0453846592342023
0.0402626359625208
0.0420425553724299
0.0399773111257633
0.0406911104525928
0.0384451462124502
0.0435506759298748
0.0382995083556831
0.0423099348061284
0.0362627388232364
0.0409276780854922
0.0360475661712396
0.039771348363307
0.0395188210588627
0.0468294229313688
0.0403712135920892
0.0386428087658695
0.0390552320960755
0.037637425504126
0.0376847137242594
0.0393076076901014
0.0327540110806626
0.0377034690971451
0.0361657986612314
0.0333080478013099
0.035123980716606
0.0397263588825884
0.0328446740905696
0.0364352183289742
0.035135458444053
0.0366461389899987
0.0328299569969618
0.0312022849403548
0.0373003247495923
0.0331810838234967
0.0314599766666278
0.0352322046051167
0.0326182981677453
0.0338730458703919
0.0328230712433379
0.0335423778213472
0.0290750001078045
0.0336785714095097
0.0338521687190659
0.032912441431434
0.0302447654546499
0.0306645040066756
0.0332503133544739
0.034523142621489
0.0320933762691897
0.0309039788045011
0.0319378857439779
0.0319958182839599
0.0347677452049
0.0314050267739051
0.0318120915696811
0.032823832126083
0.0314768958443534
0.0358348886493518
0.0309588554637159
0.0334763852409572
0.0282864338232891
0.0338579469853888
0.0311036716369615
0.0335478294643191
0.0321307218448503
0.0347012256919506
0.0300838201059236
0.032952339556472
0.0305813021003315
0.0307810886981901
0.0258470910142313
0.0342767660856707
0.0284428598754555
0.0321883770430545
0.0253458728045258
0.035425055461222
0.03185159772518
0.0281759857586181
0.0267456762111907
0.0352776327301937
0.0282303791679124
0.0298860452217328
0.0275690985784357
0.0313644038338849
0.0276584494393177
0.027246964365531
0.0264483150495665
0.0309784211714488
0.0284952495614505
0.0280499932266659
0.0306164238915167
0.0333498633370603
0.0278536707535072
0.0285670302321695
0.0247100390105845
0.027629029305023
0.0284068894334531
0.0251507654892442
0.0283098918412192
0.028120199322157
0.0243103096901154
0.0271050996742097
0.0301089564945822
0.0260176058508892
0.0261240957888615
0.0306963314559425
0.0256817837840257
0.0248642503521798
0.0298737100659526
0.0272179557576476
0.0250990149813764
0.0323628950289766
0.0278567470011167
0.0267728244197054
0.028962218470294
0.0305418601154274
0.0273421353732928
0.0300995419465754
0.0270393202859681
0.0310976037025865
0.025958599626896
0.0308775907171138
0.0268022219321815
0.0297376049426398
0.0277277536280739
0.0274380945798891
0.0279773155264111
0.0313241268403017
0.0267807712038745
0.0297409107830739
0.0269950574511035
0.0307728847236094
0.0294326931655939
0.0248585101653198
0.0235673278295171
0.0269337497863874
0.0256532685553049
0.0251574491809307
0.0260138787610691
0.0302215065662029
0.0245120538487578
0.0286860460557633
0.0272699272554796
0.0288566108514545
0.0243968768087876
0.0284479964871073
0.0264158896413935
0.0281142187219088
0.0205729755517163
0.0222567194711127
0.0216654166590563
0.0242664918644352
0.0256769509469084
0.0265859406702054
0.021875123602997
0.0252028366619748
0.0227892165291774
0.0277318226975743
0.0269025762884038
0.0269998068630028
0.0229929926402752
0.0260454159027839
0.0245017234561479
0.0258600104115632
0.0214138692670401
0.0219984428282699
0.0258360561461579
0.0253747209134012
0.0224531136206364
0.0241359806474754
0.0237127916707456
0.0261878069155331
0.0250262520703434
0.0266529366773255
0.0255058448623127
0.0219433394705232
0.0240561994570926
0.0258621247186903
0.0253448570746588
0.0250864722351803
0.0271661572305382
0.0240300713333562
0.0259908830887866
0.0246869642588843
0.0259183573587699
0.0284016692769566
0.0267001276514549
0.0283832890366469
0.0229560340572756
0.0251595988581293
0.0246763622834826
0.0260201433745915
0.0228905119970067
0.0254706747984314
0.0226740956321391
0.0259517211266643
0.0229097247726178
0.0272006332840476
0.025661291142862
0.0238017245360388
0.0203603616648464
0.026326811694294
0.0223463200927771
0.0225194885846871
0.0199408271675166
0.0219730110906581
0.0217955248766902
0.0228955869471304
0.0222722726194987
0.0255200343277475
0.0217529702023917
0.0224805512752344
0.0203304103655044
0.0222875447500911
0.0203505156696662
0.021651604479428
0.0200721461064748
0.0262500241612048
0.0208923689832285
0.023924898410065
0.0195043575338005
0.0210162902308407
0.0210530709803455
0.021551928042991
0.0196594631215496
0.0228071996211056
0.0167711744474952
0.0180515034693792
0.0182334428136371
0.0224094497808988
0.0190033048407945
0.0187931692568384
0.0192657497879834
0.0222085210850054
0.0206950463380506
0.022657714554598
0.0214316370606551
0.0231816499863431
0.0201780214883025
0.0203216805698519
0.0200657928181276
0.022109652105512
0.0215917802757074
0.0212308249213081
0.0198483451624103
0.0219032613697017
0.0216368781086686
0.0234797711256607
0.0200183612318653
0.0203550209281278
0.0195785109169531
0.0214583824007779
0.0177150605346306
0.0193941759331422
0.0189947968336287
0.0196696657119671
0.0192998678618881
0.020944624413452
0.0195799301116031
0.0184893530762012
0.0186904066670843
0.0191676585877708
0.0187532627598272
0.0215063044706624
0.0157631552136881
0.0200182854036346
0.0172167901906736
0.0176919861226678
0.016301619512172
0.0181639792206383
0.0170132830856276
0.0190224728825705
0.0159337190866643
0.0203431010180176
0.0147729831925825
0.0188999645700524
0.0172870349568377
0.0198726926492014
0.015045732785356
0.0189406322673013
0.0152916619756875
0.0203045333076172
0.0156920226835371
0.0191318625091193
0.0170889055408638
0.0211245217980256
0.0159621297951102
0.0205959566406244
0.0167745001091716
0.0219454530581359
0.016506299621545
0.0180532109265033
0.0172153100693677
0.0201519773337261
0.0178952576242617
0.0192649562280849
0.0179681972821139
0.0232456938624293
0.0190583294574333
0.0250497742293167
0.0199335817281822
0.0256990109863383
0.0173212783601462
0.0242598786910072
0.019779939334356
0.0247513403897638
0.0136751598848917
0.0238144263259018
0.0234263944612189
0.0266421784025295
0.0215303264115289
0.0290059935143485
0.0194798834011873
0.0288468071671912
0.0143895939683853
0.0252213299062399
0.0168862966418314
0.0231597527535305
0.0133394042022188
0.0328686787545869
0.0162633714611907
0.0269818770757557
0.0217114172439344
0.0258450830013055
0.0178749967282645
0.027141436419163
0.0152117117716694
0.0289356851569216
0.0144177583140703
0.0320184070595153
0.0171959981011724
0.0284835240755112
0.00599000026424723
0.0244941074144758
0.0127618726693149
0.0257553713148632
0.0116875094715303
0.0270402291551778
0.00988908686258499
0.0218263460656208
0.0151547291568206
0.0278602653464211
0.0109008940795765
0.0258327694043395
0.0102787097592509
0.0239392609322023
0.0142882613669925
0.0227205683173856
0.0101368986097259
0.0189731096482595
0.0174000649307166
0.0252203239473762
0.0233386812249448
0.0194640811962918
0.0259047237816844
0.0108330507636816
0.0342809716193637
0.00597372930343251
0.0438194560915272
0.00109291297896834
0.052214363642875
-0.0144207070160124
0.05739373232816
-0.019369159026766
0.0628609242131971
-0.0165995638933832
0.0612096609672478
-0.0122761065914111
0.0555895858231842
-0.00624331570462713
0.0432164064805283
0.00516390302726728
0.0323272642646442
0.0159611011080367
0.018462461590759
0.0246457872952505
0.0147180005069826
0.0245264489731893
0.0158906134618886
0.0203491315879517
0.0225662566519748
0.0130351723025184
0.0234087380887709
0.0128669796541976
0.0241295727351322
0.0082919930683151
0.0210773516587775
0.0109685098372489
0.017460975498271
0.0136606861202247
0.0169191927387583
0.0139432971334012
0.0162242050263821
0.0140386292405905
0.018454542039223
0.0139730647659869
0.0162587914447896
0.0104076333886712
0.0167922056885589
0.00968001373573964
0.0147726149748185
0.0124643177787837
0.0155958633139809
0.0126757793567931
0.0148828344548331
0.0125756790475945
0.0166725193812219
0.0129337764450671
0.0171791282301957
0.0142178229074563
0.0180689337137303
0.0133029259797979
0.0169905992153515
0.0120694998867534
0.0164682581775309
0.0163332757324237
0.0166404224110186
0.010466020616556
0.0148136293832379
0.01494472707194
0.01671539052116
0.0134027021192761
0.0169121373532275
0.0135724243319212
0.0161116169279109
0.0140440837611153
0.0145466951328566
0.0158088194663623
0.0181284903883493
0.0139313520889333
0.0171798902178717
0.0148613131090546
0.0188833720902266
0.0130889319522441
0.0163222273196705
0.0149414300189107
0.0131589842099027
0.0150533283824797
0.0179528886740874
0.0159491087701546
0.0145916873032249
0.0136106267246707
0.01586460613352
0.0138697363027558
0.0125516054050195
0.0106604538961705
0.0168907570604431
0.0138510108993343
0.0142365686098533
0.0140250965772632
0.0153777101129578
0.0119301282270245
0.0150158816720922
0.0135449188782857
0.0148355623834482
0.0127432767797984
0.0127567542005883
0.0135556304679586
0.0153679537112777
0.0139002188545488
0.0144841438661695
0.0130030204058831
0.015938093545967
0.0135840838133976
0.0159787685767558
0.0149563408679979
0.0163243498601752
0.0138042868555295
0.0150192145275176
0.0146140794278465
0.0171582259411271
0.0130647025064813
0.0152670324390991
0.0119290266138912
0.0151819429405624
0.0128728620773989
0.0159515830405852
0.0143482241879117
0.0144516687656233
0.0122420719314223
0.0146050641558457
0.016223513358066
0.0155872026040097
0.0153006865832131
0.0181067523012902
0.0153096422908149
0.0150091969657134
0.0130114452451932
0.0162214451882242
0.0171489813119331
0.0159929097312268
0.0158209177825753
0.016245800077166
0.0154319492038139
0.0153380704701027
0.0148093150057942
0.0146271036821807
0.01609649775641
0.0186728705967249
0.0147255351516311
0.0159370479299866
0.0150266664656171
0.0161527471282684
0.0133509344625493
0.015932980933447
0.014275047339905
0.014411035587246
0.0141320745156442
0.0143441310810617
0.0142403359312203
0.0143815060521567
0.0133955553808264
0.0142971604338223
0.0145089906334534
0.0154442144667389
0.0159444095985142
0.0169398603949574
0.0159460194911633
0.0155218456459526
0.01322390715367
0.0148271418077673
0.0145416363226554
0.0159453977121186
0.0175861093232746
0.0153845934369524
0.0142252632536435
0.0174926690781716
0.0136794824787204
0.0135531336475605
0.0152626677476704
0.0161968717089824
0.0147693198819977
0.0154832245043018
0.0156972732588269
0.0140577038327285
0.0159245758880156
0.0193482196833518
0.0156917607354497
0.0160982544194711
0.0147031345751773
0.0167272406176995
0.014379162882107
0.0171868488508474
0.0155546934510999
0.016506203527186
0.0148705830756363
0.0173499300399329
0.0173695293341475
0.0169953502979474
0.0162220521351502
0.0159915619894155
0.0156638168390768
0.0171674959623245
0.0157468724859227
0.0172573177628094
0.015487507557282
0.0159685524538878
0.0159870374588972
0.0153917183320402
0.0169457320930816
0.0162169861188879
0.0145533624748261
0.0169122231018056
0.0153999520846699
0.0161937205036044
0.0149068886630145
0.0150836624720569
0.0128290166199819
0.0153932578812928
0.0152045693992723
0.013768849850824
0.0167792777672489
0.0152014924776717
0.0141604962314955
0.0131879371101333
0.0153312224370106
0.0152928249868183
0.017275813244369
0.0140486870649347
0.0117672140779272
0.0141786716331655
0.0125284179569712
0.0155179765235499
0.0152196145470288
0.0155534664696544
0.0147227327618261
0.0151594770237898
0.0153662068312799
0.0137475265224096
0.0137147783781937
0.0146582290862362
0.0151714811033986
0.0164691834727999
0.0145638726716915
0.015347291180068
0.0152189912357723
0.0150163132177357
0.0127150160222539
0.0145118392480369
0.0153193159629734
0.0141837500237878
0.0129670907544205
0.0165132128978376
0.0170743912294438
0.0156231418595329
0.014012237667078
0.0143936827616754
0.0143846209249745
0.0136347028431249
0.016022902008977
0.0161712988435389
0.0136909956324883
0.016983681969426
0.0144815407249092
0.0157740375032277
0.0132829002523795
0.0132559560606252
0.0135990658988656
0.0155502850173759
0.0142804708590528
0.013713660706365
0.0134584068118173
0.0136027537277064
0.0141366754840629
0.0118661543883189
0.0143456794544639
0.0155989696108444
0.0123067602899614
0.0145560640516179
0.0133496296098095
0.0128216626591079
0.0121742958650803
0.0125066019199129
0.0139746843898456
0.0134824035592849
0.0156930000653842
0.0157819936766444
0.0152546423759602
0.0143616364161779
0.0148097469027541
0.0140753526390197
0.0116415036271134
0.0128891548692003
0.0149060264722543
0.0118789034043186
0.0135258759468228
0.0141427545750381
0.0135515311613974
0.0127221711189844
0.0134960628152907
0.0135650228293609
0.0116850021752738
0.0122409495232458
0.0129292506735858
0.0125508532869788
0.0147115680657855
0.0142030127518003
0.0118070065930917
0.0143818381686108
0.0142240450931998
0.013246017239629
0.0143253943596427
0.0181483764200035
0.0129612543932164
0.0136795069516228
0.0137433348938784
0.0146077594302666
0.0127852983434336
0.0122649268646565
0.0123247210531448
0.0135879841161949
0.0114327079908484
0.0118514975705632
0.0123192673619442
0.0122323579732671
0.0125048731874704
0.0129684674090367
0.0115328254371391
0.0130662684814708
0.013833077061708
0.011860501784165
0.0119621456719411
0.0148267291557739
0.0111162994058069
0.0136377840783065
0.0133822249552578
0.0161338175186625
0.0118275391982085
0.0160977786534723
0.0146077483693322
0.0121501952315724
0.012851269812171
0.0100021436831178
0.0113573260044784
0.00976213480355415
0.0119001719909616
0.0131771195295357
0.0108257113195887
0.0100770076739152
0.0108855200468409
0.0103917712448782
0.0114695011595266
0.0105942374185298
0.0101515939206946
0.0108514358596459
0.0147916846325262
0.0114445863477495
0.011610677258713
0.00966641933926437
0.0128471970754603
0.00903245717732164
0.0126121989466438
0.0101203604045996
0.0135630066111873
0.0122208876058971
0.0199482078942619
0.0124617545200075
0.0129065634913043
0.0126795975803344
0.0139203489910933
0.0123652240193741
0.0136663650310932
0.0116186867616793
0.0130495880421485
0.0122837005285651
0.0123001710487913
0.0122071451730665
0.0116424557852697
0.0116351868764138
0.0132836058401843
0.00941783853417227
0.0107915722096844
0.0088524534441571
0.0107949638124634
0.0106226951478565
0.0123335428879869
0.0126139070135198
0.0116845106320441
0.0113860087137405
0.00992957201343164
0.0110487544923378
0.0161078689640081
0.0153939414925739
0.0113811425074442
0.012795882966807
0.0127458844052103
0.0145939684494602
0.0108907277746584
0.0113366174062788
0.00901176364514524
0.0114907255438608
0.00973359183620415
0.00905978362215854
0.00874363357910881
0.0108685270844821
0.0102598791203766
0.0115655048514952
0.0123812353919959
0.0121806407359525
0.00944062189161188
0.00980381376666803
0.008454711394133
0.012673695248212
0.00935809735145362
0.0139934311659004
0.0110034658304292
0.0133708769001742
0.00967653945789299
0.0267711362165485
0.0151029249090039
0.0128604421407363
0.00991118639062229
0.0120137240633276
0.0124450304487043
0.0121748490243882
0.0102925765482994
0.00825578408816117
0.00893976070860736
0.0105615432787618
0.0100509542292366
0.0101793362896538
0.0114722592887616
0.0117792855991755
0.0111978622877165
0.0122449363280247
0.0102944111709316
0.0111960660961601
0.0106716478069026
0.0126143701888658
0.0203473570345258
0.0191055700119619
0.0120369792874468
0.01426406001666
0.00800601822454789
0.0238869274385287
0.0211917028621733
0.0064691316599803
0.0176213390681834
0.00775261826724221
0.0132963038653683
0.00569307312143664
0.012872274863964
0.00798966134436709
0.0174343027168025
0.0112764894512229
0.0133511515659177
0.0116810339991712
0.0129127819858329
0.0107745802517402
0.0106929341978096
0.0104339336088003
0.00825388995451595
0.00739456375525132
0.00772132231797313
0.00872388368866322
0.00814631137849652
0.00809047898089419
0.0121536397343467
0.0112345781137853
0.017000650653145
0.0105393662134721
0.0118563297227802
0.00632936992962434
0.0107395696127433
0.00867961816661459
0.0286876296219029
0.00995837192205769
0.0105404933142588
0.0107632854356663
0.0100018064051327
0.0103618182346436
0.0106146655143905
0.010254784062199
0.00974367228450309
0.00916680467551245
0.00913218011733938
0.0114569169721421
0.0100762558484793
0.00890395327606952
0.0111358995516714
0.0120953066144995
0.00939870187977432
0.0108747812250079
0.0100528498246527
0.0126242496680545
0.0106473558472161
0.0186830473046682
0.0345283090337547
0.0209254312941139
0.024242047256148
0.011600182690205
0.0143004078272123
0.00841395795786187
0.0127511789351132
0.00787990537400729
0.0141196526739826
0.00965713097329656
0.0133894833091846
0.00685559567956288
0.0118238153696319
0.00882768611663634
0.0122053208203929
0.00774170267030273
0.012528026543708
0.00819841675834247
0.0130095634810427
0.0075939277236705
0.0124216176220626
0.00639742952308581
0.0162937401218557
0.0142020425427504
0.0131659472851803
0.0101378233252732
0.0177617194027678
0.0449651304352019
0.00784603963454635
0.0193802265710653
0.00560334200497778
0.0116924481612317
0.00881206717574872
0.00960807595098119
0.0138340318180111
0.0115960417562202
0.00612424728546589
0.0119426634759558
0.0098322257988322
0.0126630646461893
0.00863170717722745
0.0166309943621231
0.0386366063811746
0.0196692049574558
0.00991837356015835
0.0132459891717607
0.00902357478177583
0.0364089172915025
0.0151519030374419
0.0124358641635432
0.0121733234308242
0.00984897978586706
0.0144270401635604
0.00875962846757209
0.00980968075098016
0.0141300328611646
0.0147391580339297
0.00849082896487594
0.0129653638127551
0.00753103673211445
0.0127515934133636
0.0129052206611763
0.0144770672385626
0.0233828355412451
0.0118551772503644
0.0146536030858875
0.0158230292359525
0.00844058412088489
0.0142887605734887
0.0114064838908231
0.0113527843685356
0.0120480564501332
0.0240445466659322
0.011736497544894
0.0221123299645768
0.0237330908038611
0.00922559213943994
0.010016471925192
0.0190997359526929
0.0147255954835137
0.0141567401352639
0.00150947731919459
0.0497047035419178
0.0192067116602311
0.0340613396919197
0.0105517559181831
0.0152791309504123
0.00925922683733006
0.0112239017139496
0.00487080939833981
0.0214085139352083
0.0191698360296003
0.00896427555032376
0.0155541592351503
0.0102797506656843
0.0266275673238416
0.0115553063856188
0.0158708852853167
0.00783267853591019
0.0130587302239395
0.0181508998337267
0.0244869640911952
0.00240348280210962
0.0372877547993361
0.0380935892892622
0.0288165373694461
0.0279563868822482
0.00601532010116671
0.0392517066752671
0.023725221465876
0.00891335727746418
0.0141052578196798
0.00969704838887576
0.0123250682792331
0.00523114145982242
0.0440222598393613
0.023546657126658
0.00978140565076686
0.0199271346021257
0.0116537732122169
0.0345942140015958
0.0270129275200183
0.0127569310528595
0.0154681784007108
0.0130742119159174
0.00961217808950092
0.0399346376767595
0.0468606272560807
0.0106786631288538
0.049698753655239
0.0227289236864843
0.0347988801201873
0.0187787381822435
0.0216425670489052
0.0234156705434626
0.03534578278899
0.0153978457477548
0.0124459038535947
0.0182283236196508
0.0515298269109069
0.0138377907644878
0.0220675309970099
0.0168375024731182
0.00848286010305858
0.043557199001436
0.0811138702881553
0.0415848341318163
0.0285030192438877
0.0175407280801676
0.0363216767698138
0.0239337346215498
0.0169094608281239
0.0169495620877883
0.0146739272020224
0.0174544581332146
0.0164932725907102
0.0210861608991131
0.0209173516603486
0.0143464248675451
0.0226702733766693
0.0105721560103289
0.045299027122179
0.0491133292378846
0.0646416097084216
0.0224612104175169
0.0421029865429452
0.0403226382134916
0.0266034704282693
0.028086602197736
0.0180791907049027
0.0281468580825478
0.0233748981272829
0.0216605192715302
0.0234048910202957
0.0302899589012689
0.0437291523777156
0.0281372192501684
0.0520180969807396
0.019066387960341
0.0304451627441445
0.00711918974102718
0.142618401047038
0.0622935100110743
0.0258922213794584
0.0373658894093109
0.0120547709493366
0.0985949618036556
0.0374253301272374
0.0224370347798452
0.0221391362868383
0.017474089142292
0.024744370428579
0.0325884300168456
0.0265058357885004
0.0341539329435071
0.0294851151808452
0.0192106862056842
0.0214242395249955
0.0998107124329821
0.0714659678176568
0.0533347113950924
0.0234199639453293
0.0436731357410354
0.0402013578287609
0.0273486343704655
0.0221432094378139
0.0292779445673737
0.0158259315944748
0.0863330058895098
0.0293801447444572
0.0315042665575756
0.0223278510849791
0.0480833563754221
0.0246990013857056
0.0586384103334666
0.0669273882088687
0.0253880449331382
0.036040752038401
0.026037153510878
0.0368295306334025
0.0220403436568198
0.0564009213476427
0.049075722414189
0.0302125940125197
0.0297634909525679
0.0273508399520627
0.0310252480345927
0.0282509601392279
0.0390826800552479
0.0264596493563114
0.047983856628448
0.0611219487801887
0.140038194037307
0.075509624560442
0.0315938265652055
0.0387170359063874
0.0227108669504482
0.0646026191115095
0.0455161896781662
0.0672901084779002
0.0676543832905839
0.0270322779866784
0.0316517010998952
0.0246013317232461
0.0326697635894363
0.0267993497848955
0.0342334606538859
0.0270123774209643
0.0403061081139929
0.0329650177499023
0.0326813212944322
0.115356366933139
0.0327815660359043
0.0296585600286646
0.0201785478360517
0.0199084866045976
0.011166377675557
0.0226024890098485
0.017357937897635
0.0429372970120301
0.0164265664491199
0.0226847491600633
0.00971122482055912
0.0325011772008258
0.0498699605847518
0.0162903855103984
0.0177735479041276
0.0174896742850657
0.0186128473193469
0.0134141417093162
0.0117095854122122
0.0712684930793226
0.0171681197978465
0.0156941334775566
0.012408454399339
0.0117067901576749
0.011466079384217
0.00942826795343589
0.013447098927625
0.014554567467791
0.00869053052807972
0.019144076007556
0.00962239885091595
0.00945391312585454
0.00504211005679376
0.0133635609241007
0.0151327570420676
0.0100058313270372
0.010223271905881
0.00954844181975709
0.0098238018461839
0.00465055681265477
0.00614670048201996
0.00602750607784637
0.0063006641148462
0.00853673177132441
0.00439143377080442
0.00461829310487524
0.00288877518211111
0.00417425130008317
0.00509587571718806
0.00198327112012122
0.000783507025580511
0.00175896874475821
0.00420398176443184
0.00160845942755739
0.00256255632831504
0.00124404618810879
0.00352654498636746
-0.000567933190450983
-0.00233183110028088
-0.00494878354035235
0.00586413212041082
-0.0112701131969858
0.0268386548620455
0.0368333294077433
-0.000711699052388889
0.00651481804986464
-0.00435573810522539
0.00276563595714993
-0.0101905381193749
0.032265784748478
0.0265567562786426
0.00149083853585371
-0.00227646648125046
-0.00462999764637549
0.00726531458429732
0.0167129552787564
-0.00679262269810094
0.00340669420244828
-0.0131454636923304
0.0256001102626986
0.0679447566012316
0.036196303037933
0.0828178243357219
0.0215299417855153
0.000274224168971995
0.00995605294671729
0.0434696893356646
0.00202771195677916
0.000412588241443358
-0.0064112119308012
0.0115172563786565
0.0195153536447874
-0.00235398219670762
-0.000998826427654535
-0.0115432282956183
0.0100126094627595
0.0316887523771064
0.00830190218843925
0.01410883727515
0.0415177115886086
0.0139247450927274
0.0336836152159937
0.0760297878118922
0.0358212503003642
0.0039623073770537
0.00248747423644814
0.00324514563742307
0.0103099759735345
0.0416825478316575
0.0178432388915515
0.0135072444302123
0.00832473604763515
4.68461187217772E-05
0.0147105863793584
0.0242417299417475
0.017984571032614
0.00748784474210063
0.0431093927587337
0.00880991790753403
0.0170362407775474
0.0347195381332314
0.0440058549467403
0.063481477992939
0.0244848677133906
0.00704416580521561
0.0305402133377782
0.0541604376050436
0.0263308904788375
0.0296242568686918
0.00890022939180142
0.0158908212170099
0.0373579659943511
0.0197776821280123
0.0227156652841604
0.0385636505164443
0.0433929115462443
0.0646703016605782
0.0751026939523968
0.0685428998197475
0.0380098358824508
0.0137425862756388
0.0195380830549803
0.0216907436328491
0.0237081041916808
0.0148386188804672
0.0319809416884831
0.0411549689744245
0.0198862982217511
0.0600663151160024
0.0364121326622035
0.023894151587407
0.0282341900588274
0.022371537050725
0.0287056861848408
0.0577906195750154
0.0719528729251574
0.0438934852564874
0.0336003768262892
0.05067738991128
0.0382272522672055
0.0378170664125639
0.0353819384632438
0.0360997170588869
0.0353113981557684
0.0460747214609524
0.041689633202095
0.0395332443770694
0.0446906342289683
0.0431314262956297
0.0638563007779326
0.0767794819674333
0.0471801407398179
0.0734335669734587
0.0789546057130194
0.0898257567647672
0.076945269321156
0.0586335971331425
0.0633344826400723
0.0563650097354097
0.0660972092602089
0.0635517884336009
0.0696894803313128
0.0986295192481167
0.0750121604321337
0.0725720885709008
0.0712933871087475
0.077385428349777
0.0781877372431333
0.0951327754772498
0.0921556776709223
0.120903395696463
0.134685813099583
0.0966043152234022
0.0874396329525845
0.0783354862868229
0.0878043946409108
0.0835256617847325
0.0802846313905807
0.0756574991949541
0.0831081195847899
0.104875034742378
0.0886007267747613
0.0800110078628802
0.0799664094156344
0.0815179524764229
0.0843164008823202
0.0862620360481454
0.0844584897025559
0.0818430892601747
0.0878476325847559
0.083779919252434
0.0882414668848999
0.143775583686631
0.108564389612066
0.0912909882716081
0.0937704213706856
0.0946680868585832
0.0944564323736934
0.0853770474935833
0.108589499624103
0.10498263272466
0.0944364764443115
0.0949568947817108
0.0948518247485399
0.0910498323777421
0.101551931292932
0.115750848969868
0.0986818723923916
0.0997863870998515
0.0831720552592578
0.11346528247214
0.146243952485459
0.106874883166819
0.113278454181469
0.105422513287549
0.100173718271119
0.0989425716246242
0.0956905669426819
0.0963798599936705
0.094513258330034
0.0951499283551045
0.0958673646505087
0.0929867965891838
0.0936081226770822
0.0870421887420186
0.0938586859925526
0.110061071080177
0.0974610398854391
0.0889315697600434
0.0928106902450782
0.087421098562543
0.0842204479319254
0.10400192753534
0.104371121738113
0.095801090853957
0.0903085413348005
0.0887054231413946
0.110830319059249
0.100813746084275
0.083012313608389
0.0836278642515241
0.0841506400185525
0.0843367908276371
0.0786488389647287
0.084643334340672
0.103702645115819
0.0947106420653068
0.0857488322729918
0.0877897218055984
0.0922192491209923
0.0935806753420704
0.090164335853993
0.0934289775975388
0.09732584559593
0.0992976297335806
0.104740489547513
0.0992664279880273
0.101955471613429
0.106533708647728
0.111986212848804
0.116502667026628
0.106559888587498
0.104625102373774
0.10290173542247
0.105789486528817
0.109993261072697
0.106130104874223
0.102905025404359
0.104832888895875
0.0984143439388491
0.109315651186836
0.126069847720622
0.111531681085534
0.11719865674276
0.107906753611364
0.0988059774363009
0.103631820350169
0.104074856175146
0.0992905741820398
0.102810784525831
0.102612036812433
0.0984936047689512
0.0986275494607768
0.0989148466992767
0.0989328886627456
0.0989759973981177
0.0975458565328336
0.0968057205444143
0.0973825785665354
0.0962945302475022
0.0949220318090778
0.0920420478889312
0.0947496143019202
0.0957860809632631
0.0943973268856716
0.104042093229496
0.109607729599365
0.110202303181202
0.100525602990022
0.103235528677393
0.0971619683969414
0.0924231925606742
0.0934092394579502
0.0935070874899891
0.0945209402809664
0.0946559039621291
0.0922635263797643
0.0915614118539541
0.0919032018933409
0.0920594792626409
0.0919834265205524
0.0907224784875927
0.0903076747488982
0.0898019553205903
0.086498001626389
0.0855055349917042
0.0861602421006692
0.0846374698893922
0.0868458456806026
0.0880331586706838
0.0881902071542285
0.0855461287602936
0.0843916434359271
0.0823264367743181
0.0844694792420792
0.0857865971901772
0.0823302061985089
0.0822460443678714
0.0831747161122052
0.0824180873133203
0.0815490758725999
0.0840227137411459
0.0831010937384467
0.0781638163141998
0.079191673604129
0.081913715291964
0.0784870122530875
0.0755823384673092
0.0756448779197644
0.0784339445159977
0.0760337701594894
0.0730722758742655
0.0729508549375252
0.0718512924011677
0.0732891670206712
0.0705051531882376
0.0719049169464234
0.0684420948796599
0.0675762642875229
0.0685854538267901
0.0653740442268383
0.067651236096677
0.0676451781425725
0.0642068009817391
0.0670875751668502
0.0676117075877603
0.0644686795539143
0.0652567115477685
0.064721289271473
0.0649889333226426
0.0643594626897739
0.0631574847975091
0.0653422063499505
0.0635717570006178
0.0623658955197119
0.063474418409198
0.0636166745151158
0.0634581326619462
0.0654170836302262
0.0668951209287954
0.0663370899753251
0.0661383904723125
0.0688733832490534
0.0664211507367376
0.0662339481577811
0.0684811129737456
0.0673035866571802
0.069534097019412
0.0699194532720732
0.0697157275281825
0.0697204749785671
0.0727022390440127
0.0724822316389525
0.069073035808432
0.0700621266856316
0.0718013649535722
0.0734362876471057
0.0718282901920308
0.0702795951599272
0.0699695446490509
0.0712171249373761
0.0724523175383049
0.0704339848037304
0.0721689229823577
0.0725813942807536
0.0728165134839838
0.0706834592766823
0.0684752466622528
0.0709107685250217
0.0716913402238137
0.0728483619018719
0.0712105437944456
0.0696182956746124
0.0723150082743042
0.0700548928351626
0.0686383426164783
0.0687531917236551
0.0708809159787658
0.0704589546071553
0.0693068594834834
0.0702447317763776
0.0707473015423478
0.0690317286907205
0.0686317536719603
0.0681614708924456
0.0696576772712261
0.0685055303110745
0.0672945313460491
0.0689573037766895
0.0686013646446996
0.0651291818885067
0.0638614717134789
0.0650880755086821
0.0643528469455078
0.0627475478475957
0.062827260627407
0.0649848309920323
0.0632818902517679
0.0621012258885361
0.0621902684715605
0.061768653288132
0.0617032600901443
0.0630390925976113
0.0640331722950182
0.0632830941767334
0.0624900488270498
0.0628177747028053
0.0618816550813244
0.0635845816683826
0.06312215691814
0.0636183361675717
0.0647483158580944
0.0645101841666481
0.0646265738750279
0.0646390088466749
0.0643615336145127
0.0651920339803019
0.0637562320434514
0.0620151813304304
0.0606397324818383
0.0615677827233106
0.0616512286865036
0.0617150015288115
0.0580384724303376
0.0585348421516173
0.0579854377533728
0.0564733052784334
0.0557472422017247
0.0550882288308945
0.0544330032820869
0.0535248846012564
0.0553807167509057
0.0552987640849628
0.0543913685903146
0.0543986423424346
0.0554527830931462
0.057711532130536
0.0582357375730871
0.0605093005856897
0.0624523983730243
0.0648050603036235
0.0674648842375079
0.0707694701830732
0.075120531943496
0.0783022502433342
0.081752734877064
0.085697704279672
0.0906768227444648
0.096780154955183
0.10234344641
0.107336550184796
0.113794877763725
0.121360459019605
0.128753845873083
0.136786289748489
0.145281328036834
0.154418549025254
0.162022752195082
0.170573845123076
0.17755551205017
0.186468089836342
0.194811190685047
0.200151758998779
0.209287275498488
0.217286222550804
0.219665444031117
0.226062102978294
0.228195570808641
0.228383176448769
0.229828339107282
0.231521336526919
0.230204533113734
0.231325495529566
0.228230624200955
0.225272871660936
0.224383662747497
0.219470639122501
0.215115772084122
0.212476389746409
0.207604796204196
0.204288764692492
0.202209214379672
0.200656019205266
0.197757759751722
0.194581902320194
0.193786491472896
0.193043109702103
0.194100324628881
0.192154755812333
0.19140957313849
0.193982062350836
0.195435490634675
0.196142813364041
0.196553870625311
0.20121030890312
0.20313894142058
0.204354177641284
0.206751298106757
0.210851320843083
0.213499676529185
0.214882818824966
0.216950305175383
0.219744092701006
0.221654967519841
0.222579955704093
0.223916886202626
0.228301558779021
0.230563259968692
0.232215947764047
0.230258920193543
0.234879798231191
0.238556923845368
0.238347610564374
0.240637288989864
0.241375180110624
0.242059196286634
0.242099214024141
0.244350897264306
0.248993618392714
0.249311445623203
0.251548438335294
0.252861683646218
0.258370788979174
0.25793496410108
0.256171562006114
0.260015746067775
0.263968355355962
0.262462884775194
0.266212726084589
0.270520379647191
0.273734705636251
0.275746382811869
0.279541174086851
0.284877529155632
0.294020883284029
0.303596348805166
0.310075055746225
0.319722296502995
0.330016496520815
0.338144478515784
0.347786058074591
0.359889553469862
0.373506589792025
0.384111657273865
0.392197912689096
0.399192878536172
0.410251925148653
0.406751051851183
0.409475402263992
0.410428469852659
0.410517466155622
0.407997127364563
0.400640479320878
0.404024546167826
0.402750868508084
0.388938588942066
0.384153416027631
0.378780061696737
0.374342921972609
0.369641175980212
0.369300227104804
0.366484234186071
0.370756127039104
0.36773122218094
0.370266719733356
0.374823766473454
0.380446363273624
0.389031789218822
0.393821591487399
0.40055005597794
0.405277890127476
0.410760337060488
0.41749630563045
0.424710731357385
0.43002329740221
0.434521078412435
0.445181559858918
0.448906948552087
0.453320811886244
0.45881698928866
0.467457476626059
0.477044000230228
0.479349963646563
0.480038451077223
0.493585757502347
0.500327414375839
0.508459160719347
0.517109432768079
0.516577918869147
0.527942675281039
0.525023704209649
0.523423920968227
0.530484449626411
0.529273184208437
0.547128954952914
0.547719029236128
0.556872171714768
0.556598011094126
0.550199928725063
0.560227648985123
0.566689042868505
0.566206501365241
0.578911859777859
0.574862019661793
0.565658147049751
0.567100760488188
0.568959127059651
0.568000897277868
0.56427104529406
0.555058809936928
0.539356856514513
0.532126629624006
0.530733076397423
0.504769589603333
0.483211278055646
0.471018034840558
0.451923751082822
0.436481271537262
0.421622728661142
0.4104565129847
0.393494057410005
0.376821176719778
0.370381146573304
0.361597984280352
0.35170740753481
0.339763723595711
0.329942559208902
0.316086025591488
0.316580089334778
0.311761166526762
0.301162139502809
0.293769434299175
0.290105318179633
0.282320321345381
0.268409801262796
0.261356210896636
0.257119983080912
0.243891242222492
0.238976281032637
0.226139504093188
0.217753685277382
0.209087002255703
0.194107635531226
0.18301856855617
0.173311881848919
0.160555235953854
0.153912077157585
0.141257262318701
0.132590050890263
0.118506490993042
0.10503350649697
0.100286389952874
0.0898917172808874
0.083114729796402
0.0738398639045038
0.0652223377423007
0.0633551334481372
0.0589508175957434
0.0543943264424885
0.0488160140600921
0.0467073754773228
0.044078792273863
0.0382787418181712
0.0352516878891186
0.0354985533329813
0.0323158393341583
0.0325442298128176
0.0306109384627369
0.0307878510719614
0.0281306881282254
0.0277033381947773
0.0244774652172619
0.0279569245693113
0.0250723029230381
0.0256525725183717
0.0228934672169894
0.0252107692387873
0.0266468090293665
0.024086554258533
0.0232645169964486
0.0276346201484915
0.0256014852569747
0.0271370627368121
0.0290171261780749
0.0287418349231316
0.0286663002136083
0.0309440531214934
0.0302851270115937
0.0348304323184351
0.034990485253278
0.0338979268986965
0.0375263806127419
0.0423487200603895
0.0410177541851275
0.0436581412982277
0.0427377100894666
0.0480074524521647
0.0482861381015076
0.0475581840360403
0.0481388196774494
0.0503017514886086
0.0486759839497296
0.0490909270582846
0.049644111850981
0.0552188386382868
0.0539607850009833
0.0524764568346107
0.0594822885323239
0.0590140259874345
0.0513313425548259
0.0491426326948753
0.0500288378035798
0.0534997353785574
0.0495254769652941
0.0485246922896896
0.049847227696233
0.04787620376553
0.0475110110203646
0.0476073038890829
0.049417012149097
0.0477481186892573
0.0470634476267977
0.046086559849602
0.0463652771194809
0.0451099408498455
0.046129749902085
0.0426121181475217
0.0439061056664533
0.0426575743231802
0.0415716078642671
0.045450454962513
0.0449110778727894
0.0459814571471283
0.0438867328019534
0.0407380581396477
0.0440106658959885
0.0433606818784851
0.0443932489717483
0.0438973742666764
0.0469212390748227
0.0465863766112117
0.0451562227532182
0.043789079819303
0.0454706434129161
0.0463505371804374
0.0426301916545899
0.0449899205098841
0.0408183156288186
0.0443775204162085
0.0398970529538001
0.0401618916123466
0.0379740231737731
0.0380790961857551
0.0282390874708984
0.0310047265459593
0.034632201233918
0.0286073721135621
0.0309876195501055
0.0323465785492655
0.0264985675758512
0.029986527724783
0.0317376218880379
0.0342575760365295
0.0342360398148767
0.0351031446186658
0.0305676120334829
0.0381300320063925
0.0391883122576393
0.0325178526304271
0.0312108107426062
0.0395518446820821
0.0385592421288556
0.0293794959747042
0.0394626538885642
0.0397055303305225
0.0385491480886646
0.0301075998877483
0.0329370139157622
0.0433099508351658
0.0470289873890971
0.0401137378768353
0.0400846344924726
0.0467717537769774
0.0487657680233545
0.0391043092183476
0.0301701382094353
0.0402387428334418
0.046827406400053
0.0406341672934566
0.0452377891591413
0.042336382790483
0.0456301987939478
0.0404937676919378
0.0329591380909334
0.0414175793453717
0.0343638705115975
0.0330151971318997
0.0420176635256583
0.0415250482436112
0.0338951895578095
0.0402479649563862
0.0346247911912604
0.0360100826628706
0.038903184442968
0.0344314997554739
0.0340887795734783
0.0311421583759019
0.0312265690473031
0.0341450935527009
0.0346454032321076
0.0304994559501496
0.0257818387321002
0.0273540763463175
0.0357637859578297
0.0349306023791007
0.0297759733562767
0.0231735448690475
0.0256308754085848
0.0344609898822735
0.0257745549711256
0.0247122268587768
0.0255002020045063
0.020945796002241
0.0317311525203883
0.0353903788639389
0.0278983122671364
0.0294066287216312
0.0198769718568643
0.0337234867231229
0.03412465676131
0.0412533079475967
0.0258065119339801
0.0207535020130554
0.0308869466022063
0.0407064044517765
0.0395948268813134
0.0378851289904425
0.0288104508258602
0.0378319807760691
0.0319055255388298
0.0399391423744098
0.0373652529455165
0.0350382457452465
0.0352179048640013
0.0296438964010662
0.0381195920611029
0.0485111851081664
0.0441577869039467
0.0439367284131288
0.055915446947283
0.0383101645217394
0.0376722637860532
0.0459759182136183
0.0530455628659099
0.0558555321619556
0.0627464270241772
0.0652479573575627
0.0621132007481618
0.046406774673707
0.05039769515793
0.0544719715666353
0.0523120398946565
0.0609133960353284
0.0534350768202371
0.0544499318840353
0.0676367736211896
0.0629541295175044
0.057532011576256
0.0471288953789298
0.0579524775613848
0.0581736585091185
0.0510570025841378
0.0493877083239915
0.0546902854378869
0.0693282797125702
0.0585588171327317
0.0659201228783926
0.065989502830669
0.057866107440054
0.0768997692642365
0.0769299868809883
0.0675319520464206
0.0666390155609404
0.0656235530779082
0.0707541007895578
0.0612832711111864
0.0774068864935694
0.060881410163665
0.06466816394216
0.0511173756600481
0.0678435382179781
0.0565199139129228
0.0721206600057596
0.063624364645961
0.0664421638743901
0.0656428127436887
0.0748197838836701
0.0633962262490108
0.0598245720271989
0.0385887856833594
0.0720978497058698
0.0592711972502116
0.0714171505404591
0.0654637954194868
0.0552261003137374
0.0701698710217083
0.0520509803950749
0.0575969647597959
0.067491662556825
0.0547593853224765
0.0556263264566359
0.0545152363389622
0.0786256640213633
0.0611074381782919
0.059678809934729
0.0452899066409505
0.0631821105295673
0.0711730190580347
0.067868000823788
0.0614436700961817
0.0571602157684203
0.0652582380308033
0.0571126154691105
0.0492943501915344
0.0582419057267459
0.0437239092480072
0.0570942947882398
0.0433470525898045
0.0739723102585398
0.0838304489898873
0.042117796616544
0.0666002370395235
0.0910014157917748
0.0677785224225678
0.044182457111876
0.0495925292730749
0.0687933011637524
0.0913332186259306
0.0833418408917448
0.0984452561529089
0.0987408912907822
0.0769850163821535
0.0956453307042154
0.0962795533289358
0.0625171050365321
0.0557060778425786
0.0589315217053072
0.104477722021396
0.113986650258787
0.105180969663941
0.0912631680929618
0.0694727866297429
0.0805502952136689
0.0774382397244856
0.0758464585025771
0.105149240448647
0.0924374712908387
0.0692306135858578
0.0605378180204594
0.0689736957038979
0.0915744438884794
0.0964598335179787
0.0983226944785795
0.0997105537254433
0.103925480417709
0.0688609798135558
0.0937210601293243
0.0258890713882982
0.141458523950594
0.054944202465627
0.1245558970683
0.0125574895280716
0.119565871847566
0.0280636265580024
0.0499089587047759
0.0577875491409045
0.104628502807133
0.0456076332059517
0.11423589773662
0.0627456641536889
0.067810485163402
0.141493062581716
0.0954159878972147
0.049219982646614
0.0546829477192829
0.0775687998208804
-0.00512492540206099
0.0364218243616077
0.0867817978244327
0.0818905137580726
0.074600155165114
0.00215499417110009
0.103222376768738
0.062343077275898
0.0540911317981718
0.0942186305225296
0.0703355486887527
0.0568097481409598
0.115095296411418
0.122453836975286
0.026357649455796
-0.0452037189285235
0.069843240531816
0.0909264309110202
0.0460526036365882
0.115840150371745
0.157843433620537
