3596
4000.36533379555
650.420452594757
1
2
2
0.0638193227605291
0.0736351734086368
0.0662741896502489
0.074792096498196
0.0726756707785972
0.0791983777181845
0.0786111038637898
0.0695114155609732
0.0621964145903497
0.0775809694731175
0.0712911123471218
0.0703045810943935
0.0679565978865052
0.0727707310927434
0.0661672157100391
0.0746765382788349
0.0701770356905953
0.0741620984071032
0.0743947580194066
0.0746255011730304
0.0666976641834124
0.0706175195987236
0.0681428483691949
0.0783271368724186
0.0724871729786592
0.0775241677850637
0.0748927951020536
0.0757457122969359
0.0703672385094976
0.0795600283881685
0.0658057258542818
0.0702655646670206
0.0593905642542277
0.0734163835174671
0.0672539685169275
0.0710950436233933
0.0704563667857098
0.0744275938177618
0.0618038325012888
0.073678600576421
0.0724070515926047
0.0795757080825942
0.0748659862139108
0.0751321579872723
0.0686528425483012
0.0746273276428758
0.0745668162209973
0.0680613009271503
0.063038411390799
0.0777716783651818
0.0743548541833038
0.0720067978375738
0.0774380741675416
0.0832554457195549
0.071177514486222
0.0799290574962696
0.0710441070698318
0.0724602235001747
0.0758851512873545
0.0744277491572709
0.0872363067221092
0.0857565071478925
0.0795308291857335
0.0780553935811762
0.0726203354680225
0.0772343336730976
0.0751239489486095
0.0728840500813245
0.0673903970278036
0.0751892727131834
0.0590213391581272
0.0758659768621099
0.0850221811172125
0.0807735013419514
0.073677099314827
0.0766380076949521
0.0668337181618214
0.0676201234127792
0.0639075800990438
0.0748456748169694
0.0768790604780168
0.0840354670087915
0.0711946460269746
0.067093185423759
0.0658602155927864
0.0844227317231251
0.0616192596069074
0.0836538856792928
0.0859105194478376
0.0788897089669611
0.0624198549889571
0.0636010653689246
0.0580498251807679
0.0673214255170822
0.069492457144533
0.0684953541701164
0.0545901722692247
0.0738438139161195
0.0554268740328663
0.0823497611639402
0.063154748492201
0.0922165381146139
0.105379719601227
0.0716431656341802
0.0985880312748334
0.0783037107318309
0.0673354277288658
0.108177129507005
0.090528916063818
0.0768212403384084
0.0671385497848217
0.0679771718080544
0.0713790054873366
0.0748141108936812
0.0596482887179476
0.0896074655821325
0.10027258847241
0.0798104568866855
0.0634319225173936
0.069981734930482
0.053920835328335
0.105719544130573
0.0946934817018108
0.0708719827330578
0.0715970020515107
0.0739354772758694
0.0615406106339673
0.106529674804498
0.0973585349946396
0.0732138499926896
0.0547866304056475
0.0693523665224985
0.0535644106967125
0.0705023632944431
0.0939134921158139
0.0861224770338044
0.0707549560240524
0.0656984696155773
0.0917411075049771
0.116499007887936
0.0873388702348938
0.0769691304781584
0.048924199572703
0.0701860634609775
0.100065061465688
0.0819554455864702
0.0604478883777743
0.0936713624948541
0.0675112023659301
0.0693145654739797
0.0605566796868852
0.0675209812271886
0.0833757014475403
0.0750310487953908
0.0293490004669477
0.118061840866237
0.103044946429436
0.108667692653253
0.101575831673152
0.0845367041676674
0.0677604591012551
0.0747544264943398
0.067483314298382
0.0647339961367613
0.0615958730216129
0.0592429549814426
0.0783587218148106
0.0912319503461177
0.0668834794084693
0.078379241911437
0.0978774453364297
0.0729601105418761
0.0683398444517238
0.128342768346321
0.0771418231296299
0.0776964177977948
0.0907776893881438
0.0854145335711197
0.0611230676155478
0.081287777014384
0.0797517865092469
0.0784259106936695
0.0655557693877876
0.0699149930855168
0.0707019183226027
0.0846926133934396
0.0671833061983098
0.0704022899675878
0.0632060562219046
0.0595578603541666
0.0708846611145692
0.115865230863283
0.0830809295643305
0.0842416192460103
0.0679297850270695
0.0524337446758219
0.0954424320499524
0.101107762787757
0.063883911744398
0.0648498210957923
0.0607439667406581
0.0635935453964741
0.0559327712806374
0.0740769477955674
0.0491000397446953
0.0554114163009882
0.0972862975641846
0.0937733892370136
0.06364637621715
0.0708397890668234
0.0636915237770439
0.0661950779698996
0.113164311954151
0.0897762658318761
0.0706609766657646
0.0724363138528549
0.0646429637509077
0.0956594742209162
0.0789841408618949
0.068556204422375
0.0674814133210191
0.0673857844695305
0.0687061001167061
0.0678205975756038
0.0588098925856765
0.0670569659743905
0.0604291648327941
0.0680993042542924
0.0662374952210334
0.070466624929181
0.0735052976131043
0.0765459123450431
0.0647146981946318
0.0697257168161251
0.058308305263804
0.0851687287460603
0.0871666041976445
0.0787723920499695
0.0693500909099029
0.0746905657061574
0.0667811182784746
0.077947319091737
0.0614226038170725
0.076544343190624
0.0588899866384564
0.0785845134558008
0.100973655734324
0.0881860377910011
0.0705256733344021
0.060380022370542
0.0805370742683751
0.0824762275445192
0.0681140337719211
0.0710914014383144
0.0709305270325621
0.0569485897834612
0.0677991972945627
0.0847782522389427
0.0779574422528185
0.0698249874839766
0.0860967243911844
0.0770552241233479
0.076927703839281
0.0599643146633987
0.0753804964848919
0.136295967857988
0.0803498424757732
0.079343193571176
0.118968839457193
0.0913667904462706
0.0945862189578055
0.0719133664491652
0.0496597301917101
0.153541602905981
0.123745109994487
0.0755723876761181
0.0761339497736704
0.0898925622795364
0.0678984650972839
0.0875268955529928
0.0776121162132791
0.0975279638596764
0.100195487444686
0.140133386480721
0.105954901829457
0.0788552458870398
0.106525881743178
0.101911250143931
0.0768048970223979
0.0768735797838192
0.0792115990237566
0.0729614711235896
0.0867301904427504
0.0918100355079966
0.0974732754780264
0.0741472272926564
0.0843445022711899
0.09981859421766
0.092867349739575
0.0752198336822581
0.0900687116727847
0.0874558631221005
0.0777680249121709
0.0784770176778666
0.0748717752604681
0.0930922844082506
0.0730971798492775
0.0908899759137506
0.13167397277913
0.0942260151383061
0.0904586434560464
0.105316089663397
0.0901736634988426
0.0807113402558044
0.0805167499231385
0.0798836254292748
0.0815478904591294
0.0769031464333688
0.0893293338237657
0.109309228464017
0.0897377495479382
0.0891330496562871
0.0793365031526464
0.080890845720407
0.081932188693186
0.0903003771112635
0.0844208564630814
0.0911979418659276
0.0884698167617934
0.0820091463318363
0.116991413298796
0.109468083891452
0.0803588293560732
0.128157156480852
0.114139598231325
0.098834232747148
0.0865659845680126
0.100975960455902
0.0950269480625684
0.0991964300691468
0.0960284607063994
0.099538219880711
0.0970290851029997
0.120010988332149
0.108652920440961
0.110063456494255
0.103287027020093
0.179116529968668
0.149666159406752
0.130084381429905
0.101892315098059
0.0997891754666801
0.14834806214215
0.135417024450872
0.136654311202669
0.136335506355847
0.132241509605208
0.113736594240689
0.117810869696399
0.123257995685538
0.123631612061361
0.126433400531197
0.121160590708431
0.130104530560067
0.135338963742562
0.14232270114436
0.125957855050655
0.14573945728281
0.169536894419233
0.150404066571451
0.146069320658163
0.145298051551547
0.134498862301654
0.177325908168216
0.173984364650439
0.208417644173135
0.169183932364231
0.205907576710252
0.190702060815792
0.181901432848085
0.15852226853596
0.173195923830559
0.167954078299983
0.182016611243317
0.169323242856767
0.184401676006582
0.1723222142216
0.187858109667035
0.170946203549769
0.184499420682722
0.178503831064493
0.195923569138955
0.207239487134916
0.210549046349387
0.195932963400621
0.20207907886087
0.216511228939832
0.265431158851272
0.254061586546043
0.222632077358567
0.227289092454615
0.218259189881864
0.217671173047921
0.207762120860253
0.233167904399576
0.235841782282132
0.233544711478373
0.275120932044769
0.248470556062691
0.279690959358392
0.248733358406806
0.249887178136824
0.271051454825357
0.271810088897339
0.282500968274262
0.30488122665643
0.272617042073962
0.264330429441357
0.294963956890881
0.286349203973799
0.28945439067155
0.298328155968029
0.285721779356885
0.291976324846557
0.286391470632357
0.30858510053082
0.292912069301543
0.322483930533077
0.311463096975815
0.308717850780853
0.306929662370681
0.327260342647982
0.313001119540088
0.342283877498263
0.334280507049077
0.338810341104807
0.331154795701074
0.344430355490462
0.336084099161342
0.339769415423214
0.369114237454823
0.368727286633005
0.388711152032416
0.392850259301373
0.362649822257851
0.364654877494531
0.364310999498555
0.377407426910324
0.371477791218184
0.397694430976399
0.401160118007406
0.400210077745086
0.388531652265648
0.408837128077212
0.376948272529184
0.413549206790068
0.408551228792076
0.430140526093328
0.428394634675022
0.434837116092413
0.413162504393752
0.418903551350366
0.456067178109602
0.47281924888427
0.495549317688504
0.493221773946206
0.457611294444595
0.475837961106752
0.459691050736736
0.476739076867297
0.452277758693081
0.494056536993594
0.474664106829135
0.485280597527479
0.483343980489402
0.505025855611425
0.473929670471147
0.512622642441853
0.497489036117764
0.53780684276219
0.50735976019757
0.521968338339385
0.515160579228445
0.519653908641914
0.524415707852375
0.552111191414972
0.525891320513462
0.556389147358745
0.551481347044472
0.542817809195134
0.541319433229929
0.617864983522484
0.540954020522637
0.620815436231909
0.585109141239003
0.568708988819425
0.576647985959252
0.616804385181407
0.581261514994973
0.630533560173203
0.595289823199355
0.626071992062878
0.608464479627732
0.606531305396331
0.59739047693776
0.631407760694564
0.602535695882357
0.653590533582523
0.630025295786446
0.664096753297
0.639535487410251
0.683440193159654
0.652477729692001
0.703984331479472
0.658006566428274
0.71817651800709
0.657591021029734
0.663133943630365
0.686415863272906
0.706281801566398
0.6344456808677
0.694726658707758
0.676310650026526
0.76013441876871
0.70758709216289
0.739543420178568
0.734641591511426
0.717382013872146
0.721537373690759
0.762355621416081
0.683871527826185
0.76289241630867
0.73230592987355
0.765200087610377
0.720619233075226
0.802029203977314
0.746740762109173
0.803651013588522
0.750432946955255
0.841200986367927
0.781092201424192
0.83690943567249
0.741380281483583
0.849536575611261
0.818723193502232
0.859485949689739
0.796270054309436
0.849504313990197
0.816533505031566
0.841852647409076
0.787137665264753
0.828120682404148
0.85421241003904
0.92473200320804
0.794713428730174
0.878177239605556
0.793219772928408
0.846199834120121
0.857067245424478
0.887149460598793
0.830206551726987
0.934528995266452
0.800495840159724
0.893981524343471
0.879650266958632
0.917279472763516
0.864866338229001
0.881091824742742
0.842582653864646
0.921875785991974
0.865603915347769
0.991869320879723
0.957933668124859
1.00823404276389
0.943054712429018
0.96237376675653
0.90302967196089
0.981775867269835
0.878800006548251
1.00038652708186
0.921313189452064
1.1002458657693
0.897197404219533
0.972374748136719
0.983276950761136
1.02129436443935
0.947633275310107
1.06860416654431
0.96110547880506
1.05092241349364
0.948551181487332
1.00236821723819
1.05519501143502
1.15916132939821
0.990726519638605
1.10612574952562
1.01389460258906
1.07397160370167
1.02595459145937
1.11629031281507
0.927372910728191
1.10950591783913
0.980924051629779
1.09334087104591
0.954174597967519
1.09265179433555
1.00931455273035
1.22871684888856
1.04624680426252
1.10319695803079
1.04135079446608
1.16059815101696
1.07852257218736
1.14155482150657
1.0474331162848
1.19512241988849
1.07649237542992
1.16151129467252
1.14345985963952
1.15071661515162
1.11659036210329
1.15656984843068
1.10203147029885
1.26138558781509
1.12740226440205
1.14484114968535
1.09351871676402
1.2189616640091
1.11319505572529
1.19315834033482
1.13343509108146
1.20745901447574
1.20047913406932
1.15347574261058
1.17512024134596
1.28987997971944
1.06799320348389
1.2601720482985
1.14872047974525
1.14555310615995
1.12655181038411
1.2594745832965
1.13201045144056
1.341511147122
1.19030909184067
1.38345972220834
1.22535465841743
1.31157206536949
1.13368508337245
1.22981168782626
1.17444465262342
1.28822371821396
1.19476742758124
1.45520305484358
1.20577874918104
1.32201894974136
1.1292418174799
1.33592304725146
1.27210937927511
1.64090755993917
1.22266435416789
1.24842355286579
1.29365191334856
1.43354912740068
1.20712761197599
1.37817808601864
1.23729335496334
1.27042663571439
1.28448961413075
1.48324604331337
1.31653936522899
1.31758578180518
1.25567262377653
1.35904384798391
1.13146207082248
1.32611181273451
1.23899477928838
1.41668762942911
1.42268304922142
1.40799710609131
1.30089265349123
1.49438027997722
1.32464686540137
1.39440306129671
1.26582644949338
1.3800693918975
1.23397014247782
1.41365565344989
1.31195679538655
1.41174175636288
1.36246420282113
1.44049720879044
1.39230991156569
1.40587732601077
1.29421081588898
1.3625627066449
1.2444611624817
1.48919116395519
1.36137419636905
1.3453377755859
1.35117977889947
1.41029053793067
1.34342285026187
1.31509085733983
1.33605218309692
1.5483778940142
1.30654644691968
1.42131015549813
1.31141542002741
1.63704205064634
1.36618138387699
1.53058291964244
1.46524508828896
1.49594229077097
1.39839706017976
1.34216250885761
1.35449725111119
1.44473728360059
1.31082339122416
1.61761564405323
1.2980728222935
1.43110937451431
1.32143410886467
1.50990156704937
1.39111777301523
1.48798040605668
1.43270711635055
1.61450995909073
1.33159859000021
1.52642251046268
1.28197518345571
1.51339927851929
1.41505754684933
1.39892807809076
1.34536302154807
1.46939285747091
1.28651016042124
1.75521645623247
1.23802983243571
1.44845705728528
1.29951307364051
1.44337699432703
1.28779112162321
1.39915077201699
1.37160478161283
1.40239941566967
1.36466507256992
1.48593724723491
1.4284220463649
1.3941983773163
1.38593910117653
1.52783673583593
1.28335236213392
1.428263721028
1.42466461030979
1.62541118486862
1.25137254506902
1.43965949664675
1.35472607761714
1.40939467967193
1.33651523442765
1.52913456258078
1.32519898465433
1.39374481020776
1.25608681410043
1.54574108910822
1.39209792622929
1.43333036413688
1.21845124009689
1.56100522655437
1.28608225393219
1.48951575448358
1.45449144595469
1.39361924559094
1.34239331655487
1.32984700539614
1.4093486162671
1.5388989886915
1.3458221148535
1.53671482946263
1.32566426548594
1.50533441563289
1.23751960771644
1.37364171290021
1.31715342534832
1.44758541293194
1.36104261500731
1.34651562552976
1.37379011516885
1.42887355655381
1.31185724870315
1.43824201861969
1.41483809870493
1.38331789789059
1.37400635255563
1.48080514116559
1.34717191748678
1.32411007439276
1.46276645889052
1.53862922351873
1.28369912756764
1.33201047654715
1.3851297294114
1.47678729737211
1.31526250878723
1.43426130305987
1.29216248498833
1.38074490531204
1.32358596531218
1.47412701506617
1.35855033677122
1.40980885353943
1.27886463666257
1.57755867767576
1.34123943272366
1.38743088487267
1.31413580827405
1.35091872957023
1.31949470973494
1.37625726201327
1.36343413551211
1.44469159944678
1.31720243796788
1.25823132276848
1.4202728171485
1.49052071822083
1.42878087954479
1.42337949011812
1.30882828799758
1.45979472307642
1.31591386253877
1.36772328333894
1.2505917521503
1.27280719922958
1.18588083687694
1.34348381425816
1.23309164830181
1.30819439308197
1.27039717669031
1.34870079429837
1.32139521308462
1.36095582689408
1.28252915055729
1.2902809457319
1.35743248867804
1.3272570419629
1.23147220728493
1.37146044875783
1.25160701637571
1.34092606857239
1.20376045037247
1.26570320801473
1.1505030682078
1.34854981227535
1.16932930987414
1.3041762859259
1.21821607721564
1.32319661857153
1.22147458389403
1.27402810271239
1.30717159969313
1.27192525841213
1.18201225237061
1.24719388877284
1.23500694645078
1.26472796003561
1.11888181490075
1.29309337498218
1.16715407586393
1.25554957420478
1.1449082935665
1.24640432762282
1.10440159784994
1.15472253049101
1.12906257688347
1.20793218136557
1.12929023628201
1.22151196856359
1.13016768950031
1.20096028855498
1.12344652522875
1.18639909217295
1.15077450227285
1.16987135746151
1.07096183714987
1.1772903942529
1.04513516773062
1.17561794107963
1.07117897951092
1.17328090371942
1.15779713740017
1.11180118059761
1.0587435181239
1.09403197992413
1.07631369741459
1.17633488327118
1.07028212239914
1.08986873927976
1.0174313245032
1.07847842458196
1.07016615036248
1.10654952929275
0.982024169568678
1.09787538626205
0.992815205711566
1.08215331275857
1.01130072326008
1.04520979609642
1.01270505840477
1.06161551031748
0.977901938198124
1.0262918090983
0.94354886815611
1.03770719528352
0.975012649719161
1.02160643647615
0.935143958867703
0.93679983306351
0.970332550908482
0.967201744793935
0.961403169141117
0.988432553802376
0.90096206973133
0.998330671323704
0.889421624668672
0.956100486421813
0.89681912332181
0.95605196169247
0.933348045845811
0.915254867345783
0.885165552710999
0.919439623323884
0.85348141653665
0.906659609859409
0.872909279234213
0.912527431660899
0.884738764532647
0.903791644907591
0.822785934321722
0.861989720666155
0.831458897303741
0.882491518326479
0.818972917848235
0.871866532049967
0.821253814702718
0.83216299872478
0.805351522834826
0.832551969122735
0.825449826336901
0.842273456648942
0.77948248165632
0.805101232553668
0.778307005293059
0.803729295336397
0.764747923749768
0.820639945547411
0.781243106144366
0.794151775813956
0.784748017357333
0.779908936869476
0.737503685516808
0.765829193001569
0.745751772662042
0.775060642089795
0.752789837081431
0.741308012271602
0.732078818228287
0.728249397998432
0.731137284948487
0.749263806336606
0.690288755096223
0.720983360255792
0.710511539893706
0.70887294900223
0.685461132650683
0.697468613028462
0.685614287937965
0.696561518326772
0.665766610621508
0.70372924055006
0.685114173026489
0.691072868739505
0.653447826230798
0.681693688316494
0.671512358679525
0.669045947240799
0.637387877199294
0.664331678016066
0.649184203592947
0.652881876731129
0.644240267825293
0.653679737575367
0.632150211438358
0.644093548081205
0.623526591861106
0.6302523817651
0.607627341527864
0.632300063590304
0.597540172180327
0.624108683903229
0.595068197481122
0.601659076743503
0.592767026767262
0.60470847459821
0.582085165707727
0.59418239855987
0.586306813887725
0.589456709315582
0.579865356428972
0.575946092466558
0.56601637570001
0.563782270376548
0.572003317320705
0.568086348716461
0.55292829690633
0.553598954707461
0.55015153846319
0.558170601209788
0.552889224870965
0.547456155571859
0.530704017538881
0.548874214771959
0.526413750481316
0.547145511323244
0.534454742531307
0.529010706638319
0.51945320959307
0.526879738315697
0.516669224208996
0.524196291128215
0.50475760287601
0.518303799678383
0.50886229830577
0.50777848308346
0.495240332865861
0.503720662015317
0.486430671082194
0.510364674921209
0.485978032828396
0.49646762315783
0.481936598115386
0.487740060534379
0.478998402362735
0.484605199906394
0.469908432963563
0.482313626076569
0.469134375516811
0.466107474228535
0.460821508133423
0.46465697960996
0.461276242727989
0.459897733522176
0.457505762184679
0.453966734940217
0.444810690709513
0.455577589660287
0.444374957889999
0.44850826781459
0.426092867404329
0.451805620912411
0.438142180983098
0.446134167412627
0.443397562907268
0.449662561821358
0.424100895167284
0.435234953808338
0.434168105870521
0.447188891490513
0.431587060747163
0.446820655810814
0.425063336751268
0.428552907365636
0.42130387485155
0.424040859798728
0.413380109266282
0.424002918023284
0.417595059299195
0.425072089048424
0.4199925630066
0.428930009674283
0.418045656339531
0.421745317239663
0.411117318805514
0.42495516240437
0.41309257957086
0.420675850228284
0.412861276950419
0.417090650727469
0.409583503575019
0.432331436953268
0.427608301858301
0.433285699237481
0.414750369668796
0.427147829816186
0.422507006932924
0.431591902009942
0.414388888798655
0.423013929929417
0.427346278697101
0.429543062876308
0.431036145204501
0.443721724685101
0.425240790935318
0.446809779762923
0.431774181736409
0.437340179658451
0.437068170128934
0.431951753269245
0.43596209081264
0.435835184332645
0.437991269290779
0.44808682397979
0.442416721853904
0.437688427021757
0.448150014817032
0.451333069650942
0.441836103511722
0.458066817665512
0.464125229046149
0.454226048688297
0.469849414616367
0.462852983019137
0.464720089331494
0.491678703775321
0.474132346516641
0.487868901836479
0.484534605642711
0.487471693055077
0.486377975216833
0.505898796332686
0.509652647219381
0.508296895747326
0.500786524223273
0.520776963394693
0.516479454306827
0.537635141108796
0.524825205485012
0.542383094009148
0.523546704818144
0.539485513034723
0.533078747305853
0.548690629018808
0.534047441419853
0.551882568633011
0.549780785610383
0.554244926761128
0.55928609648954
0.564961271825411
0.552145863389632
0.57227604909638
0.539683249725528
0.56437086511647
0.550084200973476
0.5718095203353
0.547818764515307
0.581940840316213
0.543911093613516
0.552500311057905
0.539910811075131
0.557124092403764
0.538484249213114
0.560697635418471
0.5410969202814
0.54966224338739
0.525103350231911
0.546682647376216
0.521882882509248
0.545131630657307
0.539281933104916
0.54424329283635
0.526730042838648
0.537374450664636
0.521905997824263
0.540100394969477
0.525996237067567
0.539375292923125
0.528508733255885
0.532198640933028
0.513238572673416
0.529047728397814
0.513928401471763
0.517877988878508
0.51715031031984
0.522035084881605
0.520270188986545
0.538367002145113
0.526659359631901
0.521214965118984
0.51084701046071
0.526266254112164
0.516063055735826
0.525801847086254
0.513088534253946
0.519008026149442
0.513940902280209
0.51584675814738
0.517568552315702
0.531869489364415
0.506614733461474
0.51620129777365
0.499520868839596
0.500547861401108
0.498345662840189
0.504467368932635
0.48939399131398
0.498051526041694
0.477593721508049
0.492965370821091
0.478808552346505
0.489044298772447
0.470217067182292
0.482115987424053
0.463836987973654
0.478318862952129
0.476099153037008
0.461584532615717
0.447764186042894
0.464687802709037
0.450659268112598
0.455620975761119
0.448922671428447
0.454850706659825
0.435402665348652
0.445555242065371
0.43160315606584
0.443514240346156
0.430120956467008
0.443544407670707
0.416734783672242
0.418283889646338
0.411434206865358
0.420022513014515
0.414016646107075
0.412918088701383
0.406037605098666
0.413160001249191
0.400881643702763
0.417999736313173
0.393847117612932
0.400572746707194
0.394107347410842
0.400455987243622
0.389899389867154
0.385733903497276
0.385005979362627
0.396980281586857
0.381250069008173
0.393621658247891
0.379740576014491
0.38260431521998
0.370157964786179
0.377778519186228
0.365355330048498
0.3748265754821
0.362529384858887
0.375744180938661
0.361418089957594
0.369047129288311
0.360275882791225
0.368419365921859
0.356335565971129
0.362092923587543
0.348102506063284
0.357032652159399
0.353061532512001
0.349630390630974
0.348031915475268
0.352580645450161
0.351285975865595
0.34513377023112
0.344509161551015
0.346020403716778
0.335659843908422
0.343633456060665
0.337637249695772
0.343076399431269
0.333829899120725
0.332297726335843
0.333706861904746
0.335900297231846
0.328933156561639
0.328746487430457
0.324031619171827
0.333131037672764
0.323627923031811
0.323965511689455
0.31739481229768
0.323958545793959
0.312709099154477
0.32483759305377
0.307084737242339
0.316614577678799
0.310148339941782
0.317390165940341
0.308596695660861
0.314095325490328
0.306791225076506
0.310278481994062
0.302791739777371
0.315520025072339
0.306785136441136
0.312197716305849
0.301680422759883
0.306259597848931
0.301780084892294
0.309507016465377
0.299837313148593
0.304318620014055
0.297757315867791
0.306432476590082
0.296717158308828
0.302804923984504
0.295672922625897
0.297842485377294
0.290460544166587
0.30108116881784
0.290777288957686
0.299348917013956
0.295380684057018
0.293440562453903
0.284160042077961
0.297525975125211
0.290236658031844
0.292362948766931
0.290497600015585
0.285354498591368
0.282290060203475
0.289946209053562
0.282787686515126
0.286955615749516
0.284431882888682
0.285286067469555
0.286376086079468
0.288415623652133
0.283040044858032
0.285612039720493
0.276946194459423
0.282082235681081
0.277528540424143
0.277573277683368
0.279431492931743
0.276920967545082
0.274382077887033
0.277573000916587
0.273001087217474
0.274519967125606
0.269740238826114
0.275896513191846
0.266746133450944
0.273844402072015
0.274488021101919
0.272282665499681
0.269946166122498
0.27188352967114
0.268686182617667
0.268090491621164
0.273009641452425
0.272224860154734
0.262444424328025
0.273251448926294
0.259405774242189
0.274253727504703
0.259678432364373
0.267694490805651
0.259936031276564
0.266612246787754
0.261458778794783
0.267273683919394
0.256546235088807
0.262745955983547
0.255539506178421
0.268188538679672
0.257553112570238
0.261168520881345
0.256342351991291
0.257429279804642
0.261542013807536
0.25724467540143
0.255777953865721
0.25926800926224
0.258955138675338
0.262720337009187
0.260741509128387
0.258813717710797
0.248862021748748
0.259076681800024
0.256666019936159
0.25544164278878
0.250292001933116
0.254702897846532
0.248980486303078
0.254697586578036
0.247255172121925
0.248798012163738
0.249681022570421
0.250497196964531
0.246950726801151
0.252542531459981
0.245663122601626
0.248799042380483
0.243818680846035
0.24348729401636
0.243178399140893
0.246407514067685
0.240945568164901
0.241161337046718
0.237389088177609
0.238838250534947
0.23701122965391
0.238773013308835
0.236912290013375
0.240392356337427
0.236031889999483
0.23569435777825
0.231756804000976
0.235476384336686
0.230906447391487
0.237960828634105
0.228197973111455
0.235204756933548
0.231296553723025
0.232464176369103
0.226301726929509
0.227973607128593
0.224307033437882
0.234778649672459
0.23072893898839
0.22639592579622
0.220112271411638
0.231642940782233
0.225599124051716
0.228319974241302
0.220452993652418
0.231604513000193
0.215289531758418
0.221538054938228
0.220246769035262
0.217241569613912
0.220674389588374
0.222188109574722
0.217002145962146
0.222325145850755
0.21409131318779
0.217889984358208
0.209435480984012
0.213313370417627
0.212960877655852
0.210315553357243
0.208580689315794
0.210401687689338
0.208419559265538
0.211456103562323
0.210148874701349
0.212447804438461
0.207320351450702
0.209495211882506
0.20640007482349
0.200701481764038
0.19715688543897
0.202990712624531
0.199187874579258
0.203354872315535
0.201238565775066
0.19618991971472
0.197487717304982
0.194580512393364
0.191577021593997
0.195285477500717
0.191541575957951
0.191144312489139
0.189638468059531
0.192652838575798
0.193562677973898
0.19057792579551
0.187414818238651
0.189789019024144
0.181713415445418
0.184750807538817
0.183567349389939
0.186822709828987
0.184547927223151
0.186936697436571
0.183192637698252
0.18220262797349
0.179022345604894
0.18418978689464
0.179573056848406
0.184975445343848
0.178244777058301
0.182416007498602
0.176906318713211
0.177507503961933
0.180675935116173
0.177325757822119
0.177421245564033
0.178102188285649
0.17350894580833
0.178433091981395
0.175898152404063
0.175384515768214
0.170905594640578
0.175557698074377
0.173421707221599
0.180528603552474
0.173462193148877
0.177399904954343
0.169172967192523
0.174828303606161
0.176072942468862
0.17197277608563
0.167559048730744
0.172262180254759
0.169062452153743
0.171151966826674
0.163654904589083
0.174123086994549
0.164932732756734
0.16764380570132
0.162017078604533
0.167390594165384
0.161261214690483
0.164917526196563
0.161250335306148
0.165588015427933
0.15854082685578
0.165784534020814
0.163538602351887
0.162123228403257
0.157810335371949
0.164600191757067
0.167153499714355
0.164691873178479
0.161661764292708
0.164450233347755
0.158880574317371
0.161347400889281
0.158208228257195
0.160134512391455
0.156679386572311
0.159673948625307
0.153754103560213
0.160539334430254
0.155633131183688
0.156974861292231
0.158206371501132
0.158334224082889
0.158493922039268
0.156888409124799
0.155872209942197
0.158682059875858
0.155164720108525
0.159359132346297
0.155908195832452
0.155594403360731
0.153503346147024
0.158203739001946
0.154696663664582
0.156513571928308
0.154509833218527
0.156507576054501
0.150806026226459
0.156184867722999
0.150257440131962
0.155092661291568
0.153069549174631
0.151240197174064
0.152384355940418
0.15582408355632
0.149925416455457
0.151073483068735
0.144812942278838
0.154316725162828
0.152999252481261
0.151867120850801
0.145652755719746
0.148835339945095
0.146581370749463
0.14621780041726
0.147734028626974
0.149085953332839
0.146428845559855
0.151253661805442
0.146311174043782
0.150447135273098
0.144483066201528
0.14820553039523
0.145955981060662
0.145996256512152
0.13998990433605
0.143026376819077
0.138532610216361
0.144167492455655
0.137560010339707
0.143881923450015
0.13862996924686
0.141379252944268
0.14070163220599
0.141527535899166
0.139462071213304
0.144839065652318
0.139876939428868
0.141384653882
0.140457843668007
0.143245524036395
0.139071414623909
0.139513870278709
0.139462094724671
0.140738063637528
0.138387071930569
0.136353394458224
0.139444187698733
0.139886686871244
0.137808472342104
0.141495700868593
0.139231011512304
0.13798008549921
0.138079505747181
0.13942740235111
0.139368897903072
0.137174886579093
0.14163723252754
0.136371665592277
0.139705511897122
0.136619364921156
0.133844024416874
0.138564223265527
0.133639194193363
0.137219006025932
0.135132207108371
0.137425669340273
0.132990670466574
0.135118473502472
0.130363876824081
0.136543935789172
0.129699822912877
0.136602676771446
0.129733613202735
0.134581801450905
0.129294059068026
0.129591483776522
0.127756143095481
0.131644731982136
0.128239126362019
0.127729182168172
0.125588174825276
0.131043235495182
0.125060057701683
0.128382779089956
0.127670643074822
0.128507255085682
0.125759745909526
0.127153572223513
0.123458997790868
0.127558496503186
0.123949706817715
0.123953897227116
0.121797319388485
0.12629860298043
0.12121464221122
0.126030241771856
0.120414299114276
0.122704159458297
0.11968168996447
0.123326092220072
0.117966495383617
0.120642288240453
0.116391140404266
0.121846429068729
0.117472532024
0.120772306646887
0.11708620073625
0.117558565962485
0.116348933230162
0.119603665108454
0.115957408052028
0.117219538287807
0.11553884008772
0.117602127925292
0.114702613537242
0.118878090991107
0.113290819069661
0.116085310784988
0.113451886062259
0.113601855504216
0.113964466466116
0.114101473514398
0.115254899971302
0.11720981870927
0.112562382858003
0.110665825481296
0.110982697767209
0.115245571878087
0.108999359826608
0.110935895909253
0.106451370642568
0.111358187769895
0.107655448047951
0.112086660402626
0.107703185852088
0.109441001264315
0.106963891950619
0.108214337844711
0.104195791806005
0.110584797500783
0.104671172378448
0.108006256568217
0.105333219969119
0.105701977034368
0.103008430881986
0.106337450274523
0.104121172472478
0.103222535392174
0.101995035309141
0.106436180811919
0.100763997007525
0.106541400683075
0.102013280997877
0.106554558315662
0.100610369781137
0.104709204583209
0.102816926192302
0.104919002216264
0.0983461530904339
0.105806820961098
0.0990786126837541
0.108415575977513
0.098190730016823
0.105815257720301
0.100912116164036
0.104498559276059
0.0992388864052988
0.104139017038529
0.0998909037946957
0.102982379486754
0.0995028884710707
0.104836927753472
0.101435297934619
0.105299745089159
0.103265681867255
0.106847714406381
0.103028503603624
0.10728003669129
0.0981580431226192
0.109989037612663
0.102897743421821
0.107776450912205
0.0997545333847223
0.109417909264
0.103971811508041
0.107817270402345
0.103829497221351
0.11376931626191
0.101135391504848
0.108197306871971
0.0965849390397949
0.10990777149714
0.0989636066159914
0.107455292628076
0.0930887224105802
0.115501931183347
0.0937241444331839
0.109199046063621
0.100700999221357
0.111157092850655
0.0963034251601484
0.109578295225938
0.0958802935251016
0.10921788751592
0.0902165047589214
0.108844028457498
0.0969326188069505
0.105554485719034
0.0858371476818102
0.105223159883533
0.0915212983379993
0.110892161106968
0.0905993474066348
0.111399469866379
0.089352053570402
0.103546699593867
0.0899602930205314
0.102231502495369
0.0838058508518788
0.107882916135226
0.0879690360529063
0.108412540785008
0.0887026796338981
0.104824282294864
0.0867163119836808
0.108114493761795
0.0879796272794168
0.10424800243841
0.0955631426567214
0.10657772538946
0.0990394654704128
0.0950829870793578
0.105348018485886
0.0899586108564097
0.113073630237238
0.0891038862093945
0.121816383182455
0.0689696479414775
0.129390947205528
0.0635372044176764
0.133994858991408
0.0667072141318206
0.136863665642825
0.0649540517038578
0.131697605030199
0.0730598260911842
0.123398382345355
0.0840525181463219
0.115535902478745
0.0918646784692483
0.100118092893868
0.100681867541392
0.097532272234546
0.100704610678258
0.0936051700503492
0.101242099875917
0.0957868505972604
0.0931526808701977
0.100466961409194
0.0917526017166129
0.0998991960478401
0.0888285624906899
0.098718122607043
0.0884885890793989
0.0972086904854573
0.0908622030862549
0.0956686479390065
0.0932187027316147
0.0943282271928415
0.0923875275875907
0.0959933098645347
0.0915873189874458
0.0943005250403735
0.0914536023245917
0.0944033582827844
0.0897257032331835
0.0948190052725948
0.0914876796710577
0.0946800197332264
0.0908358825132708
0.0928624347350384
0.0906595229158823
0.0967550216850989
0.0909444401933793
0.0953393657363558
0.0896104358359944
0.0974503715119331
0.0941567607215
0.0959233949570533
0.0935720584431327
0.0949854463430685
0.0940653489938051
0.0976312935887522
0.0914779277714799
0.0949014203932008
0.0946025595168253
0.096150860475508
0.0929942744516596
0.0978454959409557
0.0941411274993195
0.0955983938640595
0.0943806758554278
0.098181211701991
0.097128681813022
0.0985581431302305
0.0965975233040067
0.098287341205076
0.0951823919805196
0.0968914801772908
0.0940479559843477
0.0965087176482431
0.0965883514106141
0.0953776798489945
0.0955319475478322
0.098210458932075
0.0989291926358692
0.0967593634214077
0.0949703753169888
0.0970375044501784
0.0996088384098387
0.0967329914408503
0.0962899827742131
0.0990201658922298
0.096673275975167
0.0954625323438366
0.0976283596056081
0.100011927454842
0.0957614415621071
0.0961175614539546
0.098417898920386
0.0992806753311571
0.0981344027832242
0.0955496322628172
0.0970763375821556
0.0974385918657757
0.0981719436500042
0.100785851501881
0.0986396422316536
0.101087285132862
0.0983414683170854
0.100077960271206
0.100908506197884
0.0994210645753626
0.0995171782755487
0.0987389619017366
0.101853559555851
0.10344486874769
0.0988001418614152
0.100144887401
0.0997047468964568
0.101803455704846
0.0996239938750632
0.102970260249956
0.100615389120826
0.0993744443774891
0.101392365978782
0.10387193114724
0.103978213592934
0.102552880052806
0.100713703666304
0.102990701449876
0.103472962609173
0.102739273898922
0.102066694650625
0.105775655246198
0.105703793171768
0.105127720416172
0.107021252657989
0.108190932268854
0.105528928286908
0.106302411709982
0.103850156623539
0.103569976165022
0.106867033639193
0.107020130782325
0.102325143750868
0.106950487209169
0.107471340216048
0.107137280519641
0.103672718419213
0.106855816464534
0.107716612424082
0.106498432814886
0.106122103232859
0.105525889083474
0.106551535675761
0.107742652295972
0.109682344207107
0.107211530918069
0.108160775708401
0.107657700006225
0.108142304049382
0.109645574184373
0.110500892223507
0.11085363634937
0.107867851048504
0.109410024123807
0.110432863696365
0.1102941857264
0.110189436606754
0.110693665276409
0.109594038261149
0.111625594639666
0.109703216087083
0.111475852063972
0.110876746238902
0.111797956516012
0.110753592994861
0.11470856916736
0.113150584837417
0.112906461807027
0.111284979713305
0.115344283047722
0.113528876176319
0.113889482215565
0.114844607362331
0.114631258869347
0.112646066901091
0.113428969738582
0.115575109529293
0.115639160412903
0.113464819376237
0.113941487934381
0.115252788388356
0.115715864651394
0.113934384492469
0.112620776816645
0.113774302584474
0.113157316705933
0.112174977305446
0.113027481271933
0.114058046828674
0.114048921927681
0.1133121376051
0.111488988051072
0.114744662813394
0.115637676029499
0.111755196114208
0.110620133012807
0.111634837893256
0.113924143452952
0.111842120484234
0.110328181332972
0.111097588755541
0.112108255569052
0.110330180489088
0.108697985857434
0.11052279569101
0.111280454273743
0.110868536527924
0.108882694354403
0.112291201351951
0.109468372866109
0.111082386612409
0.112656591746556
0.110698313611067
0.109280445856958
0.108850474856054
0.109106960680752
0.110995623600406
0.111515356955652
0.108129810603652
0.110147793549467
0.10951923886076
0.109018583535593
0.109388381741946
0.108971851520332
0.110391164783061
0.111664028559775
0.109765588843206
0.108800568439877
0.109053228389661
0.11007911524217
0.110535251295193
0.108974890310724
0.110560955539863
0.107112474234363
0.109033470990582
0.108904313557744
0.109997044381525
0.108914862285876
0.107838446357967
0.109360707216979
0.10794459318749
0.106703492545601
0.108101595743694
0.108746958117063
0.106506960557732
0.109909485680678
0.108812660997926
0.10977479552239
0.108152852987982
0.107725132431242
0.106671361474891
0.108159976193338
0.108765174384314
0.107333457178402
0.107985638207688
0.106190796730296
0.107118468025315
0.104179888229759
0.107850483520567
0.107899541293373
0.105618692205952
0.107089649696831
0.104018844818752
0.104575337910437
0.10520305880559
0.102880569704596
0.104207182651242
0.106701251071508
0.10776919993904
0.10587314542992
0.106027617933039
0.103339996323611
0.106774400287162
0.105573157969473
0.103791746419912
0.103074907346585
0.104393616697849
0.103144797278472
0.103917809066115
0.101125362934582
0.102768559136138
0.101715167071964
0.104310859476252
0.102435972140669
0.100148378157646
0.101059646075172
0.103241277799518
0.10201515786645
0.102276243074557
0.101841692071696
0.0994863609045924
0.100594948283574
0.10495029695343
0.1006137664236
0.102956414920695
0.106938426833624
0.100039613621936
0.10009857234609
0.0988498313998227
0.0999280750078472
0.099316807138612
0.0978509268083923
0.0983385533189484
0.0971373305601937
0.0971257899599406
0.0942441990150332
0.0945079704570672
0.0958264019433484
0.0974356030335934
0.0965117444297364
0.0946541678011042
0.0948116577713098
0.0955904627258359
0.0940626754769769
0.0941584426569671
0.096076352648688
0.0925307888169514
0.0948586494212997
0.0909402599693242
0.0954640149008004
0.0916026605538628
0.0942981326339925
0.0927782123584342
0.0928012790892104
0.0930797173037426
0.0881449508531182
0.0908837311687513
0.0876944908007634
0.088106196594522
0.0885956748223596
0.088754638328664
0.0882760556852761
0.0869291245629099
0.0863700140255738
0.08827354582382
0.0874224091336322
0.0855356400050881
0.0848532837669327
0.0872433199342995
0.0854448118056718
0.0875127235686461
0.0874028377499823
0.0873359458227364
0.0835992529749597
0.087630031972385
0.0845932797989763
0.0861388428675187
0.0851948928366107
0.0955583207487189
0.0866890905407576
0.0847554924135826
0.0859676606877412
0.0890769627856259
0.0834803446463742
0.0852084340044501
0.0840997885731646
0.0842587507892422
0.0827687737560424
0.0860161540528486
0.083066030576904
0.0834741753318358
0.0823905024151395
0.084857873083644
0.083969323365729
0.0832763818204836
0.0793558989692816
0.0816823865208737
0.0814374876132081
0.0842942235170501
0.0806048519454526
0.0821012884847102
0.0825307089271543
0.0810835764653558
0.0800864041517139
0.0882682433313356
0.0874867690498992
0.0809816282017475
0.079815188540539
0.0808728446833653
0.0829045441867428
0.0817082258404992
0.0815552412451102
0.0799870902643108
0.0799107742318048
0.0775851803398177
0.0774177728359002
0.0792884666437013
0.0816776499073957
0.0797601511173224
0.0815716550277712
0.0804501998223192
0.0800478678251666
0.0790102540916693
0.0777471423719881
0.0784992121197499
0.0799016143241831
0.0759762073875403
0.0805811974323986
0.0775280342673763
0.0791882611358919
0.0792737689069462
0.0982184835118862
0.0802566223896935
0.0818995086672639
0.0807413012091759
0.0782035157916721
0.0794910444436567
0.0779542459741828
0.0749632689867962
0.0760729169958669
0.0780351912217995
0.0788729752823303
0.0787478270207467
0.0788977727084671
0.0781799071698554
0.0782607810169551
0.0772457020918186
0.0792274805741331
0.0776685443663471
0.077496975190024
0.078246828709823
0.0795561415681746
0.0880309487509628
0.0854194485428647
0.0761323180016739
0.0800184896138511
0.0727163067318722
0.0931098673126251
0.0884455967280347
0.0711116322115445
0.0836093405844399
0.074376706654319
0.0783811793025416
0.0692276146137071
0.0790172396673446
0.0741197982775444
0.0843887733698109
0.0747958605888615
0.0808173385392973
0.0758594662648217
0.07738409732334
0.0750388318395502
0.0746459071874508
0.0740508170007701
0.0724523948271672
0.0725427137179476
0.0739695649595121
0.074720374241594
0.0733795520198034
0.0723809082376255
0.0758308469449241
0.0756422723940835
0.0831694176100654
0.0742148719025775
0.0756769876236787
0.0712065802503431
0.0746740560406615
0.0735438430245034
0.0940383010845177
0.0722920722716799
0.0759903103074844
0.07340887931859
0.0739387531612716
0.073251596466676
0.0713807694806143
0.0735326057185108
0.0738123846343112
0.0748301810236077
0.0757280519734882
0.0774711963139904
0.0761730558439873
0.0711686822877389
0.0746412229599151
0.0766133117499794
0.0759757120702326
0.076067255346751
0.0744355318786873
0.0785201948451909
0.0773774421751469
0.0842649886564782
0.10093164612721
0.0854875153463046
0.0876016686715383
0.0748571111049354
0.0775526992252531
0.0716732379808897
0.0770313977288446
0.0728583896752591
0.0796609632734977
0.0742809339120165
0.0780559521401045
0.0720481104250212
0.0771251112570301
0.072942581706122
0.0767854587821168
0.0717455074802185
0.0783146931367466
0.0707501560820464
0.0795746547483523
0.0726705196672957
0.0781735975623037
0.0707468424992812
0.0828430952785345
0.0795238646414069
0.0805058009631973
0.0766372351154166
0.0886053009364237
0.108041115486077
0.070888168298064
0.0860410773842543
0.070431235548911
0.0775731591033622
0.0736927667681892
0.0750862081663039
0.0815356722420887
0.07694826412346
0.0710168566781818
0.0775827104566205
0.0753520942172641
0.0790120875945999
0.0736559056063018
0.0824975455710425
0.10702334199649
0.0867980941757509
0.0770961836085639
0.080549905525576
0.0768385689957669
0.106623610077524
0.0802065809840594
0.0801064010135087
0.0798696933738751
0.0755441668233687
0.0812705625705847
0.0772076076090819
0.077784712147723
0.0823659448439065
0.0828666498849548
0.0753957547406239
0.0820917804334021
0.0748537991701962
0.082105987034325
0.0804794936547504
0.0837872945646238
0.0923742620072066
0.0783336354378023
0.082334977755561
0.0852437999979307
0.0778183972441623
0.0808155163587521
0.079153220566834
0.0810368810889575
0.0826751946100542
0.0963362223634074
0.0857664695991681
0.0959775214168148
0.0957029060634644
0.08135472478925
0.0818478610228599
0.0900208137217973
0.0846560481697657
0.0870656628466485
0.0764766644129648
0.123665644379699
0.088643297598308
0.109425828402784
0.0798305384354297
0.0901631999288104
0.0785214787171478
0.0855881995071478
0.078963890951744
0.0994526399610908
0.0920272870818393
0.0825248725117837
0.0892822081035751
0.0860205327751238
0.103181052611596
0.0863464305659039
0.0913828534301416
0.0843636124045236
0.0896774511482438
0.0941658414179604
0.100221539463123
0.0809234424418292
0.121761195377727
0.115231812552056
0.104974482711239
0.106556864027001
0.0842792208094265
0.124062206459274
0.0992510371566019
0.0897857263165142
0.0952812956776607
0.0877884776523077
0.094270360121054
0.0896942998044298
0.127402713638416
0.105348919748333
0.0919754291770572
0.104203311375373
0.0958750570354313
0.12294979836995
0.112370565535017
0.0982874205646707
0.0976025390496744
0.0995988311419764
0.0979775982213424
0.133669871218314
0.135896792094387
0.099893237406881
0.142502924353172
0.11113547466144
0.126564444103851
0.110185027048167
0.114587199700733
0.115602412423981
0.129110892536037
0.109551409905966
0.106291992701402
0.115440651870065
0.151470387466124
0.109269979811587
0.122716624782092
0.116013655413719
0.114798123329861
0.155735631973154
0.188809305131632
0.145195669736141
0.130955902704105
0.12150405778146
0.148254692505401
0.132457345986693
0.12943024368198
0.129829729379693
0.129148548684036
0.133763906438603
0.133756843466103
0.138183996301361
0.140695721792043
0.136100146774664
0.143678336441971
0.131763961197336
0.175055307701958
0.175807723671742
0.195655445105073
0.152748959308012
0.180134195320089
0.173985288909975
0.160770460725336
0.161414695065574
0.156159340693104
0.167282552607324
0.164795258708136
0.164897279006641
0.164691338043475
0.183110804380967
0.194458672979065
0.176349207936807
0.205757663662002
0.169190476613422
0.189448939562264
0.175137438440678
0.338321528943874
0.218068181759285
0.189030844774477
0.206622814160345
0.182716285491174
0.280536751991069
0.210587863379539
0.200165732185221
0.205886124554521
0.205484075864308
0.214734956740101
0.227985628832135
0.225281132363364
0.235488537585872
0.233970665410935
0.226754272759835
0.238020267645769
0.329692194555049
0.297636265917354
0.275348798740201
0.245105399904958
0.274419238020952
0.278272639827087
0.265896602311406
0.262872006102897
0.275083571580659
0.264731611989255
0.354895795978161
0.286134865811848
0.292898298493337
0.28369239179738
0.327738632057856
0.299218333874222
0.345694606758631
0.363626289946784
0.316327158652676
0.333272620213504
0.323411633353298
0.340564915410453
0.324213990720368
0.370075978805226
0.371480570423174
0.346988539577953
0.348083877972057
0.35410978144762
0.362082652693231
0.362535192261868
0.376825756834398
0.364664857758387
0.408714593026799
0.418975844967176
0.521982798266806
0.428893758925822
0.38074981362173
0.397018482785851
0.379938422248681
0.434383613128491
0.411361099454104
0.440510864354727
0.436301529492599
0.389894150340863
0.399916621407428
0.386292501567524
0.399864072692818
0.39193875662237
0.405467961749567
0.391445135907504
0.415609973014439
0.400386776554163
0.400444422057055
0.503481704534168
0.393101516380676
0.393073433133725
0.379336895143385
0.381789159343695
0.372379449722342
0.377093363626657
0.370845257595748
0.401092411186037
0.362023293094885
0.365060170828478
0.348486212816886
0.380247692373294
0.38819319871505
0.340970049257565
0.34573247911657
0.336457077489841
0.333425183182292
0.323706671005251
0.330595893623249
0.396968007338195
0.313954376465073
0.312373180813622
0.304730332739743
0.301081442259318
0.296449519473196
0.286907175860652
0.291027993281082
0.292147501337271
0.280582101225772
0.282793679566483
0.266298178159626
0.261320863681793
0.259540203592382
0.269054102806166
0.263721756972314
0.253115707814193
0.249762052114049
0.250166909111366
0.246862871041898
0.234874003355901
0.239976277040145
0.240572628867302
0.235563401081151
0.232270641660697
0.228096546688602
0.230217518004278
0.224699073323899
0.217996619677128
0.218486115229761
0.214384086496917
0.21190945616329
0.210235994854602
0.210334539565401
0.206456009381927
0.206494212195697
0.205599698206831
0.203975508413932
0.193844567292419
0.196559280671849
0.193293163490752
0.203183778760685
0.186976425479474
0.237329442647873
0.234278357784314
0.186091572341671
0.196275033525998
0.183107275599236
0.18938288891738
0.171197998168345
0.222964435058662
0.21404511281598
0.180747202089715
0.181724091003282
0.18334459220123
0.189494723377516
0.198723254479997
0.169771600500261
0.180781124043357
0.164507404862032
0.215145307828699
0.263193130727736
0.230802632628431
0.283604885175564
0.193140789382673
0.174815225320393
0.185184294406563
0.220846937671274
0.172680470142453
0.17198521410803
0.167732576069459
0.186875925872415
0.187886556472186
0.164027773987712
0.165202609477787
0.155076294262858
0.176736915012799
0.203161776208583
0.173379833141068
0.17911489815084
0.213513830581885
0.180650560777296
0.207248656215118
0.251439932821621
0.195727870541456
0.161339877824146
0.16690150080003
0.16606024786847
0.172466131646832
0.211311222125835
0.177887964703064
0.177474192915237
0.168003676118269
0.154643498638993
0.17463741151833
0.181669061815531
0.178835723873476
0.168875768127651
0.208169082300509
0.166923668522935
0.183824168816175
0.202163715548462
0.203422350685353
0.227711354622203
0.184288764361614
0.166063012332382
0.193334037462919
0.219144605238429
0.18175610478198
0.192372298948815
0.169195884875761
0.176141048643131
0.204748492064624
0.17919414110645
0.184529305455996
0.206671574117213
0.208734045738098
0.239386332369769
0.24347750921346
0.230052976500985
0.199841175975362
0.178505916971934
0.185722756839627
0.188706804956058
0.191115793372545
0.18415683511431
0.203047102105718
0.21012481089242
0.188445475589508
0.237155968938116
0.208378837079149
0.198624121625376
0.20557581280649
0.200805641011202
0.211174303216741
0.247738953906859
0.263191532687381
0.233276037641461
0.223217974452443
0.250751028981743
0.232081046438394
0.23493898313195
0.233393813600226
0.238917148855466
0.241590073744464
0.259104991635249
0.25512433427888
0.258143485500015
0.266498021306913
0.26642551849328
0.293276542161234
0.317642759075208
0.279860998968306
0.320767225587023
0.326389341436519
0.348464936009913
0.33868768335178
0.320171693577775
0.331769505757558
0.328414143186323
0.343226114580214
0.347952288344098
0.359413462230067
0.39731542628158
0.371588311305844
0.372780320849411
0.373834943770215
0.38236907264241
0.384504399085861
0.411953713818825
0.412650082283014
0.457667605488316
0.46886121751464
0.416276504506985
0.412881442782417
0.4040538259806
0.41774586604977
0.410978548076743
0.408513764371496
0.407031955059417
0.411642013795765
0.437033384446595
0.424424514965184
0.42039562045504
0.419340437499495
0.415787135439115
0.420547269690381
0.422212394537973
0.426584876155071
0.422931826963356
0.428896875537283
0.427071163604267
0.428972013465062
0.511246427979963
0.462156832493057
0.438729109097153
0.444578546636933
0.450011569551893
0.458069243844742
0.449145952015304
0.470917290838537
0.466437621579808
0.458836549732255
0.460885786899935
0.454525950245805
0.453642348183021
0.471187144365722
0.492485222227405
0.471679240227385
0.478845534233827
0.460558488611454
0.487683211327832
0.535613471321235
0.482112444783276
0.492190836145402
0.482774299039149
0.477142372882495
0.474280337778767
0.472904184974355
0.474341143968986
0.479090750915136
0.476966160267189
0.476311182583787
0.473763290301996
0.475165197764082
0.465684941976212
0.470563929680389
0.4913757383438
0.469069658841788
0.463504704402781
0.464201385917545
0.452720761137195
0.453988813021075
0.472994959404778
0.475271201147611
0.453905827931127
0.450296655230582
0.453522462952226
0.474206319512691
0.4648731014851
0.440385636561592
0.444835175414979
0.441613213646148
0.437281668554494
0.441317755959334
0.450110039143677
0.48321422908803
0.469946317938399
0.45926703766549
0.461484269273718
0.469129490085197
0.475837199809979
0.473766768887352
0.479631247775341
0.491195080369024
0.494163120682075
0.502682463901019
0.500738823317995
0.504957701934195
0.510125924128934
0.523172027041545
0.534843596178988
0.514729952535744
0.517963677809693
0.523716041811467
0.528531207385252
0.53216127440393
0.526584605194402
0.526714527015921
0.526671502277899
0.52344519059071
0.528919000673921
0.553021628765213
0.536083748906279
0.534883309621883
0.537396847033808
0.525421763744589
0.524819203605853
0.521539740271311
0.51782090732825
0.520609260744073
0.519683728931515
0.51487076639236
0.510927351740178
0.513030659455981
0.516022207459746
0.508720986592584
0.506207551906762
0.506296723851702
0.503850372256619
0.505335935737855
0.503458647417597
0.504189591940368
0.505823904429996
0.501311911598717
0.499016853711696
0.513723527558213
0.51733650499568
0.516639382513562
0.506760473091399
0.509353740023971
0.511621756699551
0.498981332511445
0.494005521370288
0.496528937963035
0.497012236445054
0.491578005753427
0.488896090444236
0.488397083235878
0.493938523941019
0.493623609289824
0.486760490628204
0.482946019156093
0.478655193580328
0.476011929025398
0.473408817430104
0.464826343370397
0.464319738218377
0.461430205426472
0.467243563534631
0.466825430902925
0.465392815661188
0.460517249043581
0.449811079780688
0.45005402443216
0.450707256228984
0.451192247823503
0.450557898983345
0.44849377823259
0.447631712451102
0.443132642875643
0.440363829792347
0.442531336496451
0.442508958903061
0.440181843920606
0.438136050053033
0.438298114136798
0.434136982358005
0.431701009221695
0.431360136950763
0.431863052342097
0.428329528836522
0.418928098142841
0.418004067905899
0.418605174656232
0.417569661869579
0.412128163685731
0.407523152268805
0.401494721143025
0.399588408349576
0.403251926378393
0.396989317960877
0.395921096056707
0.39477447515421
0.389327490791888
0.391947757297155
0.394005542721086
0.386297476465453
0.383733756518648
0.386579907788229
0.385212638688843
0.385452973488579
0.384714261816289
0.385474601762655
0.383524527931328
0.381126922745799
0.38261442123516
0.386135616340772
0.388274035294508
0.38697981819626
0.387749591324294
0.388898344179317
0.393274077107235
0.394338227054344
0.388224883224682
0.393102244917513
0.398186529855854
0.394188978841052
0.39678653584895
0.399045621118216
0.399968392553967
0.397531755512191
0.400111872486933
0.400624160154062
0.398196260691951
0.404040088163844
0.403536444942207
0.402304920354265
0.399631346688903
0.399738831177327
0.403632636733736
0.40295690669031
0.401662570341874
0.400026926927196
0.400378258781301
0.402367381537952
0.401336507239237
0.400435891639073
0.399196561755355
0.39966833377583
0.398260324780205
0.396231590890518
0.399351840390627
0.396256091070555
0.393240496227257
0.395012214252486
0.39388250646652
0.393103819234731
0.392163312212512
0.392442446857857
0.38843995396923
0.38987334075713
0.392134695883595
0.383486568674482
0.380765176543379
0.382137669486054
0.380564527634375
0.377809835798198
0.373592368568631
0.374098241863843
0.370554823803449
0.362806521818073
0.362298002879029
0.363241695778461
0.357034415167034
0.353760234060355
0.352681657512877
0.350019999698735
0.346997768906764
0.345092561286385
0.345187778606453
0.343288508604719
0.341836115135247
0.343206986880617
0.344659162374875
0.343938513385034
0.346334884325408
0.344611160895197
0.343492469313078
0.348022509232232
0.345804210466277
0.347117085759629
0.347944386963042
0.346709394897775
0.344768300209576
0.34568307968241
0.346440366326619
0.344705892620906
0.33990507116711
0.334647751178867
0.331925283080991
0.32904264171615
0.324435264751575
0.321117617551548
0.313971072287377
0.309734162326703
0.304604765997085
0.302396076822753
0.297231903157078
0.291665537200049
0.288777403745991
0.287035682287263
0.287328758527066
0.282664372559775
0.282060656334651
0.284245261818518
0.285395324831002
0.289793215674739
0.291875344298049
0.296011618428423
0.299747735368278
0.304616591208898
0.311768522818932
0.321138870715516
0.33214179707239
0.343189057955066
0.353866601428001
0.366359322094134
0.380956461605248
0.397731034790835
0.413381457007557
0.431477666486629
0.451435851517053
0.473367738703924
0.499169835857738
0.524916046412693
0.551462505410855
0.578238903948465
0.606322874968654
0.63361708029503
0.658321561747534
0.688542647330891
0.713686784277016
0.739074499540726
0.761717530603705
0.789455800893753
0.817999133399856
0.838439316355689
0.847772406412002
0.861142153653842
0.861566004498467
0.871099459473902
0.877891489581514
0.879192308753949
0.877835647411448
0.871185194207595
0.864557232773262
0.860938649485099
0.849038369087467
0.829528916988946
0.817693047658175
0.809041169060541
0.796880003094831
0.788505631608682
0.771679604860862
0.768428251699805
0.752876597207852
0.753403568227381
0.751429133745326
0.741794677497818
0.741177361976306
0.744802618627586
0.74668226813917
0.749228600077859
0.754327276619414
0.75525231500049
0.76611758232851
0.77453180252447
0.78170354316843
0.787420031563711
0.792952687987804
0.798657751575121
0.808793891203087
0.820589806486773
0.821991790274546
0.825029844246714
0.825343751612698
0.831699268189392
0.848436562474434
0.851379326441033
0.860334878114224
0.870225616945837
0.862534528395585
0.868179634167958
0.868947494300659
0.890968383811422
0.887758524660499
0.890689894404108
0.89729372971642
0.898079518724985
0.906600674662827
0.900256773354388
0.922220080348007
0.920997127484582
0.913332823773881
0.92282587909415
0.916097417474613
0.916401012961843
0.920063107487289
0.908064963644632
0.913647807132992
0.932987617837207
0.915889532116226
0.93307976511591
0.93748286100784
0.963990532290085
0.966173180827009
0.99280607975978
1.02827889828173
1.04584288311091
1.06750112796007
1.11215037275467
1.14572465065065
1.16954189851348
1.19623668053851
1.23454013522414
1.26793067022836
1.31254420682858
1.34298821897765
1.34165136749048
1.33308741733218
1.35088675518766
1.34391517398367
1.34559167494814
1.34872862293929
1.36090592919975
1.30508544355902
1.30584892230868
1.25333083189081
1.24553501517024
1.25847351366674
1.27855172747962
1.23698237782631
1.20921454502737
1.23422271921877
1.27231050143072
1.25555967800137
1.2728329940152
1.28303875532897
1.33342941022341
1.28044375838452
1.30650753232883
1.32593996714216
1.32989189772626
1.36955092839356
1.38615735305192
1.42080719136677
1.50580942881639
1.48145522498156
1.4612186176025
1.46987422137503
1.51352684596704
1.4900024350413
1.60007492944866
1.55792039844636
1.53966704244949
1.63083164473357
1.63888435532965
1.62441592977374
1.82142930757771
1.70499964686716
1.69427632214283
1.73681189023629
1.76243008178046
1.79345913290233
1.81208488993983
1.82031492751797
1.94294206456318
1.91799735522276
2.01766517799966
2.04122101347782
2.07871998480549
2.12208983320925
2.25489758823974
1.98823002319558
2.28560671626356
2.20401589520068
1.94498727929447
1.88314641744311
2.65641854915449
2.32804386332381
2.5151021927035
2.3310703415184
2.45766352426719
2.1971249357023
2.26025552402509
2.30726749778912
3.07993764126137
1.95203162263321
2.08709170634776
2.09885189653893
2.14151848696864
2.07185920701267
2.18837141990002
2.08561514889044
2.37286277301863
1.91703207862079
1.89260463452354
1.9415067973654
1.99712808387525
1.91534299550186
2.19287117063035
2.02115591054251
1.89967326351023
1.98978464701407
1.99185283935588
1.88766378715548
2.05754131068901
1.89234365010494
1.87167213724755
1.78535106255349
1.8263998093066
1.62803815006562
1.697233500667
1.66822312603184
1.66731847450192
1.50762443313759
1.5040853652633
1.43586041631353
1.39316618459684
1.33455852628665
1.26865216071395
1.1822189226386
1.15583278268942
1.08880606802716
1.02506361815338
0.962322230825861
0.92386643705249
0.887389795272206
0.836078550365498
0.795800015136223
0.774462686565536
0.752167679248205
0.710896442856351
0.680366354304583
0.66703869056361
0.649129294853152
0.635404714639656
0.612876547465575
0.598133831007629
0.577718216820851
0.56703437516198
0.555275964481663
0.542949837762343
0.539316337561562
0.533880254881612
0.518260032267441
0.518724789472121
0.504456287593488
0.510647923330868
0.502944117189908
0.502456120945178
0.506678115571923
0.500792447722843
0.49911017036879
0.512406747608037
0.504478914861437
0.517502328066852
0.525327191709135
0.528123704379398
0.527593877898479
0.529600390921762
0.543839448964215
0.55793194439639
0.559867157180669
0.571768857422164
0.578638453418728
0.588165387821015
0.583057082857561
0.600415343646391
0.59832143292655
0.60097309760202
0.596363495875814
0.609615284789657
0.610757386873865
0.615322846669214
0.61202378889094
0.609371899126889
0.612833629428763
0.620273855458571
0.624494390742441
0.623833911777017
0.6141152635241
0.611430258743359
0.609503947138825
0.617312621850923
0.606005584504
0.600591526146667
0.600683370229483
0.60012743802736
0.59436887791911
0.593327278266923
0.57514487633066
0.576956456940712
0.569027271466872
0.571166261671847
0.562081957654438
0.561554443241968
0.554573112266943
0.564873666079996
0.555104046538457
0.5481492388621
0.552504149761939
0.562119101253765
0.548809974631859
0.554883778971033
0.548017761705012
0.559439320954401
0.561351717932798
0.563746478223741
0.557733720428064
0.570466499775904
0.575010098452145
0.570572552596211
0.569047432086618
0.583395148506671
0.56887568029779
0.561260625359373
0.5589348589027
0.562634576326273
0.553679185369428
0.552647243962868
0.536578443318911
0.530868739289488
0.521132652099182
0.53244876232389
0.518868933357583
0.518348484836817
0.5097978145841
0.508584225550681
0.511069707250327
0.519624485291213
0.50349761644423
0.51261426462688
0.519978773453589
0.527213867180323
0.519154260659118
0.535031078056834
0.54260917248801
0.531190398953891
0.527919539815758
0.552453370708895
0.538153181564654
0.551103027179122
0.558211135804709
0.564597246227115
0.566556045240073
0.578979623250868
0.566438555692501
0.570001410561887
0.582193506718874
0.594654770053951
0.582204085955327
0.579043493651071
0.591948775285586
0.593068779418834
0.572960031402261
0.597396264098101
0.578693348282372
0.602247909718248
0.596322783028461
0.592249678079427
0.595953317607642
0.596093644794985
0.58835215616504
0.601404453754149
0.577702555770143
0.603245342032845
0.598199955323421
0.607809719993919
0.599045472332441
0.600031763950983
0.586547076966718
0.603830341688919
0.586704706723789
0.585914690702651
0.580639534595501
0.581782702890881
0.57351858554295
0.585924828310384
0.573951785249084
0.578031146345629
0.564067591293655
0.570690473407872
0.555550220990704
0.562873665552937
0.556475892942368
0.563081792529937
0.563969629181751
0.578696738791019
0.561540379194203
0.563771729986098
0.573390853083155
0.563117085258327
0.54833758021298
0.571438910388559
0.556307488207561
0.566763782494133
0.56306213423772
0.587702396738585
0.580081499255741
0.597139538967438
0.584785107554181
0.570946330901333
0.591828609190895
0.607477659775924
0.578073977095343
0.594073943183928
0.596086248110176
0.610187580432684
0.618294821697761
0.631237483186289
0.598040649841949
0.653502926170136
0.619061184108463
0.629786237273539
0.622848591485185
0.657597266502069
0.66124616630598
0.668689843751826
0.669483416379149
0.672166638071398
0.679952442737151
0.702056931597047
0.683243924766056
0.745903456762834
0.711742323331363
0.733361387477124
0.728970579655091
0.737571277356586
0.750417528276388
0.752605092921921
0.74370563023823
0.815935048346246
0.755749955285603
0.775472293303973
0.755882671842025
0.734978432867401
0.753692557762213
0.804274996697306
0.748461075858689
0.83952425177113
0.822964415189033
0.823969712930658
0.823027073320661
0.855132652080527
0.741298040817422
0.85640429130802
0.850715385405493
0.88287501597899
0.853814199343373
0.917727609227605
0.813081061615261
0.849589760628939
0.861170597739517
0.92591588243807
0.834760071196058
0.937970438332568
0.934659600104095
0.870436599218992
0.854484340000139
0.915712253358983
0.843432366613404
0.857359400857427
0.830679825272124
0.907953176710644
0.851727525660546
0.875724788246562
0.896927893193406
0.83556286036218
0.847207271627611
0.951811175199887
0.824425215370637
0.779324163584158
0.808227899366582
0.932473163237007
0.89236736509025
0.855227759015875
0.816092362989594
0.899977378892499
0.823050909231405
0.828415430057438
0.826011284778704
0.987157369126271
0.845171863935562
0.876788829550414
0.829289399651722
0.961717585904234
0.900054227612151
0.809666953134901
0.804379282687196
0.924095039874482
0.815133961762013
0.827761607620425
0.89222115475654
1.06177735945527
0.823334588024845
0.987702372354284
0.887643032020592
0.913566016574964
0.859503241279751
0.946152355297694
0.905577244365223
0.933522293955964
1.02089512374341
1.05533036293036
0.926176636355912
1.24111637524336
1.04916912342797
1.25095579476024
1.03818514819362
1.21162373076596
0.793554240072934
0.973786474421594
0.96147155918273
1.08165049705066
1.02646913153484
1.1620025456067
1.54402343352962
1.13542996339274
0.973284407373834
1.17408625007141
1.03789260764176
1.07890667509023
0.797409391530296
1.13305173947655
0.949929615635759
0.972449486281608
0.817047246319937
1.393814791224
0.980394576652517
0.924141450039236
1.30150243681617
1.4302749690029
0.839089108402557
1.30137079792722
1.31637741247196
1.04241627256902
0.861058333795386
1.28224639915841
1.07801524282332
1.2294917984261
0.881809304926195
1.11578137848621
0.83283422115667
1.19672064568117
0.917175479940413
5
0.941170889465295
5
1.08282956039825
1.68643524046135
0.822827811033274
0.944207747444042
1.0477548687198
2.53760784509454
1.90394495493029
1.31400137856757
0.664474677719192
5
0.955275065279637
1.20846844917814
5
1.45589805759897
0.716685775250431
1.9620543542677
0.804520702137262
0.694082259174532
1.3454199873016
5
1.16238376237124
1.01189383596399
0.435830736662451
5
1.08549262806712
5
5
1.13645338279306
