3596
4000.36533379555
650.420452594757
1
2
2
0.010696404649839
0.0279225479958737
0.0136798119577247
0.0261423238194504
0.0121026283117689
0.0349519538262273
0.0225947884108049
0.0229478852261347
0.0170113536470165
0.0311290537005307
0.0146528759128836
0.0247083976351547
0.0162960569223915
0.0243550006048809
0.023468112132563
0.0264036691336688
0.0195414211780349
0.0286158860967149
0.0205054764198188
0.033480566124874
0.0144864146517108
0.0282550383006502
0.0140351154286804
0.0254032726174118
0.0195765434783629
0.0317339151682913
0.0157130422496353
0.0316854833343956
0.0210318681407125
0.0316960157806796
0.0173169208382518
0.022730830777496
0.00649528973235881
0.031015918004693
0.0156289470366393
0.0268224697245383
0.0206607268652666
0.030298980060937
0.0174453707429809
0.026965759842709
0.0216480739865746
0.0338107755585288
0.0220714246064667
0.0283604655444882
0.0146935980889746
0.0262418855544882
0.0261579461965972
0.0275280120602583
0.0124402598243652
0.0319549894148837
0.0255830517142744
0.025534679607162
0.022384793094202
0.0386485651339388
0.0143363784627725
0.0265538421932691
0.0204039395706048
0.0309092142316566
0.0275918200187155
0.018153108503233
0.0210340270711482
0.0302131163794437
0.0221636268716697
0.0322415802175945
0.0192421397375935
0.0299351615299384
0.022088465605813
0.033175882616337
0.0109907618673719
0.0257093506528391
0.00981900107391497
0.023912764121832
0.0170209470877779
0.0305612425649394
0.0216231664686414
0.029517903593349
0.0165553657222155
0.0310147263138765
0.0187576571374023
0.028537675154853
0.0185703354555472
0.0318786645714396
0.0265700804478415
0.0276187337937815
0.0157619323073623
0.0373430344561167
0.0159305491694799
0.0355369951819841
0.0244423581221096
0.0348828832237208
0.0165695980236761
0.0255925223629047
0.0120821597869533
0.0319910958008536
0.0168973458367888
0.0283836910711999
0.0132700301804554
0.0299632990618396
0.0110525964370773
0.032614882980653
0.0119592064018513
0.0372297457974655
0.0299145046805721
0.010700451634815
0.0353186211462309
0.0198669075466289
0.0220257223719215
0.0375061796715623
0.022029918801864
0.0286793454110251
0.0208304621537521
0.0301961544284697
0.0137133777423702
0.0341937147846162
0.00529961275454835
0.0480703406379294
0.02438510861349
0.0288213598503631
0.0137267930242861
0.0315809691289257
0.00806429378449452
0.0474165017484584
0.0131728777071555
0.0290438214240815
0.0148466751306509
0.0242602691702791
0.00969885387290031
0.0398368782719013
0.0232264551233758
0.0380338763527598
0.010508657906473
0.0311070529332107
0.0200636419145243
0.0260848219128244
0.025221616376501
0.0303664229676587
0.0285511942671992
0.0181978426827283
0.0254660178135009
0.0445005577206708
0.0247752766095725
0.0380537829166961
0.00595170046508408
0.0301106212572005
0.0206502562870593
0.0325311739916057
0.0170700960150532
0.0334742875464368
0.0186362817279367
0.0316963178745101
0.0252495603244818
0.0273931600288457
0.0170401332518574
0.0339981711355861
-0.0169130384050107
0.0666435018945222
0.00375960292736441
0.0456552765340902
0.0238637663110317
0.0292253975178991
0.0263615050411909
0.0233860285396569
0.025032548323383
0.0213765840705937
0.0227213273148778
0.018899748964815
0.0270144761074332
0.0296322205770258
0.0144526424427648
0.026193499650606
0.0326528439758857
0.0258406823355289
0.0137575534682944
0.0575130470446414
0.0164728055322438
0.0349371689193861
0.0252155597871303
0.0342499435902925
0.0158125805222294
0.0309617809120486
0.0224199623612026
0.0294321755627052
0.0256101553023661
0.0274101830323637
0.0139623247328498
0.041507800726478
0.0246215959804463
0.0377430116141125
0.0206915861671907
0.0247279992442806
0.0138373014319365
0.0458193672524072
0.0212611821188437
0.0398627251870875
0.0228148968622141
0.0126615280250193
0.0374896672292905
0.028616332234376
0.0261458886344993
0.0347922894258378
0.0222776854658151
0.0331110924213486
0.0215367034337358
0.0380312881379207
0.0132464300743542
0.0207597915257191
0.0368047962660806
0.0403499484339517
0.0277006465154671
0.0321158081649299
0.0180262779461691
0.0127450442986902
0.0474617587045693
0.0289680436493906
0.0296111934988355
0.0299270159856404
0.0249991471166166
0.0293249357504189
0.0328381053970689
0.0379700908261339
0.0305849518165514
0.0399042721356256
0.0292974996026105
0.0308360511465395
0.0284882466305405
0.0358739670972489
0.0267632190499981
0.0349911439224079
0.02566161747374
0.0349953846828816
0.0320584509281067
0.0335583327654546
0.0265898345751703
0.030756604697993
0.0256394415796944
0.042002328855964
0.031491426072644
0.0395205888812964
0.0293621879019691
0.0382692528987069
0.0345126991672515
0.041930434393855
0.0274367087778987
0.0359904708951415
0.0216828445205101
0.0376645833762038
0.0410246111084791
0.0347719888007788
0.0345450999087285
0.0246758115832878
0.040180528417761
0.0345881228021541
0.0336922714361097
0.0307450733843284
0.0463579881454476
0.0279787542338887
0.0319356481926436
0.03538219984907
0.0354886191389922
0.0293184323064575
0.042445490981146
0.03515209745878
0.0414957410381327
0.027760014938609
0.0268956111541463
0.0636223896498334
0.0195288659604207
0.0376165907023135
0.0518020003599611
0.0338893847386232
0.0435011363266538
0.0264174639002435
0.0111985160557985
0.0742425814944033
0.0486064349058216
0.0401895363420209
0.0325597186672623
0.0536976683408755
0.0365257001752306
0.0518167527358365
0.0311080289071171
0.0612368979614083
0.0251633484239911
0.0558107747198617
0.0425147390153804
0.0377704668186798
0.048942656213447
0.0411710586974169
0.0514737542966056
0.0438568627564698
0.0527435760582199
0.0344753717355703
0.0502616701596218
0.0513077239425868
0.0558903855964548
0.0389353741477574
0.0551764203936225
0.053473715619339
0.0543672386253795
0.0488609229031232
0.0518307994859783
0.0585589541477377
0.056624579958272
0.0594211180215781
0.0526900431744342
0.0628248716553893
0.0450564806966968
0.0572850879776857
0.0688003793291764
0.0581036413813184
0.0583604803562235
0.0708563219210876
0.0615244387631707
0.0623367621705674
0.0658685079441479
0.0691388558616185
0.0688741282411799
0.0638176100405017
0.0706095252244923
0.0852667603245144
0.0699327226947413
0.0784025332001376
0.0677933755940636
0.0838805171603973
0.071153728416309
0.0891148821504403
0.0818541952173604
0.0870734522525522
0.086816467772336
0.0807432176293402
0.0951512533168861
0.0965119516100282
0.0762450488539285
0.115182778427116
0.100493255291714
0.112505109720505
0.100395243719513
0.112179959952898
0.105992339482268
0.112863368089545
0.11638598149868
0.123232579270946
0.120520255063106
0.137642388753602
0.126663880369253
0.133715590495428
0.118060300918194
0.157843740962977
0.153455045624839
0.152802014329515
0.141202695469939
0.140240763571357
0.187737659262109
0.162700851872117
0.183876377297247
0.175430820372067
0.173580656519245
0.175431643336687
0.182094652682437
0.191157071964253
0.182146067024376
0.198979118121415
0.200658985151258
0.21849506996266
0.207806593594634
0.219054871456385
0.214213743563033
0.226341617935477
0.234579568538302
0.234429744411606
0.232758357523624
0.243032367981238
0.23234177430621
0.268890225682239
0.234488741475847
0.282305361082186
0.262587175259445
0.289379506409225
0.262697069405725
0.294081091579449
0.273548185726227
0.292512598667803
0.283243296541907
0.300853601783851
0.295914114429526
0.32288814800485
0.304847476577223
0.326122819353083
0.318423029538202
0.331924011701518
0.318939081622392
0.344778156773651
0.333267620730099
0.3504375932046
0.349643313760475
0.352159483728248
0.358631689798332
0.390590266081285
0.360050144176382
0.361396214717394
0.372070684522323
0.365768705833752
0.381648710610592
0.377055569091702
0.398832546148854
0.402410981154364
0.381409634235762
0.415036784066166
0.399143170946802
0.43573273903831
0.405385157979721
0.418802509173255
0.433790593960721
0.415370094259338
0.432526477572987
0.458974760444196
0.42977195035753
0.440120984985528
0.442595065463348
0.451684695951091
0.446075713993523
0.466287308785127
0.45831068726339
0.47547330392294
0.468894081640299
0.48682705353152
0.472691080948399
0.494421302054283
0.472100825819777
0.478373532655757
0.497753215653514
0.512593210954949
0.499653014481902
0.52979508547605
0.502166083515106
0.533007215365483
0.52251301266537
0.534548743900602
0.527538678893017
0.554074207497553
0.540228317078472
0.54454182915617
0.532641268211704
0.576839021715814
0.547521408134937
0.552976236983093
0.54345277061789
0.573411743829249
0.576571375320004
0.593687475432784
0.573085559771116
0.592859092504293
0.575449505367797
0.614602588688992
0.598546453929687
0.619934698784519
0.595036801952214
0.595930144075675
0.603659220933556
0.63781130279722
0.603460622965053
0.638197027980767
0.631175716512673
0.666627961286297
0.645504369310962
0.642179083823368
0.629762556379094
0.672490997361592
0.692465861574646
0.687907120113958
0.633278440730046
0.708149543056725
0.680185180626151
0.679042961965486
0.70183148007763
0.736976743800187
0.709050751570673
0.747530606176311
0.682284502737703
0.717133520355603
0.68429834598375
0.745432712409503
0.766472966810568
0.745294943942466
0.729214309683122
0.77027433141783
0.713049901822888
0.749789128473511
0.74195385878668
0.78004855831829
0.715575368915326
0.817127437551371
0.782091275570191
0.880198608791917
0.804689794552109
0.815589063840798
0.796772905126108
0.824065764334881
0.811512705494084
0.859122081903226
0.804129593833521
0.843087275627637
0.82251617956763
0.899137363282779
0.823258407311217
0.819853026275637
0.795746242703917
0.908825362923409
0.845645864732289
0.90773016571973
0.837004599971848
0.864193480080791
0.87358427413702
0.927359447245147
0.876361299512971
0.941974783817156
0.901340517252497
0.936624964250945
0.929008179626047
0.976934627931343
0.86331920043432
0.978875716051745
0.881167331541095
1.00076040505509
0.917738266947848
0.959956912687565
0.865688437718759
0.980177061376013
0.958756866233298
1.00940719825023
0.940129204549438
1.04655000125405
0.872361827824119
1.061769836087
0.956045826435214
1.04865179664077
0.976891219119115
1.02248425808081
0.956594994212632
1.07064814590217
0.98570734378641
1.0386626999498
1.06431205143847
1.05730999991272
0.984376230129938
1.15778981778096
1.00941418478482
1.07411706406468
0.974080447066111
1.00767825405825
1.0527234544352
1.14323364476727
1.09504107495395
1.12800964206465
1.07043835335122
1.21813735973739
1.02312015259275
1.10914678013692
1.06154713800781
1.16304990529803
1.09417136749094
1.18607791431084
1.14953509388111
1.2348294469055
0.990552802412765
1.30125039251185
1.09404103796361
1.24363489551137
1.0951452174393
1.24722594946134
1.12441939568113
1.23122621249933
1.12583531693122
1.40820116078802
1.11400990556034
1.27912767986285
1.18461690868472
1.28627939387914
1.18566939368643
1.3621678403641
1.16063959688935
1.47938578721119
1.24372505430267
1.29305886662789
1.26189708349938
1.45685050961218
1.19814606868604
1.43510862849303
1.18698070718354
1.26797645423034
1.13473756376153
1.38078397844093
1.23630204937498
1.32922305737523
1.23812442387896
1.41476580518854
1.24943248725522
1.37693178740373
1.16292337853469
1.51283618131863
1.36281281779368
1.27033266314004
1.33556554327994
1.54318085272597
1.26706030430689
1.50054705339264
1.39321738009822
1.33086912540145
1.26304234102909
1.62502296220019
1.23202346360467
1.30235108137211
1.3500546322954
1.47523819192016
1.40661503698743
1.39351830818733
1.50249536850792
1.78501025475163
1.31895206931939
1.57858434215267
1.45751656516166
1.64686779234574
1.35400843985629
1.44928328655314
1.34827775542421
1.49256486650676
1.35296844996465
1.53905612647141
1.50989583383745
1.45367548366104
1.31877250311085
1.88803521761977
1.60203231382669
1.80289610017816
1.54957181305366
1.56451044672735
1.55289747453736
1.65092271038201
1.42739350931575
1.82942680689519
1.4960677920392
1.52950029044354
1.50573802645291
1.97011622869955
1.51068420406643
1.49381202536818
1.44124938244901
1.78764101773888
1.42761037967716
1.65622554874469
1.39638395701743
1.65554179223962
1.48499598202338
1.94451386557471
1.42430695979943
1.7756155186469
1.54510991192848
2.70978553659264
1.47763404758337
1.77238377978228
1.49816872729635
1.61990499345002
1.52319478677056
1.82449859672511
1.51248092770273
2.12327288159984
1.65397282554264
2.31796514983249
1.60408092525461
1.57358385931595
1.43031632448175
1.66040280143221
1.49603202545536
1.88293521621501
1.47158947822019
1.72341984734337
1.58383626216437
1.69322433081514
1.69899511892308
2.52085297613396
1.55888781449539
1.70804999533014
1.59224050582519
2.1906706372363
1.64680166367511
1.80284564537663
1.75459894417408
2.37672836049176
1.50962607843922
1.60241512106614
1.73267212879663
2.52720249239378
1.46203118111748
1.92572960474643
1.37856338474418
1.71564380058932
1.66322762248867
2.01629294112485
1.50281797183846
1.72149845334419
1.5250821212899
1.72829695916675
1.5031669574408
1.70387524450289
1.68740896536745
2.01108242144096
1.58223112488495
1.85535142493966
1.6267676895404
1.65201195422996
1.74816823966918
5
1.66695786658569
1.86072062095069
1.58060333617143
2.60116264955469
1.65487579645588
1.59324700212452
1.37616548689808
1.67749027203041
1.54587485503014
3.44061826671263
1.52763325541408
1.80595748369887
1.55278661884721
1.78852537311328
1.47033894121344
1.54177570245514
1.72222591463019
2.19778418401912
1.52783584695424
1.86946096422487
1.54278816115143
1.54940035817919
1.74349536726875
1.8889672765106
1.59585839225474
1.6763745053555
1.61315297992258
1.72105990049971
1.59762314904363
1.68964999211056
1.66862017339076
1.59515499346392
1.68861589398145
1.88392464543457
1.79584638762644
2.28388310274166
1.62720720888491
1.7698615284426
1.79535026834165
1.60615046327181
1.47436023227389
1.65310119284038
1.75649567674918
1.72319379016111
1.86217933982091
1.85787640099096
1.61431810099525
1.79334213316344
1.73180101341606
1.89907391257375
1.58571135247788
1.65247129390365
1.57619028364606
1.76030135134757
1.65860872727875
1.59240861732611
1.60926899479249
1.85745860247698
1.5444045900314
1.83214766443523
1.85136047870975
1.51509046487508
1.58412439963232
2.03768377952946
1.54645069522229
1.83514758119118
1.62272157094351
1.55193675777104
1.59624614137556
1.97064569025391
2.037146058226
1.74278899732731
1.91547554097452
1.88068802800355
1.75666109020904
1.81940303891133
1.75667202210714
1.82494961504456
1.6576411402644
1.68710913946733
1.75530466142619
1.72438636408595
1.58829319335964
1.56157191281169
1.72780411580591
2.79176968100478
1.58046341433344
1.79899645566922
1.66298030003828
1.82143542867704
1.73399839139164
1.57650560080561
1.68080475640306
1.70441292433787
1.50624707779968
1.66577603723207
1.78060957334258
1.88708020805982
1.62590376713181
1.93938715630519
1.6964951134797
1.9163011061668
1.69428403626077
1.62005849589406
1.53816577912917
1.87072540986434
1.53830052210819
1.61255568502921
1.50563490409346
1.56797646068632
1.6117134363113
1.80883120826797
2.07605580399155
2.03167636082178
1.75139434592558
1.98205343060919
1.52587663244249
1.78257052079814
1.83270869630532
1.67743140863794
1.65481566318202
1.78323388188694
1.62041559909932
1.75774721170368
1.46046325241143
1.55102396546807
1.55019601274595
1.72849310021546
1.49568795373404
2.27668716659375
1.70737789407155
1.83183672150347
1.52106283379198
1.7841624420415
1.71191120903544
1.79049347990923
1.51764937621777
1.7428839820194
1.52067841028527
1.61413003801133
1.5901846979023
1.4980110484601
1.49762890858244
1.6240429273849
1.56146872694969
1.58441262932411
1.43558443803869
1.49855990106299
1.42589667237428
1.57869102718214
1.54910020681066
1.51265002484221
1.42205458469825
1.5604235070624
1.49340301925968
1.50358691436513
1.45338072465341
1.67573483378115
1.51793590974652
1.52405485201432
1.50372544492762
1.51785219241659
1.48107011550042
1.49557428399064
1.49888059292658
1.49900328689313
1.42736203457183
1.55856199035886
1.49026247305985
1.43412993482756
1.38937690037966
1.47269999720288
1.40499851337976
1.48923028572414
1.40430041933076
1.54811075442986
1.30434931382603
1.46126133886309
1.34056827917063
1.40058989492022
1.34399557436301
1.44578052363782
1.32891191063543
1.33071346721644
1.33644178945619
1.37763939116777
1.35487881817855
1.3989122822027
1.30949411139231
1.32216333448717
1.28622969018075
1.33864378585899
1.3226918237556
1.31309261708439
1.28175870359481
1.26827360920186
1.20549750483534
1.33394092653599
1.33863411344225
1.28174726377994
1.18590119682428
1.2373822236867
1.23753539109962
1.27530248875813
1.24994088118794
1.25587756693518
1.18189229551481
1.21135231083114
1.18758768843449
1.18339030239563
1.15607053906963
1.13805139864864
1.17994855320917
1.15929016283362
1.13151406718458
1.17542390302413
1.15921439457945
1.12697567600856
1.1234813412903
1.14495303699638
1.05088130022412
1.10697051848847
1.12956181157498
1.10185109862216
1.04728411596779
1.08911604612447
1.07261296780282
1.09294118131627
1.02868131419659
1.04251253553783
1.02516078072625
1.02182612820452
0.986464299657053
1.05034241161879
0.976649346767246
0.972221474901731
0.983483688429218
0.99871403621513
0.979115056598566
1.00697378165335
0.96392570734773
1.02313090555891
0.964246326666802
0.969416540717525
0.892833606734522
0.926407547420559
0.951745929186786
0.95334052085237
0.935216425064029
0.932279844203701
0.911782030352808
0.928914400305544
0.916847505078462
0.915875652400489
0.875875131346112
0.886797892298285
0.855992297962663
0.90119123204672
0.871349941683778
0.867685887677437
0.845183811435788
0.863117774165696
0.825657709209994
0.827839926736473
0.82734237938049
0.829095330460781
0.78961643224277
0.827241568326169
0.803557117375868
0.808806257704894
0.784242772194752
0.78447453669387
0.797023885239015
0.786674216246322
0.766204457232873
0.788957945524763
0.772728212144973
0.765975556924246
0.752781184274486
0.761003823836496
0.744875176250558
0.747613308561116
0.748014060897218
0.740741694617565
0.71661895539281
0.725214661604872
0.711852420242976
0.703000214618601
0.705414214029654
0.725696118583638
0.688138473602731
0.706654041979661
0.697155755948715
0.678186086718031
0.663932290811401
0.694573336685681
0.667962230082696
0.661784037646056
0.669110781573212
0.65660731441079
0.638491390543745
0.633426613143142
0.629864983478387
0.643486323764314
0.630056858263185
0.628870027853244
0.611935262892306
0.60853608295726
0.604897203872388
0.616770631872112
0.597136685351509
0.599316747710697
0.603450769947742
0.592751918114581
0.576954484466383
0.587121794919131
0.575886153892794
0.569973327866354
0.558881784577526
0.57100944286338
0.564694552879418
0.555877828696052
0.55098810409142
0.552171418753232
0.553342655047199
0.551387835241589
0.537662574274969
0.530959649131097
0.535448250706279
0.524495107698324
0.522022526823599
0.519850513840131
0.516671954377291
0.511132686237274
0.511460523985949
0.512084485897663
0.504619708025476
0.493803794914735
0.490217602930274
0.491854131223668
0.476139064123103
0.483640000458585
0.482612624150192
0.478811450380212
0.477751031985378
0.471634994120622
0.473996196024316
0.467278947743937
0.456694887014101
0.458208493037823
0.449607639769587
0.452059494757089
0.449894638643304
0.436290272615835
0.443757167657855
0.440419115430558
0.43559534206214
0.435033823192595
0.426428457155968
0.428285955414217
0.414642074623752
0.420936533189232
0.409850295079871
0.415639684062062
0.40947198704709
0.411872506464118
0.398731599962261
0.404548826127614
0.404734439685594
0.403406305269038
0.394391710959133
0.390878752779176
0.379289127594562
0.392291339274206
0.387665831185366
0.38572541180737
0.379815218784696
0.380748522714351
0.378265423969568
0.372911435953278
0.374159543204344
0.368266376031523
0.363680511332934
0.370534669864133
0.362919820844644
0.362776356691812
0.35347588103342
0.355159218348206
0.35604557601369
0.355615701702827
0.359483267822903
0.355330369570806
0.344812646209378
0.346172506274395
0.343596042697807
0.343755618481448
0.342273530346362
0.343841154526574
0.334722088851084
0.332577582791711
0.329871339305056
0.326108931064112
0.325496118182962
0.324929047744125
0.324029929196014
0.323533318637723
0.330548295123971
0.319551745053922
0.32107723042451
0.32284179137253
0.31912062571284
0.32101747404822
0.31565430527582
0.318021249151085
0.317205629755945
0.307854670141151
0.307579080671423
0.315779719820109
0.310012114498948
0.301978793385665
0.300254334916755
0.301688622030609
0.309955415417465
0.309839556245448
0.292193352903519
0.303418178984335
0.294118535916671
0.292650709767129
0.301422070274702
0.299510283887029
0.292375001013704
0.288658591201997
0.291436912482815
0.28817296669005
0.293715931941916
0.292656668128821
0.281822164817889
0.28629704148797
0.275506178307985
0.277694043186918
0.281603286344933
0.28277691638691
0.271888509255333
0.276685262945994
0.261966892821174
0.269454331183287
0.267466343212169
0.262564184139514
0.261416827795314
0.26222513782865
0.261534414477984
0.259238233849539
0.257653248029988
0.255547929950059
0.253820273368782
0.253591199507818
0.252220560416042
0.244847997664061
0.246486591089869
0.247866342204772
0.245185251541051
0.253707227481364
0.253375912090857
0.241350190415635
0.246383097767821
0.244369513660983
0.241876205976882
0.247473582849176
0.238987274253758
0.237214458289541
0.240416382692732
0.233681081740358
0.233767970972422
0.235702984698511
0.233215710713961
0.234263625190922
0.233964823424788
0.230866320592803
0.228116349250507
0.227875247619488
0.228589791402672
0.221384807691045
0.22485781719475
0.225510568000531
0.225190495183709
0.224905436209933
0.221871157552218
0.222987022913953
0.218967954130972
0.219031979314142
0.211156100093251
0.214685024297275
0.215516129044975
0.220320404871552
0.212837940993088
0.207621782558553
0.208133817639596
0.208847434585913
0.208975042794926
0.204907516559256
0.202532651206655
0.203975123074631
0.199384182985664
0.195885747010186
0.197629956962825
0.204257283558153
0.195276695015728
0.193653724667046
0.19564756314341
0.190460290546237
0.190332889286391
0.193826433588279
0.189599097282391
0.185781010652499
0.189299596430473
0.187308676044294
0.181080696683133
0.182431955088963
0.17890763000458
0.178081210020313
0.178139086965145
0.178754204311398
0.17417991817784
0.168796529443015
0.173381020794357
0.168906075910032
0.171334334649706
0.169665690791067
0.169272330385183
0.16527665173814
0.16628896545408
0.163314775642936
0.164568191880216
0.163467520072043
0.15468194137503
0.157596478116817
0.160494249211798
0.156923688379058
0.157031633513952
0.151593069458387
0.15823411083495
0.153773524389672
0.152417815203353
0.1531846823414
0.154177488337699
0.147584801088575
0.150723753214536
0.150035975473103
0.148494815872976
0.145926842581881
0.1437825542962
0.143068235840646
0.14768205859448
0.143074231421434
0.141787397643781
0.140326567438909
0.141711038021501
0.140579941261684
0.142060275578696
0.137447842165755
0.138466436045908
0.138832870662538
0.13489976044997
0.138930204802768
0.139690115895028
0.130124198960006
0.131686867846158
0.13181647623232
0.132707823245679
0.127789587804224
0.12591504283399
0.128145718470255
0.131527968754475
0.130453518953296
0.129198866134184
0.132499746261396
0.125612515255553
0.121293170502367
0.123739644038559
0.126665326211712
0.124521709217337
0.117678203818132
0.11802485020722
0.120774702105683
0.124075640477063
0.122636601713845
0.121112285551699
0.116277021310045
0.119960389270844
0.114180055022925
0.117999913048446
0.117319820777038
0.11474927412218
0.11416418916306
0.117029964201363
0.116293152195051
0.118009645516945
0.117113493043755
0.116813562472013
0.111636781018588
0.111812210788768
0.112212812349886
0.110617711556624
0.113255913035011
0.111944293976391
0.109603391998043
0.112317356674204
0.10436764573489
0.107310191141609
0.107779438206944
0.107704938910323
0.109339934466717
0.108366782890659
0.1074001932963
0.105255917948368
0.102059582989509
0.105366932045767
0.103044381758216
0.104766323235641
0.104845062771152
0.102050654141694
0.101733423275975
0.105589185711498
0.101076554074775
0.103150712613449
0.0986815442381915
0.104814181199445
0.0977363150277138
0.103842398533823
0.100043891015097
0.0999970135643661
0.0977265089843865
0.100401542210812
0.0973092248319502
0.097879792002487
0.0992657853534831
0.0939902824870263
0.0964952979644139
0.101574363550412
0.0963666777497856
0.0960977609786344
0.0982467034922667
0.0985645986818335
0.0935488103166782
0.0955298809830131
0.0940193198059348
0.0914344234228343
0.0925803295852037
0.0902454886695245
0.0943763997860121
0.0929709584588959
0.0914885377342257
0.0921605013489711
0.094497321203882
0.0929435661724897
0.0914798567567839
0.0891289865958316
0.0880863810357546
0.0892191407972451
0.0909836352536328
0.0883335227419652
0.0904617137610055
0.0905865186266826
0.0873296796208778
0.0897790665052495
0.0894524965381156
0.0913350782343948
0.0843283569148235
0.0902366190142985
0.0867085172578287
0.0904910034754833
0.0846815346963145
0.0879699026223179
0.0880174600746729
0.0864019272963759
0.0841703234165458
0.0835984226502638
0.0893531928820839
0.0851835014713553
0.0853404130785251
0.0865540614914505
0.0814367302797958
0.0887131639394252
0.0835148941586357
0.0823243211932496
0.0856660789998932
0.0888185948014992
0.0824305264341291
0.0866759375873186
0.0815318372837797
0.0835201859757612
0.0840557544895471
0.0819794243950859
0.0785784535784682
0.0830590596406244
0.0816963731988335
0.0808109821658518
0.0787287472812234
0.0793383860471942
0.0796479487053487
0.0797784609926007
0.0800737318139373
0.0777810106151489
0.0735210781879662
0.0765687791387317
0.0764310908676371
0.0787463115134251
0.0759775862626715
0.0785337178369243
0.0751748039802164
0.0790811896484648
0.0739416088877801
0.0753750574103124
0.0730050143101464
0.0757580482063984
0.0702031255858485
0.0716778437750159
0.0767449749756003
0.0775314743989248
0.0728601012122771
0.0735126681040398
0.0784248847386668
0.0715376060370168
0.0738624914439526
0.0771401002233995
0.0698301164549826
0.07337840455376
0.0741488168562567
0.0745858016478211
0.0737720279959335
0.0707558903253325
0.0680519807904356
0.0723217910788838
0.0734322152996839
0.0712636170778857
0.0699328328065446
0.0701519887872858
0.0697178011404558
0.0671379238395199
0.0672346564192585
0.0706225147811284
0.07333012253314
0.0741883174272217
0.0703818518532936
0.0729110866240268
0.0700898054794042
0.0664639369679993
0.0686052028579134
0.068244349825499
0.0688691180393431
0.0716442211362411
0.0657392905228522
0.0681109341255048
0.068340856808579
0.0660137450076838
0.0653804591002355
0.0695764547569563
0.0673863843927908
0.0684694671835735
0.064224119519164
0.0697745704367713
0.0654894901302758
0.0664852699889417
0.0676925650098264
0.06799768351295
0.0658829280723144
0.0678632159316334
0.0663134636758439
0.065638274003859
0.0642144384157885
0.0644669900958351
0.064862979780886
0.0682806956368481
0.0624396337160186
0.0674285492440168
0.065784394158098
0.0655596080347538
0.0667228792117503
0.0663996159594138
0.0648868880863676
0.0698462853471985
0.0641104200448667
0.06714619343023
0.0642336018286507
0.066356520834613
0.0679017542838613
0.0687878711313896
0.0671645255523351
0.0640132700315238
0.0657760322290036
0.0621499200176452
0.0667988366175343
0.0673653228202421
0.0654983183921887
0.065582987854456
0.0643335645486599
0.0673616810683434
0.0664639251703405
0.0617695496234685
0.068397012026163
0.0648131086727889
0.063813147720431
0.063079622715539
0.0665468516894721
0.0655603266181264
0.0646195201158079
0.0668735450191119
0.0669371163061731
0.0651790165872495
0.0635901880500657
0.0631231724404976
0.0649256279236533
0.0660814821464898
0.0645049628200234
0.0645376288185991
0.0645060742499522
0.0634816791715739
0.0635402779548771
0.0679920623096785
0.0683170188100292
0.0673919154757161
0.0645596497297436
0.0649154832413128
0.0639525551761428
0.0663957320776794
0.0621011824488458
0.0657716510816931
0.0649106757447565
0.0633342507184208
0.0647162645146479
0.0660373111950569
0.0635646338966564
0.0653895262249128
0.0653834809118897
0.0657525171403415
0.0622887061219886
0.0696311741608418
0.0647137989608473
0.0663895464933705
0.0665728767044048
0.0654233382045037
0.0651352852865053
0.0691602791787967
0.0686323206621837
0.065981382610938
0.0626273714250185
0.0653465371796831
0.0679414955932966
0.0656457431610677
0.0624875119980891
0.0645365046609322
0.0671216387460541
0.0706152166763835
0.0667082470442403
0.0659118795200579
0.0681284853026285
0.0692967858204793
0.0664718012084961
0.0648102296686284
0.06619452548534
0.0693779453794002
0.06286089334447
0.0670056922002438
0.0652645624061911
0.0676819228782313
0.0629477285619092
0.0686621346524462
0.0673243488360573
0.0664574269360854
0.0680431646746022
0.0705082842680926
0.0693425098832841
0.0691472776869085
0.0682834352094557
0.0674231328911797
0.0643889524709044
0.0658766037082847
0.0653046388951189
0.0655138575010192
0.0663337273947518
0.066624369779321
0.0687642699779269
0.0658153606090012
0.0654013673520823
0.0677864750794624
0.0675727731662212
0.0687870588301345
0.0674748151460828
0.0687808122556732
0.0662461557748194
0.0677616827633091
0.0706914475767619
0.0692648290780306
0.0660997151777127
0.0682929076470424
0.0676385485878585
0.0695683360318101
0.0677510752850777
0.0702452992193458
0.0672126390700721
0.069613500100059
0.0705802759048168
0.0715671164537916
0.0680785384853401
0.070931541018308
0.0684061902135603
0.0722593084624738
0.0659254749780556
0.0720095051400465
0.0688214607576212
0.0723549626354379
0.068597496957551
0.0720786599582917
0.0694538075979655
0.0686702446719064
0.0713253560417264
0.0693123957569821
0.069900777838796
0.0750867726321475
0.0687458013195556
0.0704975002698414
0.0715692611491822
0.0707244877875337
0.0701930161089367
0.0715639083192795
0.0706154903227276
0.0726503755672357
0.0723088074146568
0.0722777741645236
0.0726900914417247
0.0684338456530164
0.0701294007429439
0.0742526283756414
0.0687881979239093
0.0725846045521149
0.070763041102872
0.0725823522988942
0.0737999681707351
0.0740931205951904
0.0715428994070946
0.0719746708248807
0.0726771020791151
0.0725108563035433
0.0704806202940976
0.0716819310848238
0.0765833946332553
0.0751585821331911
0.0710392437032953
0.0712811426316003
0.0716502613065238
0.074977093771568
0.0734216764553387
0.0721604060507767
0.0724525371789062
0.072371095739442
0.0706970535104449
0.0707852450417825
0.0728432964755217
0.0732406116473961
0.0707249796432312
0.0760568267020623
0.0731780221662527
0.0752027477114842
0.072699312102377
0.0770269410994769
0.0745534311085816
0.0752754981920033
0.0733795560824896
0.0759717957075605
0.0731744341575976
0.0767558367498987
0.0722705386848579
0.0760282563178856
0.0757065966937087
0.0764856119682214
0.0750208153723408
0.0781951202751827
0.0753188342575527
0.0784709754000893
0.0739231037261498
0.0750671056807286
0.0756527559190232
0.0786437719130104
0.0739729199427121
0.078461828493379
0.0766193643082725
0.0783560911376616
0.0777081964342545
0.0812468814497654
0.0755812383331401
0.0776605345524018
0.0766578554505568
0.0797724429411893
0.0784915584451523
0.0799698520888591
0.0766231884918928
0.0784331598596442
0.0784177163600097
0.0804917470940123
0.0770149931078288
0.0818886572745713
0.0800696114628472
0.0787010801819577
0.0779771670793721
0.0828299794117832
0.0797956958183019
0.0795595550427587
0.0803815040285296
0.081125858033461
0.0806627509253997
0.0826737611721383
0.0793013133035477
0.0818025264475267
0.0831334327511499
0.0827833081047848
0.080698034283608
0.0809195108507256
0.0816988517400175
0.0822822544420539
0.0819654378347692
0.084704265386493
0.0826960736113858
0.0804973962498732
0.0801866410297524
0.0839124910221867
0.0823243048830673
0.0849786858479664
0.0809884176131601
0.085053273997617
0.0840625096026944
0.0830429989569401
0.0830484008037624
0.0839676919057307
0.078870950352502
0.0818408766442622
0.0828544703578395
0.0916788389791778
0.0852845062990587
0.0893760472671044
0.0857483969681265
0.0903640329240601
0.0837171489850286
0.0839520307052218
0.0850732854235004
0.0858282716304356
0.0780317753926877
0.0887937148919165
0.091186866002271
0.0881221471080575
0.0835421254096499
0.09097231685231
0.0855064862537138
0.0934525324231103
0.0838245796591558
0.090812364933007
0.0897515169011064
0.0891042462432445
0.0873859661844355
0.0909896296347035
0.0858232058004747
0.0864017573941546
0.0816209195404411
0.0934598690174509
0.0847946564058413
0.0905672989205968
0.0826783350140116
0.0970693790861224
0.0833835382548053
0.100191951260171
0.0835419486255544
0.0976231641529339
0.0837252143429427
0.102564581934745
0.0836355178413968
0.103327006053049
0.0826639414944624
0.101307252544133
0.0741366369433257
0.105749621293348
0.0736583716705281
0.108778643625733
0.0756004968466982
0.11140045673179
0.0709103940746471
0.119936430421324
0.0673453909217847
0.121122713460488
0.0722798223956346
0.122041238121347
0.067632312295573
0.121372120590222
0.0725091642161059
0.113731011207121
0.0831864896138119
0.112387539519021
0.0896149183099595
0.102160333757165
0.0961731565936736
0.0931744688143985
0.102030166653929
0.0918834051871718
0.106119437615589
0.0879061753194266
0.107953807909733
0.0951028981330752
0.102358581627195
0.0997928385869045
0.102010812289781
0.102900838513357
0.0978146941911936
0.106119785863547
0.100523476119365
0.104280225656446
0.0992533681043838
0.101470654541462
0.102786803253758
0.101066573709533
0.102037756151336
0.102850672182909
0.102561428656966
0.102013231742413
0.103902383598537
0.104190711751256
0.103727852694789
0.104043896272891
0.102909354253811
0.104657037076304
0.103804922631722
0.104785153451727
0.104395792210878
0.105576615016423
0.105879721153074
0.104949344640641
0.106264352525615
0.108905742008371
0.10628679279921
0.108091751103422
0.1098399729856
0.111283206797186
0.107029896475074
0.11086858492617
0.109209243782902
0.10685368374368
0.109511521337227
0.110320674066265
0.108312051598267
0.108819701932111
0.111413621032642
0.110552483123683
0.110817288507378
0.111786714554212
0.109021892759055
0.111141973845992
0.111781375911896
0.114379856715713
0.116269672636484
0.114291859000436
0.114502087327331
0.115517918463536
0.114288527393779
0.116463878383806
0.113969226066442
0.114956850775033
0.116978037978728
0.113696318047805
0.117969567531708
0.118983065450607
0.119305571761949
0.116495618413277
0.116428456091717
0.117837550228592
0.121002728810671
0.117253269159893
0.116941549701123
0.121359952630466
0.119884678927296
0.119549530550041
0.12097297796926
0.119473421270625
0.119198176272862
0.120741774320035
0.122453048667101
0.122709151990326
0.121387338968055
0.119024009358769
0.122602875879304
0.122413360674994
0.121550180115959
0.124064719661002
0.122641988154992
0.123313230816668
0.123286757773702
0.125948514982073
0.126177742406895
0.127617901330055
0.125946442868628
0.125878251395294
0.126762231427644
0.126988022226169
0.124605165149268
0.126976309658802
0.12560097431666
0.127735994060022
0.126074440977443
0.128130149845346
0.127903049508914
0.127821123624325
0.126058284128401
0.12802303437125
0.131343723641344
0.131116345563111
0.129916980394734
0.133912296823012
0.133084937054263
0.129858516275375
0.130052404008143
0.132120125164255
0.131579331631916
0.134161982386449
0.133332869475362
0.131539455115005
0.132750163492498
0.133919546194909
0.134051975370197
0.135421321287826
0.136842202031288
0.135531129488025
0.133712100302264
0.136749867664083
0.135540726703344
0.137951971669799
0.13382416893121
0.136900136747109
0.138890536688333
0.137723011019299
0.136074051525201
0.135250301270918
0.137173328427855
0.138269537012503
0.138490267175166
0.138796544537405
0.138937853417249
0.138322309495249
0.138070280566721
0.141197188297598
0.143022808209446
0.142430045909681
0.139561344193826
0.140494646538497
0.141762239968178
0.142601381754804
0.140564736397845
0.140124257907133
0.140145568466729
0.142317208004999
0.141510183704567
0.1420529268754
0.142111308406992
0.144068421547465
0.140315393503704
0.14486633309968
0.144222175938071
0.141651818993286
0.140014790169925
0.146506445927188
0.145386855808864
0.145068076544161
0.143557770843201
0.145034311536211
0.142851918945099
0.145267450266026
0.145913975980952
0.148943458544681
0.146354741628807
0.146713537848222
0.146219753605135
0.14583344894548
0.14446960155829
0.147632163134034
0.144512666531134
0.145688485795653
0.146836416128285
0.148215376998335
0.14637633827393
0.145107766063611
0.146840780718316
0.146876660210649
0.147957807630231
0.14918690929703
0.146574123663726
0.147134141059445
0.147756734586083
0.149152086126743
0.146836701644019
0.148306416023837
0.146362949829953
0.146863409524309
0.148045406755098
0.147214973816486
0.148165780304531
0.147442369948002
0.146645954610025
0.145497849793666
0.146929415896346
0.145791490516072
0.147214611375898
0.147664717900112
0.14489832663606
0.147084658865944
0.146889008641515
0.147300375149122
0.148280388804004
0.147834157074169
0.14513753240856
0.147354688295547
0.147702310868432
0.145664446582651
0.1467918078687
0.147743366214108
0.146676400291353
0.146264359187285
0.143651864012726
0.145896866497658
0.146868511091985
0.148560896268606
0.144977345325055
0.149205239149515
0.147718116030588
0.144889137040213
0.142203134394231
0.147741611099148
0.147027157106203
0.144188948429036
0.141562367540223
0.143538585377949
0.146849815883115
0.146185162117578
0.143849494679714
0.142725919925488
0.14175626389276
0.146456916934681
0.143560407838453
0.145318852076677
0.14274439445788
0.143999279971545
0.142745295066839
0.142324983633034
0.144466396479471
0.144382334065129
0.141054345224261
0.141320160453657
0.142729877192302
0.142222407172498
0.14043137079963
0.141305494566923
0.139645084484673
0.14004134617107
0.139522100188128
0.140894510352294
0.14018206979504
0.1394096187381
0.137892566811393
0.139523269851825
0.141574847344621
0.139593600305447
0.136896666301731
0.138199243492836
0.137901379778312
0.138103428408964
0.135816584937648
0.137344713122543
0.138126950686875
0.135049366336353
0.133911979457588
0.137210003435914
0.136471512625984
0.133600530403449
0.132937776518594
0.134300635560574
0.132816489869292
0.133149063433969
0.133092807989283
0.131521324111918
0.132397155837117
0.13390761791141
0.129888929930741
0.131314998047839
0.133063014729527
0.131976250483835
0.131628027770825
0.133773501843864
0.130512680355339
0.129460469216097
0.129567550875016
0.130038888939844
0.129045136555656
0.130363754144875
0.127519986664181
0.12728666513732
0.125519443426958
0.128671387463262
0.126648172022096
0.125320605301777
0.125242758411753
0.125379845954654
0.124495280723605
0.125772524528426
0.124857532488811
0.123504610483636
0.122206189975495
0.125967521800982
0.120674422601726
0.123025842690129
0.121876664554691
0.123870585617746
0.121888353810334
0.122119994627124
0.121432862722736
0.122282246096636
0.122383851378394
0.119746220410321
0.12062410804317
0.11880290974567
0.117608428749654
0.119498857286229
0.118952472201262
0.118446310667568
0.117308999318148
0.116442459525557
0.117658776552468
0.116336944251777
0.115819797493059
0.116436197401787
0.116901725371317
0.115575416161798
0.113340625410485
0.11423779458837
0.11672561815178
0.114224814043775
0.115727427747549
0.113363197517434
0.116757749676464
0.110053906434474
0.11349831301205
0.114261173992039
0.113229345781223
0.112154115105042
0.112343492526912
0.113189464281081
0.1121599400147
0.111904072471441
0.108624531630598
0.109102606608881
0.110611634724246
0.110126550035325
0.108586485846881
0.107972810358784
0.108278753403545
0.107464077025302
0.106637940127108
0.106404774639446
0.106945534842302
0.108273258829168
0.1087296928519
0.105127935156067
0.105765938955099
0.10807947322523
0.104736831402312
0.107332396749144
0.105224092858657
0.106310441980959
0.102525255725675
0.105006405611671
0.105831822541542
0.10521065228966
0.101975475203254
0.104692468040236
0.101339771835867
0.103341052467195
0.100935525771832
0.101521613343683
0.101186032099718
0.101303148956599
0.0988348352627302
0.103399501490593
0.102979903974072
0.102756623729175
0.0993672248482664
0.0998968032127994
0.0984448172332476
0.102998567090092
0.0976865931162323
0.103783707394254
0.0984246659174437
0.100522043667931
0.0958543291620618
0.101141647100126
0.101074778910557
0.102079155967955
0.0982662082250359
0.0983015633384177
0.0982408648981418
0.100212630150136
0.0963845664520631
0.0948003721253766
0.096498387042785
0.0954721638374581
0.0955363139123115
0.0974744125005795
0.0986615398730357
0.0973425415160401
0.0956497513045236
0.097637105990252
0.0963477850458987
0.0953334910204389
0.0952529209384316
0.0953543689387244
0.0989532146351854
0.099676632040948
0.0934644446020624
0.0962819303001189
0.094362915450478
0.0950634456756324
0.0982554780195671
0.0949570571722693
0.0998009851299336
0.0926980109549332
0.0977027720628108
0.0917124949914393
0.0954011259723816
0.0915091140873018
0.0922044009651083
0.0917622643106152
0.0953983498957193
0.0954409895110194
0.0948888821205406
0.093297865017016
0.0923783945506637
0.0943538583045804
0.0909209892157998
0.0908321922834222
0.092520868664875
0.0942362392297001
0.0935982858974271
0.0902555495311929
0.0948503496102364
0.0915044033282783
0.0918380577900585
0.0921787892886963
0.0917760084296608
0.0901327743221006
0.0942234044549
0.0882768831239617
0.0966679048063512
0.0912255642865339
0.0900282631947844
0.0924675047407067
0.0916390972320116
0.0909852805574639
0.0916789992491393
0.0922943180882724
0.0912940270553575
0.0949663168195795
0.0907529757838433
0.0924617180410037
0.0916146683327046
0.0912324092958783
0.0910637258378893
0.0937691537255911
0.0937631054757245
0.0927710754735088
0.0912690768723046
0.0943919999996175
0.0916310197143752
0.0876675056876529
0.0986815649374478
0.0938180583213192
0.0960750787562326
0.0908295988276314
0.0918912462808949
0.0925240378720873
0.0941913834397879
0.0932154766198801
0.0961167673506194
0.0900570938627298
0.0942090318707605
0.0898938516488035
0.0924998874529817
0.0919368456503503
0.0912170658805438
0.0920776920998856
0.0956016744369612
0.0910161918286978
0.0951841786620508
0.0931021129187388
0.0945163584386945
0.0921674587404594
0.0927851976186918
0.094094212353915
0.0952388069915417
0.0940517654057891
0.0855834273003526
0.110564821699462
0.0888272863186558
0.0972862057012949
0.0900001438256148
0.0948881566299585
0.0924140813163593
0.0916028423139834
0.0943009125712311
0.0952374705577676
0.0912131039542775
0.0974645268080893
0.092531080186304
0.0955569940490571
0.0944980006423769
0.0927883221358751
0.102142782433339
0.100205805969086
0.0944169883114247
0.101921468958045
0.0901478387706984
0.101564628942337
0.0969000278315009
0.0965248915158866
0.098042872008854
0.0973429693324456
0.0989146367013445
0.0975551952318737
0.0964062681426296
0.0980971847179751
0.100575425742626
0.0973118540612846
0.0992721415949205
0.0962778170660298
0.0992196634558961
0.102989111501911
0.0993792203767812
0.10271782007808
0.0986974287398529
0.102238060720786
0.102587267723374
0.101285784417948
0.104724989592689
0.101218917152925
0.101879527841535
0.100051658244078
0.108944830249345
0.102844439092869
0.104889583763064
0.10873398009386
0.103215719371518
0.103713697275985
0.107689217480371
0.104914972655652
0.110576337669047
0.093032100219638
0.120970319996637
0.104903985840129
0.118091835918697
0.106243775667228
0.111905983213083
0.10861907630286
0.112305863092827
0.108781427575233
0.113298017212662
0.115594101085926
0.108937864544242
0.117963111419645
0.110578216021135
0.122376408078044
0.112096176930087
0.117906258538893
0.112059149666241
0.118437353709375
0.11431747347179
0.124851113868463
0.108240980681777
0.120980864351044
0.130425009784165
0.123090797592723
0.129105505714455
0.115844443252246
0.130808457118964
0.129873947159549
0.121961610044914
0.127575207499212
0.123042569010887
0.131478052447889
0.120749909955402
0.138411346744582
0.13729853399282
0.130519417404811
0.139132729389583
0.135563895916222
0.139523983255456
0.143058055226791
0.139714162613854
0.140890936565016
0.140216445762568
0.139104865753844
0.142840044901246
0.161454079094243
0.137445943923546
0.164109633597928
0.148948244403882
0.161721694545525
0.150103552463313
0.158979861772751
0.153745078000656
0.165756825940805
0.160125930057061
0.163935875191771
0.157481606477077
0.185593897740865
0.162864089881202
0.17246678906191
0.172750604822432
0.170001001299633
0.176727300446125
0.196601804188437
0.188555720796445
0.191789352875765
0.17944904973303
0.194849605683961
0.192284273809496
0.19411518522144
0.197958734490522
0.200138545533797
0.204042833030956
0.203858740057676
0.206180510920742
0.216122518233985
0.212741086236824
0.223530724479225
0.21051498775646
0.232021086737998
0.223612995734903
0.26031954083353
0.227665926347719
0.249932422360139
0.254841056538013
0.250213285566271
0.257290698466202
0.25835290174393
0.268524382632785
0.272807610915089
0.273912766468834
0.277960856497406
0.28341533336839
0.305661399734912
0.281318871862256
0.316623107003595
0.296083670869498
0.315373437749276
0.282581995096886
0.369439137895287
0.343214676965048
0.327797320260292
0.346809153944702
0.321879654812329
0.401039284487988
0.362244221310012
0.364645111565251
0.372782675930431
0.373986453545237
0.384942807951751
0.397115290899526
0.400983783787429
0.410761792748216
0.426523052077319
0.415859043731817
0.407321413915482
0.472778300398538
0.44821219940141
0.464934717523488
0.454383605791272
0.471984185011113
0.48439153300375
0.478863474233441
0.484945485990256
0.504022845831604
0.47845672656996
0.552404186721991
0.513696994338898
0.531917571099751
0.528066298412652
0.559040825713247
0.540470584816111
0.565812938431277
0.594843676460712
0.566493881064793
0.589287130616787
0.581453288232582
0.60666711169631
0.589333488483509
0.624605377759608
0.631095340674695
0.62741198983629
0.635703324394262
0.63840471111798
0.651851921102858
0.653791030665917
0.665375942774994
0.658454649909567
0.66704055688818
0.697960511264172
0.785137194563291
0.735035811620799
0.686433782127197
0.714228674773388
0.683157693770059
0.730083289183314
0.708480733339206
0.733864654449962
0.752519053918418
0.724777082115295
0.740355142812133
0.732170387610393
0.747688077241752
0.744506998586842
0.748289026297241
0.746729210892022
0.751852328277294
0.753838602300538
0.709803699660162
0.794557545282532
0.738714974073609
0.739664400329386
0.728010530580741
0.741053661718154
0.737029735731963
0.74250358988448
0.71241130972734
0.753948663635283
0.710901619406567
0.702995635476642
0.692253335073327
0.698853514280887
0.7007637583941
0.677520837112211
0.682520594406101
0.669620974608983
0.667345131993954
0.650375632945415
0.626162911311258
0.698027694593446
0.631613278736122
0.626444935749761
0.606974824849553
0.608108184578447
0.601185916462688
0.584075727113824
0.56737955847935
0.572111898974036
0.562478597801194
0.56490977055575
0.543858936555756
0.541586061522458
0.524629561447159
0.518390979787665
0.525934087065652
0.522601282045527
0.505482528133297
0.498212614155014
0.486044086330429
0.481341455989746
0.478129515504752
0.471371306510121
0.463534729797725
0.457597956399734
0.449971511237291
0.449813319740463
0.44110316123573
0.439917764313501
0.431449562262433
0.429091256177399
0.419767971587973
0.418730095514035
0.416187830769234
0.411157767940309
0.403213945213284
0.39774022761683
0.400404740509853
0.392912683718151
0.391074296436118
0.382545964779489
0.387024862991869
0.368396642111139
0.398379846804527
0.400944973815461
0.35975658361991
0.377826485088876
0.361072587965633
0.371274957669971
0.349554214905711
0.376924433494415
0.363948807485747
0.360018688037806
0.361429043633672
0.353210155526297
0.346400781881514
0.362548710753927
0.338826684954894
0.351365763130678
0.323589202748712
0.345833256803698
0.368200265995757
0.319700590488838
0.375269624840252
0.340276197184914
0.332762679158469
0.320024377075464
0.350779785361453
0.321601905885894
0.328678916542822
0.317021197262932
0.323529181365581
0.32633235777551
0.309133178204933
0.317009357936943
0.302225248239402
0.313027043570608
0.324888382612842
0.305637829916184
0.29193276273573
0.323176914710426
0.296657294490267
0.307307245627667
0.316984364678509
0.310177421581994
0.298391876500688
0.296915482843131
0.291569281560008
0.27561839137831
0.31477332168781
0.294668686235387
0.290573219989071
0.291990890208256
0.274508113405297
0.289596874030439
0.278437076263471
0.292346800938762
0.271388826837096
0.308375373115291
0.269366140154898
0.282601478964952
0.283166002229672
0.291179442332839
0.298612880135974
0.278878595832598
0.267319351000965
0.273674657019838
0.296625550587373
0.272013307549585
0.284770958199005
0.269068220145127
0.266209339887716
0.281863027392559
0.269663907625576
0.266513231277695
0.275383774761744
0.26237392768433
0.278775782012255
0.279366085130745
0.284137530628359
0.270567778337661
0.257075466384353
0.27262059592572
0.256373364887232
0.264412205921055
0.255528458038587
0.264401705918543
0.276370332359932
0.246470932812713
0.281007116904164
0.26418444515531
0.261077625099527
0.263804547461544
0.260060259636806
0.258070121261783
0.265645261060968
0.270986152580039
0.264486080091068
0.253914680298904
0.274539592143075
0.258152231693208
0.264812761683697
0.257234774697284
0.264956850620616
0.260870395100713
0.26880756496817
0.264512921255585
0.260947878395685
0.264666559183361
0.267890046733845
0.256998498121837
0.286552915088335
0.252049587566423
0.285762370114273
0.264671881657061
0.284935567447833
0.278899036349252
0.267701400560917
0.27271511413782
0.26514402165789
0.274901555852078
0.273753832090157
0.264549037782781
0.293521087685727
0.270466386451001
0.281851777180161
0.276576614829421
0.286447302468027
0.267882654122687
0.285781918478816
0.269506924431189
0.288760568746671
0.308619742229255
0.273108569636719
0.290410378452533
0.277280272443677
0.284126655899859
0.281767094486791
0.280004870614403
0.277617721738601
0.273901903954436
0.284057038155899
0.281906228711843
0.28225435885877
0.280206779445605
0.279153951377614
0.28237783143229
0.280812881290984
0.282422712025876
0.278492216346826
0.281857776698526
0.284656883314589
0.261087999788064
0.305943960449454
0.285727971344451
0.283829817363541
0.281951493057361
0.279838665363697
0.290497163907861
0.276411630662867
0.290953664451487
0.284602354939744
0.288524175939519
0.290864253988223
0.286567057278363
0.286017750845989
0.277330310066833
0.300695624402183
0.282491990691691
0.289364140495606
0.276908035001217
0.283350856414361
0.309103058558586
0.274540059044703
0.298128042008495
0.283441199618908
0.289002248039558
0.280207860139549
0.288684034150768
0.280687265964629
0.28783247909479
0.281867236412611
0.286301947706605
0.286363689227767
0.286703936660808
0.283005604166665
0.282372690905106
0.28977016257919
0.282165907148063
0.280615211992781
0.286926355283805
0.286514813974783
0.273817663481526
0.275833446187745
0.287025152453897
0.279838433715595
0.28145670082346
0.273694943497923
0.286252107671685
0.285949714722983
0.276574941843987
0.278342960107128
0.279893619709063
0.280170931364488
0.277159252980809
0.274023784513261
0.291916057259375
0.279440204985933
0.286482773352527
0.275773261957273
0.28752792898921
0.284758109613148
0.290848940252902
0.281829490587259
0.28916801653173
0.286323089551355
0.292863051403393
0.286997420715544
0.289858006569608
0.288690570830344
0.292055854476172
0.295492925634819
0.29273184189539
0.289897336023145
0.290234405517405
0.283336447666232
0.288073439418894
0.283177631720793
0.288503084193764
0.288028595542219
0.290853629725232
0.273999060019296
0.293265401272036
0.277745193507485
0.289227201094034
0.282264555895703
0.27900525717876
0.279620268182841
0.280122694229923
0.280535590516123
0.282662768159181
0.281721411935095
0.277673268032278
0.277422265692373
0.280447042930922
0.276814667643288
0.275781341564607
0.27315132141572
0.276289806562601
0.276980925663279
0.278836897337573
0.272503303370393
0.276540667247245
0.273220837578839
0.2777544835011
0.272662746878395
0.277338526054348
0.278537291679033
0.281479032249741
0.27444494422366
0.277681980890936
0.277447427265256
0.272882657387011
0.273271776218768
0.271963812279193
0.276132508110402
0.276327603193545
0.2722979007255
0.270884454721377
0.27617562693708
0.274435391558145
0.274940994514177
0.270618664798685
0.269677591422868
0.265702382492645
0.269928720026782
0.270691737616274
0.271562900332557
0.268489689541661
0.266702070516679
0.271386221003799
0.269940106715799
0.272793340785114
0.269643307288189
0.270299366428491
0.266909724419244
0.27214837928716
0.265895327266716
0.266701771275224
0.268589328993356
0.269281757916191
0.266531284375652
0.270112633998987
0.267122213044661
0.268739319581704
0.26363576251387
0.266063579579983
0.265638455721542
0.264910157390137
0.265365833720686
0.26783050298737
0.261776362279178
0.258969231267342
0.26077541266082
0.260312405902872
0.261595551616479
0.259487890401194
0.260034920039291
0.260777966550882
0.259309389948343
0.261919596872792
0.257352434275536
0.259723452847029
0.25943331995749
0.256274911298927
0.256544612566001
0.257398405795781
0.25880532050618
0.258801175034028
0.257115500066929
0.262016466410595
0.258472001792119
0.259252278324053
0.256746967857416
0.257610754629296
0.260571384697301
0.261039005880296
0.260011709791845
0.260678596137187
0.258761791328411
0.26056000403251
0.259990936884293
0.260620607350592
0.261792895754267
0.261682529103629
0.259847865401378
0.262129123866339
0.259192825919786
0.261772809943841
0.26301905490574
0.263058440440183
0.263401162023086
0.265439567136107
0.263638934227448
0.261877853879053
0.263017333783328
0.264697126305217
0.261722124826047
0.2620525595952
0.260645344467988
0.261179770893217
0.260565038359748
0.26085501396402
0.258131317796586
0.25898735939898
0.260337911677869
0.261141643679106
0.259322455977464
0.259722559741755
0.257596660529452
0.257014405008534
0.256616695190515
0.255722783561314
0.254959375985847
0.257777872427069
0.252583359500294
0.25429383576342
0.25650321438154
0.257281177922925
0.254796007288724
0.253960406808324
0.254250729957834
0.257940925624982
0.254139128696846
0.251585194650225
0.255535929931747
0.256284818391985
0.253950923344105
0.254824616881367
0.25596713935959
0.255557489702839
0.25323470700516
0.253441781774038
0.256485517451294
0.254294925653979
0.25116372255188
0.254048086869854
0.253258980377989
0.250836151824986
0.24885858045584
0.250560768071591
0.248360016565733
0.248102549621381
0.247906534391268
0.247631714030773
0.247260832650279
0.245583915726889
0.244643062062222
0.24552204760757
0.249114120898829
0.24638244217797
0.244930731980092
0.24589480795443
0.245187739619507
0.245828127343444
0.243164351345801
0.246934002360594
0.24694954806806
0.243668906463313
0.240910786939037
0.241592518643721
0.242052051519944
0.241239673920208
0.242223448781265
0.241437557507589
0.241595760627702
0.24265029539847
0.239216452531114
0.240386369942202
0.24075617424075
0.239788623229592
0.23906460119691
0.238875700360222
0.240727377269203
0.241002177781173
0.239111361886795
0.24098606853231
0.243451226096496
0.246295359943744
0.245167362192562
0.245512628965701
0.249925056078647
0.251667508532289
0.251847703667986
0.258857321452524
0.260334074597253
0.260440862455692
0.264928909949636
0.270793859339974
0.273801693359237
0.278116420286569
0.281018227723923
0.286135067855448
0.289992824391013
0.293152291512714
0.299297589922056
0.302967024570238
0.308921508255824
0.312281292602421
0.312990436025187
0.317324224313625
0.317462261719479
0.319016069916914
0.320671471116736
0.321795815412014
0.322483973797425
0.321871715283305
0.322288518800392
0.32041576770171
0.31918693408323
0.317067428615609
0.3169496327181
0.314102744605452
0.316235063874569
0.315292515810118
0.30983131855317
0.312668915756074
0.312234361505019
0.31251444162089
0.310220616827721
0.310629145255512
0.309866812703896
0.310646538864511
0.313415850388802
0.314014417179559
0.315289332664391
0.314981424947003
0.315036094357298
0.31723841843168
0.320147541885725
0.321354068731728
0.32474026654729
0.325021560529882
0.328514896944957
0.332242358931207
0.338241120083168
0.340932961246272
0.342889410228722
0.349290291555925
0.353144773911327
0.360212777138582
0.361913046401502
0.367199322428044
0.364597267708658
0.363333103829769
0.363680790056531
0.363957463703773
0.364639892126775
0.364714109920542
0.358976957625272
0.353073691409901
0.357184275417172
0.351061930791711
0.348570013267337
0.351474807786232
0.348233254670458
0.350992541830576
0.347925685834269
0.350849054260966
0.354708227191318
0.359199898088082
0.362004912577274
0.369036126995618
0.375046308099819
0.37641009061976
0.38021530548201
0.381477861069464
0.388690052866965
0.393807176409157
0.396064675917405
0.402758116129291
0.400515879227194
0.40293021339565
0.405770633906597
0.41178956566191
0.419166845639296
0.423334245845781
0.425224168043756
0.435356474116187
0.441776744858967
0.448281718277251
0.453798728393906
0.456148924968275
0.467306023552409
0.47719791046296
0.480589624070296
0.482677759133331
0.494691196626551
0.49477279970739
0.498593095975775
0.509161867656907
0.509633237538348
0.50189402935427
0.49699132793585
0.508353594347388
0.50861290308284
0.507879302816878
0.503838964006497
0.494754909761803
0.491064569835485
0.481762138055964
0.474836978597283
0.470480542305666
0.460582345107344
0.45563488138297
0.462005721332583
0.457311730613493
0.461982772025945
0.45253528237303
0.450159538643804
0.462515929533827
0.4630818728214
0.46222099411627
0.459007155532189
0.462331135488234
0.461774339620845
0.465975604547221
0.470742954944977
0.473847705141155
0.481253637055418
0.483009473197136
0.48545249250314
0.486142771807834
0.488451531274858
0.488920341037542
0.488618808553325
0.499000575091363
0.496441132428648
0.490290174882734
0.488616854495663
0.489982453415541
0.496704741549017
0.496244057833124
0.494705629786686
0.487699967118222
0.484643049015896
0.48528701710348
0.484465313682044
0.489355104866227
0.491797031301062
0.481305354634114
0.474319370477128
0.473963586669392
0.477102663061667
0.468193311107265
0.45554227758541
0.458439304044473
0.455374205846595
0.451282414646291
0.446738853283491
0.438770653946469
0.441142293755458
0.42961373164203
0.415363550926746
0.408182822916811
0.396666658155379
0.38470972557041
0.375795378562032
0.368735928424002
0.358010265285071
0.342975341581548
0.332113006159057
0.329222790657502
0.329967862381181
0.321671504496932
0.320133076184657
0.322213364763141
0.321276936509958
0.321069331385158
0.326872177881494
0.325715962128935
0.322460756184611
0.331772061270846
0.333642290225311
0.335871364602426
0.338919947300184
0.335489203836134
0.335511924556373
0.329943962647508
0.328359205885845
0.327577545366248
0.327908809138701
0.323500738864515
0.318799773958721
0.318527398112713
0.323943058748502
0.317852652258114
0.31848577501638
0.314103789177177
0.314005638873003
0.308468081937489
0.302538729418093
0.306167281709288
0.303976460206809
0.300557968580361
0.300457383363676
0.301855791293374
0.30209140914576
0.297703980036814
0.295588901277094
0.296644588123407
0.298680607064346
0.297924886562516
0.296058155507936
0.298786467413349
0.3033052566524
0.299505081203038
0.305182901130662
0.304512978509867
0.308880979632964
0.303709079286753
0.304810913627934
0.307395271690648
0.314764576908798
0.313092882118399
0.311444232560969
0.31190230855411
0.316684065854341
0.315992513786491
0.31776671459736
0.317809202483609
0.32464900055121
0.32411170270332
0.321410462756307
0.32534352502279
0.334854249088412
0.326804536340973
0.331707269974381
0.336642439440719
0.336980160696052
0.337191699929239
0.332799753455944
0.34107659986472
0.3464561063062
0.333435780759023
0.339254441797205
0.344600405351651
0.346204990095174
0.346099014595188
0.345954808827974
0.35252290448955
0.356614458144964
0.35515804735228
0.350938088645
0.358228347371316
0.36919763582724
0.366445242817067
0.363348613231217
0.369888276891336
0.378919062977855
0.378939725261846
0.373720323306581
0.374595872881952
0.379643501181882
0.378029637397969
0.38705133876558
0.385906320821781
0.38159179663064
0.389544304515488
0.392845007046827
0.402281078930504
0.408116758156062
0.40399950348145
0.401274198611906
0.4067036174415
0.404479258811
0.414573246426436
0.41277265222353
0.410144047621516
0.417341225466517
0.423984412387518
0.428333957469492
0.425343854533626
0.441698329005198
0.43593949200523
0.435535374552255
0.437137494673082
0.44896916555106
0.441764530027555
0.455850707787356
0.463077068303202
0.46333248912614
0.470072087097953
0.474867448964562
0.466499570596175
0.477525475332019
0.475412373894046
0.481524772042607
0.491843206151198
0.500155278853874
0.479832901560022
0.494572191556815
0.495620477311723
0.49971444461766
0.515046064370435
0.506041466886844
0.506957896692839
0.512231917576269
0.512267749497881
0.516155728984862
0.512738051945181
0.540221117351187
0.534820714773083
0.543732651267757
0.540683234702388
0.546184517557974
0.542875025610707
0.549757824772303
0.559507409967501
0.553288332198922
0.555385743411439
0.57909153545904
0.562506412638879
0.5868647938221
0.562691135416155
0.585891079777238
0.587917577760479
0.578457836600172
0.587210651472307
0.613774684544439
0.605364453760612
0.608555973525069
0.613728114403598
0.621046774745528
0.606084822277894
0.627033183416318
0.614143798271548
0.622113936655997
0.627774375273762
0.629349655566932
0.644329406936692
0.65400286652445
0.629080590551444
0.648487306216973
0.643486657628009
0.662143386129792
0.657117816397838
0.681861900434549
0.669576965093998
0.681072149368256
0.660828695489906
0.688836239852942
0.694034359298245
0.702868329228227
0.695812955574573
0.703523798357545
0.700652204268048
0.698718203031008
0.713048584182067
0.720809961510166
0.717339719151435
0.729436271618267
0.733227765671613
0.742762278966642
0.746770567707847
0.749099127314797
0.748662289269263
0.798359572386072
0.749322442573187
0.807332896577142
0.773131477325284
0.783985743699377
0.774858556275544
0.800789561825347
0.789631001953809
0.815888371346093
0.768280362033396
0.799147228684142
0.784001143003434
0.833557556861097
0.836856972405661
0.815029711303085
0.788079758561437
0.841641918790677
0.802338114527737
0.846347493963556
0.832574086958046
0.82798853620492
0.87199063417272
0.864321099690966
0.871041224979968
0.906132649249327
0.842085335840214
0.872473544793228
0.912492278886877
0.849710872897189
0.906188393706927
0.941626437542461
0.818666473367841
0.911221491676281
0.918505290434258
0.967485046801161
0.893460449867949
0.870433651216342
0.906738415044118
0.933905358007439
0.948804033241483
0.915122288558677
0.886567168346141
0.91661799006114
1.02133316876021
0.970102632220087
0.939769509026336
1.01415762874181
0.936932940263537
0.983241799665363
1.01471248604635
1.04394331974489
0.91493255147116
0.99997244663978
0.904174898272458
1.04857580016389
1.0144386938538
0.999091023270161
0.924950986869798
0.996217800310926
1.01494721306645
1.07380153744778
0.912108691011479
0.993895017480269
0.997090695633732
1.16942268436781
1.07774923005199
1.1347518404626
1.00752200899667
0.990490611572023
1.01605907391226
1.17093409838576
1.30058534560626
1.16320574861757
1.01578053699486
1.08085945252162
1.12899513141416
1.27548694255885
1.05328114951082
1.10781158518451
1.03364901936255
1.39633708246817
1.10034281631694
0.988687719469512
1.07783358016409
1.12369648010587
1.06774119617956
1.30209445643435
1.02323447049792
1.12712063952206
1.06788019785206
1.19890725781795
1.04710798406903
1.28485495738509
1.31511465831811
1.16891639996179
1.20303272411104
1.60808790410409
1.12606768995023
1.21665812369614
1.34872396897014
1.58293925806026
1.16634261002067
1.24635749654585
1.1535378887886
1.22053450472163
1.09425846762394
1.13792514853208
1.19287060579037
1.3327255199314
1.19844389038728
1.1090387610099
1.14445299699156
1.2620214750185
1.23319965858908
1.34106952556689
1.3861423032616
1.4807430577368
1.05330641540198
1.36337761501714
1.25928867088294
2.01886906875171
1.21087186815961
1.27124349538943
1.13146756806978
5
1.29537946761623
1.33228134416086
1.3543447598187
5
1.19391852337268
1.42483383150665
1.3599586629776
1.33031885538786
1.60936525926524
1.20940006045795
1.31470304438882
5
1.11326486911394
1.40813149949688
1.28222581665671
1.14285367754969
5
1.1146571435728
1.11392636126109
1.12238755424591
1.2223236589123
1.55041976785508
1.67712824770669
1.16388123030472
1.54973741590356
5
1.30366396853256
5
1.43228889828708
1.07103752856766
1.39062404498435
5
1.06795905461785
5
1.36828422495845
1.30721522296876
1.17796794734152
5
1.30076614851616
5
0.961614912292335
5
1.08018571333607
0.975290079286698
0.796727241923513
1.25803004757968
1.00352275205775
5
1.24602121437727
1.9368202497849
1.23722173855922
5
1.37293073423932
1.27366009439545
5
0.68525582396775
0.818383035827919
5
5
5
5
0.667309816373521
5
5
1.59785674748425
1.44377576042696
