3596
4000.36533379555
650.420452594757
1
2
2
0.0704401132670028
0.0658502842320512
0.0677965871124413
0.0686557991182193
0.0757393019147724
0.0692733021024671
0.0733994227215138
0.0619680323036102
0.066756390040338
0.0702564490763473
0.0718615808160909
0.0693786385219614
0.0742688008570358
0.0650710073961556
0.0698462834367469
0.0651436571937895
0.0710850508532252
0.0673563642481381
0.0742983022565814
0.0658326191509739
0.0666318257228923
0.0660592219574989
0.0725416523476881
0.0676829854233916
0.0692976649335719
0.0666754565372623
0.076693321146332
0.0669829344616096
0.075351284452822
0.070372242870569
0.0665642218612154
0.0582312407390924
0.0654507069350956
0.0621911571983761
0.0679286407287533
0.0681475905340929
0.06871733994005
0.0649552681095067
0.0700887241768247
0.0681357386733429
0.0740576281391042
0.0706902939237782
0.0802786136447807
0.0732266667023407
0.0651429806433302
0.0659380304503664
0.0758500809955826
0.0649619891886442
0.0574466806364659
0.0733086924998786
0.0737380381237381
0.062483324123464
0.0760948258123891
0.0765330793648691
0.0702525415310327
0.0738328935654717
0.0744575861853634
0.0682284734948597
0.0810667684996279
0.0691383560538151
0.0877290754451355
0.0854039337731621
0.0715665035034813
0.0716341413186007
0.065023178701601
0.0659091802360261
0.0726987637728772
0.0663316507500681
0.0617935369507686
0.0715327734620354
0.0638190636075052
0.068114050844363
0.0842943002247823
0.0674973420642747
0.0756931151299343
0.0658531099818551
0.0605237961002405
0.0623810046778775
0.0675906754237401
0.0821977393561654
0.0751639635514425
0.0704051416352111
0.0753947870824029
0.0578703703715555
0.0663721205045965
0.0802952306416137
0.0638326688365234
0.0734916838269735
0.0890789638780424
0.0803356067605684
0.0612754696533945
0.0559972863261322
0.0610548310572072
0.0635043829410931
0.0618139964268954
0.0608899478407526
0.0622333918015516
0.0686263364783522
0.0558613214727262
0.0670197899465531
0.0759608743981815
0.0669372372383163
0.115949221240082
0.0515515517483077
0.110212868763371
0.0780624646331418
0.060909115156532
0.117348339327105
0.0859263617710679
0.0753050443110162
0.0624007798311021
0.069975626424699
0.0693617070297152
0.075190103294778
0.0508677850728193
0.0847052247143373
0.115779605463024
0.068644691404186
0.0635223264903806
0.0621325782991547
0.0519062778167672
0.0941522588766901
0.113996820606498
0.0643019954437922
0.0755748708635444
0.0614490368903844
0.0597582009448454
0.0915922365830015
0.0996647661134873
0.0646057570597738
0.0640432668973493
0.0595970930705145
0.0620447772097017
0.0535393275462654
0.111684788020627
0.0769675494928342
0.077077625200018
0.0502787383023713
0.0869205730894413
0.126118554396748
0.0843785665659208
0.0629347955899021
0.0454588652362772
0.0643455866309555
0.114263307755146
0.0762735880895729
0.0597464140326002
0.0808387256152981
0.0787317602981972
0.0662528523317761
0.0669464292913025
0.0517432254622768
0.0844746023804031
0.0712263151652386
0.0322812958294442
0.0997884476277143
0.142213782230793
0.0781193848036181
0.1308204381114
0.0674733725488567
0.0799068323412648
0.0629858949910607
0.0712634268033558
0.0579984676674107
0.064386022267371
0.0500145192573093
0.0718921363923797
0.0907954213868887
0.066689161897637
0.0704847998527699
0.0913901119166591
0.0684257218354089
0.0662702134405446
0.134783303925655
0.0866756040967652
0.0572025647125906
0.106163873865724
0.0757559593910328
0.0636241813669481
0.0678381062077635
0.0925997901688247
0.0621822717376916
0.068493832745435
0.0585004534472861
0.0695385588829984
0.0792448826015448
0.0735551861080428
0.0630326684729229
0.0720700883552908
0.0477162582638158
0.082204104714856
0.109033045166684
0.0978059679719847
0.0717351139896146
0.0725034880185841
0.0326375541926524
0.104852968830691
0.0983459476812147
0.0664618768123654
0.0588931816682276
0.060156663503202
0.0607102020780579
0.0590032596645926
0.0583913047288437
0.0563034410799732
0.0377031993429114
0.110721652360709
0.0811510212014417
0.0669515768053452
0.0606757060034937
0.0635469919925796
0.0485742979095846
0.112409140949853
0.0935848694938303
0.0653953473892368
0.0664973570745633
0.0613199686778855
0.0788240966576197
0.0908066173142052
0.0629776859466406
0.0648750924247107
0.0647180554270819
0.0665854737254743
0.0576139045889459
0.0616446590554095
0.0599846341458352
0.0604240551954788
0.0603145060179194
0.0635355152041058
0.0579504745535865
0.0780184884309658
0.0686497805921552
0.0625158837676942
0.0610942841138736
0.054187294340569
0.0741765106945252
0.0939412935771401
0.0688625050367771
0.0724100609007312
0.0621151858690366
0.064441351128273
0.0641902332650654
0.0616024403201509
0.059823666132778
0.0661121797241036
0.0541227974336102
0.106607173015898
0.0783394009806733
0.0741580847195582
0.0553635639532971
0.0839506418661169
0.078715519028203
0.0642989506011608
0.0625992401698416
0.0699851097729509
0.0530167846528562
0.0603594877527389
0.0913527236911226
0.0726468583986075
0.0632163088558098
0.0868484455369426
0.0737305388343566
0.0645861647916523
0.0614561364165655
0.0615805718361
0.141933762514204
0.0875580244954116
0.0616504284382434
0.144310852297938
0.0876599563193868
0.0862757280804576
0.0701669087823079
0.0377991990184023
0.166694351924796
0.134163293076706
0.067420623172668
0.074888247796549
0.086305765584734
0.0726394119625773
0.0759499186418104
0.0767732109439905
0.0828561361706499
0.100715009197609
0.114851141096336
0.131984370588125
0.0625899679206715
0.0991308296289971
0.107880399970871
0.0809415303785759
0.0761429955309607
0.0785781871685624
0.0683188285310832
0.086476350288968
0.0958047525065952
0.0886645332550845
0.0790538374820099
0.0770692445233604
0.102681333930493
0.0921489564905399
0.0759002083800486
0.0842297196344088
0.0872855031885566
0.0816593014008149
0.0789585716111025
0.0809749073110569
0.0915291368176564
0.0772167016274449
0.0782480363023606
0.136440108926486
0.0949458667481964
0.0818477211349383
0.116179360604239
0.0893937084887695
0.0731178727188133
0.0868457304086119
0.0795347624593168
0.0778767083814814
0.0791491010000317
0.0822579406945129
0.114630658410713
0.0981216234063784
0.0789134125062738
0.081579116047314
0.0766096590880733
0.0838783139244725
0.081571087173817
0.0841220319979469
0.0838928632233047
0.0870206189675633
0.0759610499318223
0.11163896947319
0.114750486057218
0.0739622766460583
0.104441761485602
0.13407084739687
0.095652757489057
0.0882617162684788
0.0857438755255738
0.0952210611948282
0.0857060552512959
0.0980582570594966
0.0995544403483226
0.099662849134109
0.111273274925909
0.109709687436721
0.091521391573504
0.106823269444016
0.149138374599308
0.163303472543392
0.121487161501083
0.107547510332546
0.0885681161656763
0.14269097535816
0.143349564911844
0.132235712879974
0.139633402976166
0.118979064519163
0.11584904620772
0.112882133325884
0.113955956436808
0.115406705247763
0.117956965448553
0.121437681114663
0.120388487383917
0.120285238399835
0.128346899956689
0.125540552173675
0.123031888067322
0.16509509638404
0.142320457492601
0.130915734713923
0.133848869320625
0.124838999100446
0.158329277550814
0.180992797522748
0.180992451012444
0.172092004756159
0.167545936041338
0.189183410808704
0.149785552320528
0.152367889197604
0.150769706904171
0.157535667678223
0.150042909208242
0.152719928541787
0.156215591014264
0.155407329568594
0.154433908945278
0.16052701013559
0.156611565163537
0.163272000448628
0.168201744577195
0.187208570139951
0.177472509375623
0.171036021348648
0.167968956963256
0.202488472107936
0.229235134366461
0.234266555976201
0.201577017745791
0.191582319566997
0.188808176812913
0.19145054197462
0.188131894170042
0.200338267102858
0.197667162127868
0.20608585331742
0.240138030678297
0.224074722299988
0.229181718228694
0.238004623199663
0.201597816322074
0.237172609796763
0.233142535824293
0.239784669842
0.253985853753384
0.238678797864816
0.230006474561527
0.252871669577154
0.254777510913662
0.24787926412926
0.268012178585386
0.262909700679671
0.244694170800079
0.252997873074741
0.244818357900271
0.252294491381877
0.265842625184592
0.27274593532933
0.261286392081296
0.276286606469515
0.269100894348201
0.2810521712562
0.284749151196352
0.283644328054624
0.2914678363149
0.289250528799143
0.280705958072258
0.297081791983615
0.276905314238992
0.314565960172314
0.32229994172329
0.328775109016943
0.327722040047057
0.305577898188209
0.313680276472582
0.318987334471352
0.303571124257274
0.322405027228495
0.325760751876295
0.331520350289334
0.335036397888623
0.341806735689007
0.327758148041629
0.337552568139107
0.353746474859109
0.355385541403074
0.353516222918823
0.361657164073503
0.358795759476798
0.363742926299486
0.357603625194419
0.404822817691662
0.417489420670728
0.431375289159889
0.41137493460401
0.38926932898155
0.382555608155155
0.38769314856623
0.397872704347308
0.41787777811792
0.425467027128066
0.423516035718546
0.411950311018005
0.439158182404836
0.425421823677454
0.427863494989844
0.426569210857115
0.44604565822638
0.438545402722333
0.444093068016614
0.451692183691608
0.448458020849996
0.448313540894505
0.473368625814679
0.465962283749757
0.475023856845741
0.470129367001752
0.480730863779724
0.461368584249462
0.476285495482708
0.479645033342272
0.504999985646089
0.507933626144315
0.503931774461603
0.493761183704524
0.496826698707675
0.492535905827787
0.520975714971533
0.538165987151934
0.511091856085073
0.506750490133952
0.524530740106581
0.530204450463996
0.531658070376672
0.513368079532962
0.551239143393225
0.560854245090088
0.557282283815542
0.550199093811984
0.56278355327201
0.559612696251582
0.574296598430444
0.57254465045294
0.583277149532867
0.596099331552234
0.590165001355988
0.585299826948356
0.596821074643399
0.612420483671845
0.64056065354522
0.615077515953171
0.610703130456056
0.62410169523605
0.667169602689146
0.629277924734922
0.638522121023197
0.630550283429607
0.631143817867931
0.661213059889738
0.657184288454155
0.651973620990529
0.655584333988992
0.643526403384225
0.66199980982448
0.674407195264756
0.669421824089441
0.665592842609619
0.669678386327029
0.660716692108022
0.705539661910476
0.682676628511503
0.698545257199738
0.712384158441659
0.71193661339277
0.708184136447529
0.703543887676597
0.710734703720954
0.739700955855159
0.710887995859379
0.727081141355121
0.751230308862128
0.774398669306788
0.759653472747908
0.740871706883134
0.778260341656854
0.747466684365407
0.713896228439065
0.784406996402882
0.778837234289433
0.770871511421225
0.794286623525469
0.775869787763552
0.80761427823371
0.823703389124664
0.811660751425277
0.815036751499053
0.8118296576712
0.797734944491853
0.796206283246392
0.826297155101639
0.807495489591699
0.809356563389164
0.81444658341606
0.852183920727648
0.85612992434892
0.877622728381967
0.856948827388584
0.897947145504856
0.932586825100808
0.916871258750293
0.871115269267363
0.851730803352102
0.858199537886514
0.859514455704101
0.863207977605952
0.861089117934577
0.916890742071954
0.940151835789207
0.958907958845891
0.986725098459278
0.906387779406096
0.951172882976159
0.965274605042852
0.884567426254133
0.888594143795609
0.967479521988907
0.958552374529102
0.903635993323768
0.909656611472844
0.96662215810694
0.946816606974984
0.91096773350285
0.909058053907372
0.923887782552443
0.970438689597153
1.02976803071456
1.00017183393914
1.0145186443498
1.03287249588176
0.965392142571221
0.990226268665738
0.976987654670593
0.990719923760869
1.03856826991492
1.0289162683024
0.989151459545446
1.026051010814
1.04227101292089
1.02025163331132
1.07812259033672
1.04838902052798
1.05004480200276
1.05812476855341
1.04724857365525
1.03704264444487
0.997402644744755
1.06712808205257
1.07357514075332
1.05837103022559
1.06979538840171
0.983460942815192
0.983271859556504
1.10108727939241
1.10577799045985
1.0878160935234
1.12805614739013
1.09537612903545
1.056063607169
1.11747376112352
1.11072419486394
1.0737137142209
1.06118587703045
1.06889701409745
1.10492723409315
1.14026061578301
1.1575874789266
1.14255749434786
1.041442140865
1.10504375326527
1.17796771227396
1.15196806805758
1.14184156112095
1.21936396647455
1.16450859085097
1.10727490347714
1.1288455176709
1.16553697410608
1.14001061793226
1.1986851647849
1.21136174229853
1.18215912562596
1.20624538330843
1.17842013057569
1.11812068166255
1.15062701195717
1.20138537806544
1.22743460228283
1.16741663303288
1.18113911364715
1.16648381772894
1.12434748480026
1.18206149516379
1.15237873486079
1.09019770749241
1.24608630557769
1.12653629120988
1.20749577021648
1.25749428649318
1.32330852502541
1.25084916627412
1.1291962050455
1.15977975667514
1.21151665968519
1.173800886984
1.24437400731468
1.30600439545513
1.20032134408256
1.14759717980697
1.16534694902415
1.20970737548687
1.21405766637325
1.27987647715205
1.25161241904019
1.18988823038372
1.20247882514505
1.21540007475659
1.32678591968712
1.17325072392937
1.20468866702704
1.34169683910988
1.38866238021702
1.21939257231137
1.18335204530226
1.23332371767449
1.22426736173236
1.18342498616481
1.27209893231664
1.33972523520698
1.29859616247066
1.23576984402322
1.27750395515329
1.27285635192585
1.26478423360512
1.22786427318259
1.28566908881737
1.315050914257
1.24283612167611
1.2451231266338
1.26740241227293
1.22343298667606
1.20026052543585
1.23069657291475
1.34570075829708
1.2204658338248
1.31189485771722
1.36592436745434
1.27938110055792
1.17172652129541
1.15621338315889
1.27479015779178
1.27943173573005
1.16833239421436
1.2295120811259
1.2419630747795
1.29230391544636
1.30055812027916
1.3278064337544
1.27633158341794
1.39125667691505
1.3180004763778
1.30756502788353
1.30626789297847
1.22162625749876
1.24416827761198
1.23906203300666
1.15229934958315
1.16355406918098
1.22322683690038
1.1970006721396
1.2138634031695
1.30660026518751
1.23153167538411
1.3039639197976
1.24956142745783
1.26918131322501
1.21539473093308
1.12913546114201
1.2717231384186
1.36899719308374
1.26017356652233
1.30967154317756
1.33082856697007
1.29389252757169
1.21173152109067
1.20326243200122
1.20907964269225
1.31350159172363
1.37989488254613
1.24234458385224
1.25683596672935
1.27451258347197
1.2507398834437
1.35494069969495
1.29471357987871
1.32796220612535
1.23928261085136
1.26137264420332
1.24080951698095
1.25058453114849
1.18404391631025
1.28212789961484
1.26464714614845
1.23986500031649
1.23061593525351
1.24193615879709
1.21007363168709
1.25745572135821
1.25554963353808
1.20259320936816
1.16561179981883
1.21151951882222
1.22892018966357
1.28178364935997
1.2132341487903
1.21141294477204
1.2329382151874
1.3421252646454
1.27886025393066
1.17887470902695
1.24991790114728
1.26438311875634
1.25499753581723
1.25223088441152
1.221585611227
1.23192127849036
1.2413047572202
1.18203660725313
1.18037702765957
1.21921512607317
1.23190703773799
1.22909338824912
1.20585388467592
1.21724143211845
1.19090056598007
1.23737801928423
1.1354663427817
1.20895130559298
1.16106510084431
1.16005424736313
1.17595183455458
1.17301511285711
1.17054176688034
1.21916152624016
1.19077703400745
1.21766581406099
1.17535614769398
1.19448734344481
1.18483807203501
1.18479716596021
1.20054031891429
1.21545351904865
1.14930798592005
1.16769556379675
1.092907532228
1.11623554757171
1.12319924568821
1.11915250534566
1.1784229449482
1.14857939746052
1.13147060713376
1.11582068518914
1.09635740110821
1.16400034949442
1.1016205096829
1.18359333311957
1.14141974421045
1.11470092700709
1.09007158985817
1.09648680261196
1.09757011743433
1.0989205021262
1.10493039775447
1.11500352169548
1.13044947005608
1.1126087930153
1.05531693258107
1.10983147283563
1.09811675626064
1.07560434612829
1.11582232998723
1.09272814010158
1.08860322833328
1.08390593710616
1.04123206920154
1.10668730733635
1.06144352397114
1.12933497734247
1.0701947541231
1.03362917897515
1.0202846269052
1.05226850856951
1.03526539703022
1.03945500571322
1.03135087378188
1.03878889565977
1.010735166716
1.03761640127452
1.00395171892498
1.01958156090478
0.957710466473608
0.979316384282965
0.999535189651616
1.02064573074079
0.992341407587914
0.981657251423263
0.932032956880206
0.989289774102153
0.954717253100114
0.937343448822386
0.949261587748193
0.973967460556851
0.943890205037172
0.926258006452639
0.91287007398673
0.952647827264322
0.945367611672457
0.939116065171341
0.899135178468643
0.921171769264054
0.928689617891265
0.905230848941193
0.903446652326726
0.936684944533896
0.885420284585827
0.889446506760302
0.888987494283225
0.897153505252173
0.896755020590345
0.909800472991443
0.903628414190715
0.86175461320384
0.853324779684249
0.885903037076384
0.868444054546289
0.871733515460923
0.845872756021328
0.846215116626274
0.851224058020393
0.874485666324353
0.835972156694142
0.830687962471573
0.813182273991372
0.819650718340922
0.809687867750973
0.843329528169925
0.802037724302277
0.792856828565651
0.80320272793308
0.80609190122176
0.775897676535792
0.788191995176599
0.792714232906306
0.793595640671455
0.787871686693287
0.775625952220327
0.785924717422093
0.784399212265109
0.757490173451526
0.773352961580093
0.748226928251697
0.763525531057214
0.746762651666362
0.743796323091472
0.73556766693797
0.745817505844873
0.721789264240002
0.730951823647907
0.738337009809628
0.72413275276175
0.723117540041984
0.732201102610368
0.730084325611569
0.713649453109483
0.696995658063459
0.699569592349698
0.685752785723062
0.697686417903567
0.692715611197268
0.686896959577844
0.686857981221577
0.690296557686589
0.686712458889462
0.687487456048985
0.661680038321907
0.684687129527417
0.684297157896607
0.671599873311304
0.650147505678793
0.664641869610243
0.644110242058314
0.654848588933992
0.647942392907521
0.638312711620379
0.641906673531447
0.646281821032215
0.638190229917909
0.631842829638545
0.614824626907437
0.616645131077603
0.610742864059103
0.616797790129396
0.618708610730505
0.618801172980737
0.61090352402374
0.60594849273363
0.60267188261192
0.586106168447947
0.591897568696014
0.60713171050282
0.586702134644306
0.583046149521417
0.577390845688759
0.585460805457935
0.583012156793859
0.593960861979309
0.569696390557893
0.579838520663329
0.57287611526609
0.567380877598533
0.560245598670063
0.572191719504588
0.554517927928486
0.551109885032447
0.545180088367678
0.543838163422036
0.533796014505407
0.544117877689222
0.533933484275436
0.533733321013196
0.533211618917609
0.527846312630359
0.531120511722064
0.530960143570702
0.529094513525576
0.528746560572221
0.514082632819015
0.517361383014367
0.50697839022485
0.509795238815047
0.517239293784728
0.518446552394471
0.500610656908989
0.501204280553718
0.49157326037956
0.494692930968668
0.491764835414832
0.500581793892693
0.495431567770918
0.495459027938333
0.484789112955543
0.485677725477825
0.484617715813341
0.484444646284669
0.468217410749492
0.460989296272724
0.468911256271108
0.476168888860739
0.474655442021446
0.473417310017508
0.464371055920159
0.461044682479305
0.44563103783332
0.455816693649285
0.457087719605935
0.451304165948627
0.447993337771818
0.448520932367151
0.448470631894167
0.447713272815574
0.448635349633442
0.445609592534179
0.439052343949146
0.437903946493
0.436226720413113
0.440807743892461
0.433434210745667
0.439090035658516
0.434091869556067
0.427079818494664
0.421917990472634
0.42025381113395
0.426906358491333
0.429243039977752
0.412266314453467
0.415289496001343
0.42055231220677
0.426485707696642
0.410087574638889
0.41457131279207
0.409567872181756
0.423248620033992
0.417558291968757
0.414194486834255
0.410162045313007
0.41361460939839
0.410086672615913
0.416179410666741
0.407384768867952
0.41766220590095
0.408846924260341
0.40424255022828
0.41076184558123
0.415392703710924
0.405967835882385
0.413595652768373
0.4095809253058
0.415741778092226
0.40467034933326
0.421329631566209
0.417008492084945
0.416782112368747
0.422677091902347
0.423196617701179
0.414570048411901
0.426532899371869
0.419552514465299
0.423962393072961
0.424174756148887
0.425952212894598
0.427043119949254
0.43261406463676
0.431691511743638
0.433271065171922
0.416988575118313
0.426930941128317
0.433882582160457
0.4396756034329
0.434554968046613
0.440452443706442
0.437405989527793
0.434880403925222
0.43564039032785
0.456511057760084
0.445815845167438
0.436566068260383
0.454507314521383
0.458317976246771
0.458197499035257
0.461657507468595
0.461503970245502
0.461833291675507
0.460033311653765
0.473700173502784
0.459254862456914
0.482038369898933
0.468618955192275
0.478369361341936
0.479141575757498
0.485849611398379
0.475137352318359
0.489774079425436
0.487258530232646
0.497943817852554
0.507493148265268
0.505847469743296
0.504198775362394
0.519939455921742
0.50304152594593
0.507881613011239
0.506397393593682
0.5331908523334
0.511845789358587
0.525105916974325
0.521843321648251
0.522753362587967
0.518206126464946
0.52913124374971
0.526430050625113
0.542849851999336
0.534248729064924
0.541626524780188
0.525225220206066
0.537165391070976
0.534367578000517
0.547771292178546
0.524261090180837
0.537229425444059
0.534493163809998
0.521749800622644
0.527724213470482
0.519514287946736
0.521628846590249
0.52826596355182
0.519226708147393
0.520883012927833
0.518823690231815
0.515256607165077
0.510569245774205
0.519378414477602
0.517098316794104
0.532580234248558
0.511440711349381
0.514564368259468
0.514627579432451
0.5194701485354
0.512096444602342
0.512835601855594
0.51382791185717
0.517010767986864
0.512967108369255
0.531462099434383
0.523169879207705
0.515281517831859
0.51264240260615
0.522531073057479
0.510418987364244
0.517021532646156
0.52111146887257
0.515076580794132
0.508545615704241
0.516238223752347
0.515805811178621
0.528150959525272
0.508742931922423
0.519696633844924
0.524021289275858
0.526794625269099
0.512856642458876
0.511676622809832
0.502306474639854
0.522335815482651
0.510659730660894
0.508056533545673
0.497648135258411
0.510252939707778
0.500297523364488
0.508461502217336
0.495155816463462
0.501272690223887
0.493149138014657
0.496336487457041
0.486622068096961
0.490415371136448
0.492496658803537
0.491377856220648
0.482232812784429
0.493981301646218
0.476673834886934
0.472666780243629
0.47653839939983
0.470948222534307
0.470844055999208
0.464365044224852
0.455340927380047
0.46432585057957
0.444921403420572
0.447579443590196
0.44237624320906
0.441560491989233
0.435188975595271
0.422244010578435
0.423734135365088
0.436498581461357
0.41946048653428
0.417545978248884
0.414653354998246
0.424220544022182
0.406696422033031
0.415920655460624
0.412876061880202
0.409372007029438
0.405856203883925
0.396986405238111
0.390881780233862
0.392679568795106
0.387868997722291
0.386959071615854
0.383174711396305
0.388918171780724
0.389168842792261
0.383075093516618
0.377310699858572
0.380996114707112
0.369820065927935
0.37738201713554
0.366332811147355
0.368714132312236
0.375628594095184
0.376580129286881
0.365247680015556
0.363746921346569
0.356988209263325
0.360809894179797
0.360656088542275
0.360071232246318
0.354649680727319
0.356357464877361
0.360672954611806
0.349331776408176
0.346667423705041
0.348721439450472
0.339410426529725
0.351053605509359
0.345308026531127
0.342496820933689
0.335956860596055
0.339810514882451
0.336827886957381
0.338669441228392
0.334033110730899
0.331829744015407
0.320849610941702
0.333269535633501
0.326398613069895
0.324001465561611
0.32191867001022
0.323366767557786
0.318958323160389
0.314060878807953
0.317878676681214
0.318362110356465
0.317126263963459
0.316350570701532
0.314621525422575
0.313439486473517
0.310728964894411
0.309669551933533
0.310712363598865
0.313476127518593
0.306429011611051
0.304937857514118
0.300860385135475
0.305270944622633
0.304626706143489
0.302260027137004
0.295993261469443
0.306313506597467
0.295571116791341
0.300728923876658
0.29543072397902
0.298332967698766
0.294343545727708
0.300506994396896
0.292808622265966
0.29211304482776
0.294068567252362
0.294907333276871
0.288787992025378
0.288832114862416
0.28881601910687
0.287047935806104
0.286323980429479
0.289217090510974
0.290392895265071
0.285505516320935
0.287812014155926
0.285461620721882
0.280494713073491
0.282148419154653
0.280470751293466
0.284773252580477
0.276311542875311
0.277173775978972
0.276574484974971
0.276020557133458
0.274862269395807
0.275605162202337
0.275594682645799
0.273106794673461
0.27586408933188
0.274581956267006
0.267129539785871
0.2797356148595
0.272925360723461
0.26500871539847
0.272299766145978
0.273791494212933
0.262608097682288
0.267935269279384
0.265557987456915
0.269660217189985
0.268088343953994
0.269592831214269
0.267711789833531
0.267734302064128
0.263859543227984
0.268343530946426
0.262844972647442
0.265267911994823
0.260564506322136
0.261309771361137
0.261834483767068
0.262906927529343
0.259521202987882
0.265711079283173
0.262654820475437
0.264490945492529
0.258551415567083
0.259683636684611
0.257039159035803
0.262491955319721
0.251049579543773
0.259638971128348
0.254890833829131
0.255895171902318
0.258475839531871
0.25965752646372
0.253799550887835
0.252864761303592
0.25352254723632
0.258280705762952
0.259040155940579
0.252355113527035
0.250493323952978
0.254856686266518
0.25021213183637
0.246803866849246
0.243496001548196
0.251535992630161
0.247296022741363
0.250214424850506
0.247576705389074
0.245215197863534
0.247215491083309
0.247708304667549
0.237824097136424
0.243779050370441
0.2433745019228
0.247546327710319
0.239480863945284
0.240184435553455
0.242750635707817
0.239016135965878
0.233630220119125
0.239501789239203
0.236532799378663
0.237888963210791
0.231248876152193
0.233844505846707
0.23220567354999
0.233532190721026
0.231423703636051
0.233955732879281
0.231995291060109
0.229183424522442
0.226019272387087
0.226281097628116
0.225409747967896
0.227826288662312
0.228450630105826
0.227831605128836
0.22361301913411
0.223817148197151
0.221251675041942
0.226197735261765
0.224352025567016
0.218933730697792
0.219793842456091
0.22424204689153
0.221050918831637
0.220613458544422
0.215332721421566
0.221878245775667
0.210814162250294
0.217019975001911
0.21444196866772
0.214602042214385
0.212929849363465
0.215423607167581
0.208479945217615
0.210710016495093
0.208023691715966
0.211615140285896
0.209289551178279
0.20977487112776
0.206767451864098
0.211657661254347
0.202610893248584
0.207314889852584
0.197488881071804
0.200896318737963
0.198372069384016
0.205990531810218
0.199476206683361
0.198679543985579
0.197873319424609
0.198528066271135
0.195073115696767
0.197896903056945
0.193843446462638
0.193484254664171
0.195054402078785
0.192469712000478
0.186504530620949
0.189776962132662
0.186671239101638
0.189476507604042
0.184282261144616
0.184669754946681
0.181996877095989
0.18088035703124
0.185026308726917
0.183450631282742
0.178115912100409
0.180623453448107
0.181537242492984
0.178478389453726
0.182048191785001
0.183500898720794
0.176817426748823
0.181153919134724
0.171522541657823
0.177288974129189
0.171806819854417
0.174486948494243
0.176247117933868
0.175109101513904
0.17203589194408
0.175736170185799
0.169735994427185
0.168253323840742
0.170792004548301
0.17013963209593
0.172824110235942
0.167480085499247
0.166516744457619
0.171545056983156
0.164410792705092
0.169034512598979
0.167194407028561
0.167014834440739
0.16588471936249
0.167832378168574
0.165164332056093
0.168706594464005
0.158870261671189
0.162104690120718
0.163756567130393
0.1626025917668
0.158448622775443
0.163360877423622
0.156173306953087
0.161116438918031
0.153711517203422
0.160949393945747
0.157358506777547
0.158833979874165
0.155181835877819
0.157649685021547
0.153021748012613
0.155479270447322
0.152149609404106
0.156580341746397
0.154311922002397
0.155425967441183
0.153952010173348
0.153477505877962
0.151613945569299
0.152277910607892
0.153865493417406
0.150053251844624
0.151024382419471
0.150280484662782
0.150685037080589
0.150980082892244
0.148753294009302
0.14742328397853
0.149543981483764
0.150984758715192
0.143679420770235
0.145366097861955
0.146169999476193
0.148238518155261
0.147549465169204
0.146722188935194
0.144214295183396
0.145726320578681
0.145152001059914
0.144714655753818
0.143599826441691
0.147778167523748
0.144261314363166
0.145254086308175
0.148085683206997
0.147228116350184
0.141966740751153
0.142417875285409
0.14301377771629
0.147251723415414
0.138945341203282
0.143749321263281
0.143440510995213
0.142755878177486
0.144700164937323
0.147133542061495
0.141716511040576
0.142603459545201
0.139192017567518
0.143277635586514
0.1396728853409
0.140635215971756
0.140842254014233
0.138851097531955
0.134999019573186
0.139864426939709
0.136002968348958
0.135523604398577
0.137095167550855
0.13775967896541
0.134037468310023
0.139784258994874
0.135380177673787
0.134082845134615
0.131338502204045
0.135290332809713
0.13389182203564
0.134124026908371
0.126660933334428
0.131252976966965
0.129385973951462
0.131844779897105
0.132543065064101
0.132665454198143
0.129574732725537
0.132059735437332
0.128730302506421
0.132452643411293
0.130923725586814
0.132838895203161
0.12660845219998
0.131806079852765
0.130943150936173
0.13108337982255
0.129163749581101
0.12733365397912
0.128074636929569
0.131035081649688
0.125361608649818
0.12715065209796
0.128429570399303
0.127126941986388
0.125964770394851
0.128073982142816
0.129672246370985
0.124325619622246
0.124902464362502
0.125001675636592
0.126337461080048
0.125431221502928
0.124973176132492
0.127252927226014
0.125571485735925
0.12649942473259
0.120502221315644
0.124438190067669
0.12279284062067
0.124932672328798
0.119690887658892
0.125539500264388
0.124703166018119
0.124468110195237
0.116831515277301
0.119498380168268
0.114690985995614
0.1205739821595
0.115351853296462
0.12053156781615
0.116230618823764
0.119104703154808
0.116294998344581
0.116334552072649
0.114667754854835
0.117331232274609
0.114442236874055
0.114153619008716
0.111778923383843
0.114308072464551
0.109354447296941
0.115931018344768
0.110486479204157
0.115096083998015
0.108428322653634
0.11052421754201
0.107767213004427
0.113065873048182
0.110862809135207
0.11138638296397
0.107893791481278
0.110338337229033
0.105443324062409
0.109719940722682
0.103526241136619
0.109170689915737
0.104216008298311
0.10779491031062
0.104499364478518
0.104719744972292
0.106298039743635
0.108114525883237
0.103425806803754
0.105394194014237
0.103204344426193
0.106235022715894
0.104061217699746
0.106442986585673
0.101244573706948
0.103827397846628
0.10134659924529
0.100769355895102
0.101423417557075
0.101079278007719
0.101210587421229
0.101225419685921
0.0991651070751498
0.100949911674253
0.101199168275494
0.101962897105242
0.100734877489304
0.100218095507169
0.0983507730254078
0.100132801920429
0.0954540119991248
0.1006440604878
0.0956405943390311
0.0954590833336539
0.0943146021474542
0.0991119780244971
0.093656226170649
0.0937832417898224
0.0948176498135371
0.0950568294051164
0.0957931591402831
0.0970146411965747
0.0903989658883452
0.0968391631240351
0.0936858802716908
0.0944368439799664
0.0921739640512491
0.0943184614555679
0.0897094389563885
0.0918938322156293
0.0905365054736909
0.0911218365828572
0.0894160204680697
0.0907209016452704
0.0897502013084677
0.0931973923230037
0.0880844622016723
0.0921112619087721
0.0892375296699316
0.0920523651016559
0.0862134458519027
0.0898681080701237
0.088318497758321
0.0943741590154448
0.0882448417897011
0.0931998552406176
0.0888477392000251
0.0936642785066569
0.0864106651470315
0.0895524041887401
0.086691648030237
0.093641450932653
0.0869981816655076
0.0927755400206687
0.0881523772003062
0.0933091341744303
0.0897246084389579
0.0924574265445872
0.0930535779601469
0.099265663687744
0.0884840983002152
0.09716185971224
0.091836181714685
0.0959029138331165
0.0888019791441573
0.0959426702271861
0.0975979539043802
0.0950850710970589
0.0967966462829099
0.100996455505743
0.0870649976658308
0.0908632823551996
0.0827908636877214
0.0990427050028886
0.0879112356254097
0.0926866508739942
0.0858328787178624
0.0973343491142558
0.0846828424320085
0.0973078969421276
0.08718742191687
0.10270909763267
0.0851713718409916
0.0972280351876321
0.084871793113165
0.0968046859054871
0.0860748276062403
0.0944461525110797
0.0888077099806228
0.0925346561163438
0.0763538149750461
0.0901219158977485
0.0833093952272708
0.0929551092986105
0.0794508825146773
0.094898498361716
0.0751649086230459
0.0937406617798873
0.0765889366393078
0.0970874423472618
0.0741518064200272
0.0946063618712894
0.0756180226540795
0.0997169265054065
0.0748355063735651
0.100573888068582
0.0744001440042318
0.0994562262518597
0.0730736902600145
0.0946588767791471
0.0750845829188338
0.106762465040447
0.0806721516909578
0.0960945345746218
0.0788031356779984
0.0988591856127734
0.0914243154010219
0.0972041637378135
0.0889153145774876
0.0808143630959128
0.0996875588995093
0.0788645277599058
0.101959978051132
0.0722091911970583
0.11010883221014
0.0683323724233123
0.111693224596671
0.0680240895144109
0.104218532198026
0.0718921469507195
0.105185666658834
0.0772021291055123
0.0919928043256718
0.0860801505392664
0.0889616734824831
0.0825745651666509
0.0830836745643796
0.0873774527952833
0.0844396883282322
0.0824548724545212
0.0869945513550171
0.0825742461228479
0.0875627782019504
0.0758243104307562
0.0869918865985787
0.0801261643586315
0.0842270574991377
0.0794797508387399
0.0830595895086031
0.0805274714727072
0.0802057495812984
0.0801439297778137
0.0803784830062291
0.0766750847405237
0.0818896356668614
0.0780122023837687
0.0825834645612927
0.076582743456701
0.0796001182314298
0.0787422026530925
0.0789073710487293
0.0804945677437436
0.0803709182986232
0.0800626706165768
0.0830394178811655
0.0804622792724158
0.0806288637334106
0.0785024622896357
0.0806056228328475
0.0797193519817757
0.0836680462263946
0.0795606197811305
0.0806858146534779
0.0824951538934037
0.08411572901508
0.0781267229830243
0.0791729230576583
0.0796423964218006
0.0813637440882242
0.081055601774695
0.0817569695432015
0.079544905339573
0.0801891972042492
0.0827067415617251
0.0816544106789969
0.0830656922667899
0.0828623334562206
0.0833433722821578
0.0812599795900345
0.0807026715821925
0.0853935677052118
0.0781579165304803
0.0826878295472809
0.0811363893506795
0.0812980315053806
0.0813529266889565
0.0819598255583455
0.0833966701588086
0.082848855484438
0.080647744195258
0.0825808346531339
0.0845180250576676
0.0822266352991224
0.080889734793056
0.0854663093586981
0.0811734494945479
0.0822166949621274
0.079487643368528
0.0827043730917298
0.0814767872819759
0.0813476969600999
0.0824256386993547
0.0821259151000246
0.0809197576878803
0.0807276191500996
0.081899502006369
0.0805587391005051
0.0815918859775441
0.0811142651322962
0.082440357411583
0.0860392703518619
0.0835057810569773
0.0842493531388834
0.0844745630894814
0.0863258320192535
0.0839595811004354
0.0831728682280913
0.0848642275458573
0.086218759389666
0.0841586947730552
0.0835909517417578
0.0833504365884838
0.0830403980154684
0.0817379208827078
0.0869967577431219
0.0858463206429385
0.0841801367150608
0.0843732236274395
0.0837889956986859
0.0861558429480563
0.0851989481830849
0.085797841477974
0.0866586094863753
0.087847579683696
0.083157902069021
0.08674728755662
0.0887605831507126
0.0892663833518934
0.0867150297978186
0.0864498754379687
0.0882655704801105
0.0880394627632645
0.0884409845921004
0.0898581052906068
0.0881941493173812
0.0888662415745272
0.0892769723519767
0.086492333357796
0.0882236808957805
0.0870350427563923
0.0908941091291473
0.0865563500151543
0.087984994028503
0.0883801156279962
0.0866187467498074
0.0888243044058514
0.087261866777684
0.0875306138774983
0.0892461591055545
0.0882579862212187
0.0888801625025378
0.090518862309199
0.0880101069448775
0.0886857671547684
0.0866660041652202
0.0916502638981782
0.0890420891999591
0.0883775968075435
0.0880359381734157
0.0947751368870754
0.0894919892654101
0.089831598344939
0.0922037238480779
0.0880300049844899
0.091664177412254
0.0911198208330321
0.0897666518335097
0.0917303087721558
0.0918251479611905
0.0899711258782743
0.0939600173862983
0.091532921517776
0.0902502332038243
0.0931927990770654
0.0931421418492604
0.0946678678730342
0.0923615490801577
0.0934456904777601
0.0919484472906694
0.0925165472376108
0.0923947938009331
0.0913145427163034
0.0922112340059811
0.0908832206921934
0.0932426490032886
0.093089960820483
0.0910923833484689
0.0948040606678521
0.0932441121192357
0.0924808534980958
0.0957454030108871
0.0928965791187741
0.0937001066059723
0.0930128931495334
0.0908527445048209
0.091540974997015
0.0883825707108528
0.093207282363032
0.0909742625628742
0.0902158884539792
0.0904392660203315
0.0915980969675435
0.0929505599607709
0.091796181272924
0.0870927730947796
0.0882926182238683
0.0898052179941613
0.0926212675648675
0.0899650178170212
0.0912128546555523
0.0884555522251295
0.0900928382539963
0.0867500627338147
0.0901292534340922
0.0886574100968442
0.0899569407810777
0.0867879966134593
0.0880848514119265
0.0870628809811972
0.0877876647418079
0.0881356982587337
0.0890061980228042
0.0887002860398278
0.0893626783772417
0.0876711282366643
0.0907461952294814
0.085899708222778
0.0881536972269637
0.088941711799664
0.0905506452864618
0.0881139878863274
0.0865757760201387
0.0876912484773744
0.0865191804801099
0.0884835043287119
0.0866208072348285
0.0870921199461618
0.0888574159302267
0.0867686128111226
0.0870434829489743
0.0860385645210243
0.088494187384877
0.0852232831215644
0.0879942376890042
0.0853980906790709
0.0844087837196793
0.0845656350583608
0.0851511307413873
0.0870586361064842
0.0839762149109977
0.0883108594198923
0.0850174618496105
0.0882100753333881
0.0862553938391334
0.0855148301856483
0.0847211979465737
0.0846874459589538
0.0857442432016208
0.0849700841896807
0.0859060850390182
0.084107786503173
0.0843759488419443
0.0835037085279851
0.0870447698326867
0.0882620844859873
0.0866509005601828
0.0861628347213441
0.0838771297750376
0.0828348093502886
0.0840069610672208
0.0838709817556815
0.0827941734852377
0.0827329891341768
0.0866879084119601
0.0857437329927621
0.0838402195498648
0.0824677554822948
0.0861420330703552
0.0823843990685766
0.0826162911092855
0.084177059999105
0.0845449421820647
0.0812170858733294
0.0840664050810361
0.0823097058337174
0.0813964922635331
0.0811518629072232
0.0835409928965853
0.0825537394754763
0.081469818617159
0.0790301837321923
0.0817922944697919
0.0789821200519341
0.0816479591421602
0.080965076533552
0.0820280752379286
0.081168344832732
0.0827353304499261
0.0778038118322684
0.0811099117586396
0.0845709002941891
0.0818225427993294
0.0774859345845041
0.0808302312526205
0.0816497725889714
0.0808824902848063
0.0792972149590787
0.0781414730588632
0.0776130236385943
0.0799934061950912
0.0775058694321512
0.0766224118225279
0.0773769387019972
0.0786981357651281
0.075723604414355
0.075403557291578
0.0760616283777185
0.0777127226825062
0.0751605478583664
0.0732371518925594
0.0763933643222023
0.0727107971910791
0.0781644439407063
0.0741052446821385
0.0772681216235993
0.0748889689428372
0.079582397118047
0.0762347823912228
0.075879695440679
0.0745921943872727
0.0706638023262217
0.0743231079405624
0.0705566393776647
0.0720099254667261
0.0705413464003435
0.0710080655354696
0.0711426817489418
0.0705205066390973
0.0702587252856551
0.0710357529108447
0.0689324275669756
0.069695629610322
0.0680087892772745
0.0707186912657556
0.0683534406596371
0.0694209696130422
0.0687123577180407
0.0697248305937593
0.0667139150110893
0.0693257731964654
0.0671754616850146
0.0685245410671656
0.0707386122306463
0.0811530507295043
0.067926242683573
0.0687534674444269
0.0689072730303557
0.0754802608508993
0.0678386988133379
0.0694547387155485
0.0673697599012808
0.0678606892068157
0.0655995625025188
0.0695763399475618
0.0668751573198863
0.0678832566928365
0.0652495815512653
0.067238301892743
0.0644761330328944
0.0688443764874979
0.0636557302182956
0.0660506672315574
0.0649941130865006
0.0672127097539662
0.0646914886281635
0.0658164464662978
0.064962321987104
0.0664442020460937
0.0643276071702398
0.0720320854553913
0.06757907746183
0.0664530976972939
0.0660735357189957
0.0642647221893429
0.0646895849344357
0.0647244991779077
0.0628274391451001
0.0627328986242026
0.0631351074129829
0.0613790073849493
0.061492046475836
0.0609700118840086
0.0642505980237808
0.0643417940952316
0.0646182977974906
0.0654744787098388
0.0621740967647834
0.0624532674209957
0.0617522451726274
0.060719301868127
0.0609257100118314
0.0617737373535986
0.063992496916356
0.0638115161556578
0.0622815512656974
0.0627922318236948
0.0828206563243414
0.065055470123774
0.0679906884746097
0.060360400882973
0.0631073909812001
0.0612842470269365
0.0612349319623763
0.0592227095144171
0.0578508877593923
0.0586960445881637
0.0600513784861728
0.0610327258088862
0.0637896654469515
0.0616136596970769
0.0605900166359414
0.0611729641939654
0.0615791977716626
0.0612549280430869
0.0612925981673511
0.0612546883049731
0.0650323489071162
0.0740733113898296
0.0692749736482733
0.0567587119175594
0.0652342913228856
0.056033924923568
0.0834315427663092
0.0684491074741696
0.0590059141912801
0.0673057584434664
0.0580648934296513
0.0632148103839593
0.0572779941036649
0.0619652771961367
0.0599480621771331
0.0694903877733019
0.0599012815749817
0.0660820544228342
0.0576543761710205
0.0628958164076209
0.0577840695895495
0.0591889860953572
0.0568593354235358
0.0581714833465095
0.0583087167165362
0.0578572849626338
0.0593300595620937
0.0579888059703213
0.05828518967651
0.0607131534255527
0.0585987251115302
0.0668285559900049
0.0597642648136765
0.0589712218813823
0.0563930800523208
0.0591191950989874
0.0573464333919167
0.0829975662874304
0.0555993151899612
0.0630887152699046
0.0548524759667635
0.0625844178228697
0.0577074593997171
0.0614332654944727
0.0594655328592923
0.0592765447905604
0.0577641603430795
0.0611222080505036
0.0606543894757844
0.0617077554752348
0.0574973757995563
0.0592712129898486
0.0600255736607353
0.0616446343520438
0.0601782685575376
0.0569167428170268
0.0621885493297404
0.0598818472141952
0.0705592337752369
0.0888099072072027
0.0711992329476037
0.0759024191027751
0.060382274182815
0.0630404705893624
0.0572796672697157
0.0650877660698616
0.0553726081657098
0.0670305267474331
0.0541338182099788
0.0639902159601927
0.0574936336022701
0.0633102233018908
0.0580859269293027
0.0631627936201174
0.0538879883339756
0.064225664130845
0.0550837178873905
0.0651837598581548
0.0523710882416598
0.067118045233213
0.0539973619755269
0.073412533710419
0.0624401644502936
0.0701456198904839
0.0544153179945171
0.0851107366622981
0.0957041454033908
0.0583778532394517
0.0727348339585708
0.0542484626073832
0.0641254628472047
0.0581835554639297
0.0601807184723709
0.0654202691234133
0.0618820352537621
0.0577142463664063
0.0623358739783948
0.0614194224002454
0.0647223668470067
0.0587681677789457
0.0715878904062511
0.098977338481113
0.0693921467756584
0.0647906338688003
0.0649527142938073
0.0649754829089906
0.0972619544415358
0.0656025863366815
0.0679431989378579
0.0655335699997663
0.0614587424768985
0.0661367210770048
0.0642190859534801
0.0634089517366854
0.069515806024766
0.0701478692171895
0.0609125426865324
0.0693716620897247
0.0586023021313292
0.0701276181575219
0.0679465238553581
0.0716817530663007
0.0791772669821944
0.0623481539936467
0.0695077681376742
0.0700128736989586
0.0624633857777032
0.0695393206250671
0.0667962676079895
0.0679660165162375
0.069926210576104
0.0872809368934841
0.0679441644945913
0.0846294549786816
0.0828457636419026
0.0661884898292289
0.0699632534096163
0.0766401606796261
0.0770287350974764
0.0700887576205471
0.06457563252742
0.118239243618032
0.0711393580772575
0.104084147864135
0.0625662164996798
0.081530661573864
0.0628403224431131
0.0764413372080812
0.0600945669669127
0.0970416074827184
0.0734097709704728
0.0757077865738321
0.0705432525741086
0.0799304679656568
0.0902914975420215
0.0756094679469819
0.078474906225247
0.0712489810775109
0.0768663722076636
0.0829347680052242
0.0863132845391193
0.0636588690783291
0.111398736588588
0.103573240457363
0.0955710332763934
0.0909474320113412
0.0663882708757711
0.121904435396339
0.0820359351433784
0.0813266523326954
0.0800677770351271
0.0777840100791778
0.0801095281087885
0.0792708340121643
0.120252274754101
0.0918772929575821
0.0786006225319416
0.0956765068928852
0.0770808513750113
0.113981011702196
0.0952556477078066
0.0868311751724561
0.0816094311237553
0.0912359391423048
0.0761660693656202
0.132241775012197
0.119605904583281
0.0878757778546369
0.13134429831365
0.0986990668338494
0.118650613463356
0.0927649321001319
0.10084823100484
0.102854868142373
0.119211910289974
0.0968465371987684
0.0908208519648458
0.101518581181929
0.141613292764127
0.0929471540287866
0.113999819742586
0.0997632683507601
0.0979460526014019
0.139394733333803
0.177005804270943
0.133288074136266
0.118200553314463
0.107350731644432
0.139050133657055
0.115879448840149
0.114014076324026
0.114394094809499
0.110978369192499
0.115951053035207
0.116297387538842
0.128964040621099
0.119398517325265
0.11994084659143
0.125919803648195
0.11525293075183
0.160155384499934
0.158832586317062
0.189892793001799
0.130038872127672
0.173875666899832
0.155998101725205
0.144996915828577
0.142374863910482
0.134927154052485
0.149934754976988
0.145729794125094
0.144586314355831
0.143850765689069
0.164050787202107
0.174330690018972
0.154612907076978
0.193930264021483
0.145904637542094
0.180091468885758
0.138554306915058
0.368843481400667
0.199175429566533
0.184248687474355
0.193880036751178
0.177664576391651
0.28506826793269
0.197897305136572
0.195592088188758
0.197310665631338
0.19643361481305
0.211325977656684
0.224608784380326
0.227118136649779
0.235168048124098
0.236298179902918
0.22957600049888
0.245035717400024
0.339682680860411
0.306777309350143
0.285977204872107
0.255639808987819
0.293754280710181
0.293901889449781
0.276492466689916
0.285989984412693
0.297792903816685
0.290264928379002
0.39883592069562
0.307269930075586
0.331242609199103
0.312950542090559
0.375609827016269
0.318115411774925
0.395488516469836
0.400615502089276
0.359913134984981
0.36782892922083
0.361268930084996
0.391655181224355
0.365730822307176
0.431561646352068
0.413375697095146
0.399277917167743
0.401516338472054
0.404376520573885
0.417924551766869
0.414398305928168
0.43178307123709
0.414708169166059
0.472271226436453
0.462518689215899
0.637871720919142
0.476467999667545
0.440239877671884
0.458729418069898
0.433099005391751
0.490193932644064
0.464299239297028
0.50617631744109
0.491437518151073
0.438902320404267
0.460439776799451
0.451214746919928
0.460772929510757
0.450176321283655
0.467653433500489
0.448736150694219
0.488247026115557
0.460014956502502
0.455143588019691
0.575094869091114
0.4598464027894
0.456487737166418
0.442884195702081
0.446302179615976
0.440380949489635
0.4428582462329
0.429964288682495
0.467474854808964
0.415340092688587
0.440842663123499
0.407723135123918
0.454487595927116
0.455549413405212
0.40269033504475
0.410015519508989
0.399231581098876
0.407477580733527
0.394108395269639
0.391967199048585
0.477719355154341
0.37864692412738
0.378518182911422
0.369812823386341
0.374065581894781
0.357550377138534
0.356710396513739
0.36364249315849
0.368631846703127
0.35103532164126
0.362745340932537
0.342241596783122
0.345679678526233
0.336981130093384
0.346365231411535
0.338222104499659
0.33761557640548
0.343297163726808
0.333102285717593
0.330986454447071
0.324336492683337
0.328034097969224
0.326299187881785
0.324443268944863
0.321511465636297
0.318477113589661
0.316667398868615
0.315191584238343
0.319460348632371
0.321124517493591
0.312002360058823
0.311554063454859
0.31488626245799
0.320066409761327
0.305975711112115
0.310131894846271
0.309664061207562
0.311258859159757
0.299533088204152
0.307884385858295
0.295356527955043
0.315330772297786
0.286991318765892
0.351686579048137
0.343964869925786
0.292523496059333
0.312732348962618
0.293332725609399
0.306491902389775
0.278619930371583
0.340112051260508
0.323782319059073
0.295825118513976
0.292649628333551
0.289796827851982
0.293241345945736
0.309343567301754
0.274748259530033
0.297253653683703
0.263501937814606
0.328410349940524
0.377996228880559
0.332197083336979
0.395946392517052
0.300952996151196
0.284689350364733
0.284596708821061
0.334966625476938
0.268699355348075
0.282284881494723
0.267131557137297
0.296015896595114
0.295365443371168
0.268068877870416
0.269363176260532
0.258470079223579
0.283042926624808
0.303960503814695
0.273207588204626
0.289288099998968
0.328310022977214
0.277817809679749
0.309369041567766
0.341488576317705
0.292269110303271
0.255951583283853
0.258098400637057
0.253805866540869
0.254804248159244
0.315040779005622
0.257952275665739
0.264681442324784
0.250645263010203
0.234480381264322
0.252732479099371
0.253591417064584
0.261918715253343
0.239170785514968
0.294276067743902
0.22786335015571
0.251881770346415
0.265326969869502
0.275390809357519
0.29980177739195
0.247501191469019
0.22825699585671
0.251420770083236
0.284900259901177
0.238196426918605
0.251014305273097
0.220777202430137
0.22766172976558
0.255719579128145
0.221797229050136
0.232023132279027
0.244615765373006
0.245599404468321
0.289371548242735
0.285759846299839
0.287174560186616
0.238032096730862
0.209321882140238
0.218754798601159
0.216428632230026
0.223602742036677
0.207838343943813
0.234237243177203
0.241565724944668
0.205306362773423
0.275627886641304
0.229488850160261
0.218922679662338
0.224202728757151
0.223678029886521
0.229390913182828
0.266683089085412
0.282983859353845
0.254047396789676
0.23707187736745
0.271159119643442
0.243225451847105
0.256310110057304
0.246436334929251
0.256184115352785
0.250252565896025
0.273750573373962
0.26613933654285
0.270663362854966
0.275460597624266
0.283875941193634
0.298522754463868
0.333713639403138
0.285330194701907
0.347864158982709
0.334497806270652
0.363222837152088
0.346930996199363
0.325827736389927
0.333924212975251
0.334163168236276
0.344922655878863
0.348111256907842
0.353416264013743
0.403581289525273
0.363168258562071
0.374640258709813
0.363656155970329
0.382560631274646
0.377949189667378
0.410858673176619
0.407532361623034
0.457331646480148
0.471453312181861
0.410929060383027
0.415870560518564
0.396960409606254
0.413144349435996
0.404832751380547
0.401397520537676
0.406111825589893
0.403944619862663
0.432996374044305
0.414608244945855
0.412038669953311
0.416345358074007
0.414174472583817
0.41800654432183
0.425164265207713
0.421881135338269
0.424759894616942
0.429114973417862
0.434115600501717
0.428952623493565
0.516270542596344
0.464131619605769
0.442205026269962
0.45380847987244
0.453326485904349
0.457519514777411
0.449998561405941
0.47423330592428
0.472581993244406
0.468510013983372
0.471761864738959
0.467161556267177
0.476482139638024
0.483069754984315
0.506944740955554
0.476890982135793
0.49060991814478
0.468567784855597
0.50439852262329
0.567125787584063
0.499161238558841
0.520597241515249
0.497411022340579
0.499040926593321
0.494785143063647
0.498297321516613
0.494473687591362
0.50497526151287
0.495066741716714
0.495431680218159
0.502524299680851
0.498694897686916
0.494038496613818
0.502639054194933
0.521298887612904
0.503936032729557
0.495032737606861
0.493039934124977
0.493777543502489
0.492591637333881
0.522356717601008
0.521256505959418
0.500158898946896
0.501279634040873
0.497630187748054
0.523960828657166
0.51052155020217
0.487011838949165
0.495792348848302
0.494985505019694
0.493352591497297
0.499986216717993
0.496109773401039
0.522534996431874
0.507550631521259
0.50872595006775
0.505422988663361
0.514204861622083
0.514832707366341
0.521507910131379
0.517802986850882
0.53248952151708
0.525427228302155
0.532526337002347
0.531537131699128
0.532271010981538
0.541265193800476
0.54846212758574
0.556167375687739
0.541344780297967
0.538106977176311
0.536416273397517
0.534825856874429
0.541192483313925
0.530460222635919
0.526513459213383
0.519964024640839
0.515249276953762
0.519257682088661
0.548960859200534
0.515148858355179
0.522005991298291
0.510157237744191
0.498169887395278
0.502576845385546
0.496534703827617
0.490685569878773
0.489896343972811
0.493604721688619
0.483219428724342
0.476816116903012
0.478166593798402
0.479020623608366
0.48079424263566
0.478902657814696
0.479276833453868
0.475967694492064
0.474052748734433
0.473114822570011
0.472537420062358
0.472652557933072
0.468173178397758
0.468520274160729
0.484228580451692
0.491158936596701
0.491940578610084
0.478904400021838
0.474245689471598
0.481138433092209
0.47143869432419
0.467573651377823
0.466710842578174
0.47086803742035
0.470152522661962
0.472419132486708
0.46620040765872
0.467163819903941
0.469786601351979
0.468172500520263
0.465667750010093
0.463657413759444
0.46145382776609
0.462909978812215
0.461794341241229
0.461982867854205
0.460029936495676
0.466141814674189
0.464652141329153
0.461885815101133
0.46212361377786
0.462294183114762
0.46341117998652
0.463081391256957
0.465001673678412
0.458855581414026
0.456068479143465
0.458110387166015
0.458202286947427
0.454342640608498
0.460724624567485
0.45976563790009
0.45155196876099
0.452008196644744
0.453281746802912
0.446428684562083
0.440247623837124
0.44045690707815
0.43958329986061
0.436156177353204
0.428748205194956
0.426648820155496
0.422209790571107
0.419489163239476
0.418814385339589
0.41483201405559
0.40875366121188
0.406361860988544
0.406337043505027
0.401074530569355
0.401902204607572
0.400574988184714
0.396192772570303
0.394314390074529
0.396852745681428
0.396166987586884
0.390671694804846
0.39225910676477
0.39411340428018
0.391698932669915
0.390905452887684
0.393009351579992
0.393260891840851
0.392390207936249
0.39680715186833
0.396802236176056
0.396846216092549
0.400129857141705
0.400243425440764
0.401087990925512
0.402065826168088
0.406164284640142
0.406952147305971
0.4059702531683
0.408009202866416
0.408290068661055
0.41213722662361
0.414548847958464
0.414895045056554
0.417020735694488
0.420121539317666
0.417477236987475
0.416898064017497
0.4181456577697
0.417716987879065
0.418536578774384
0.413631439197084
0.414521922621835
0.415003164679589
0.414147175514043
0.413242645547317
0.412912124057441
0.41224073383037
0.409862765652442
0.410596463393261
0.406652958227705
0.407877578973878
0.409148744100933
0.403643010023797
0.407075582312634
0.405528733228041
0.403642059516972
0.404582201200453
0.399614313068164
0.396261756639485
0.396856417715857
0.399038875372174
0.394775266539246
0.392153579302557
0.39204005329265
0.39257814015489
0.390119099402978
0.386794101725588
0.38973076263119
0.386756611795654
0.383841940386976
0.384544829629229
0.384979664324311
0.384388016029173
0.380494519400129
0.379417995132428
0.377854792672041
0.374091877676144
0.374323728038642
0.371811668296409
0.370826263859706
0.369134391384239
0.363970015957516
0.362742886037172
0.361231194692387
0.357612894822198
0.357601538586652
0.355652742070749
0.352905142372658
0.349558696968384
0.345536096733841
0.344347948221525
0.346058063481829
0.345387614098817
0.342652174790484
0.342307354929258
0.339766067440722
0.339247350877075
0.341246820731422
0.341182832888686
0.339469532469912
0.336621968673424
0.333781676684134
0.330465437570877
0.328450663026255
0.3253400109148
0.325326425880824
0.320150219120528
0.31454129310897
0.311449611686448
0.304821729229056
0.300986543451866
0.299334004734802
0.296622435753635
0.294015323492185
0.293437000248963
0.29525302712712
0.29684818945362
0.298240484577995
0.303935011616627
0.30965612510702
0.315995420254482
0.323073464419917
0.330751784005071
0.338543237140406
0.350971624990934
0.365082439728504
0.380891769106692
0.396241096329973
0.407690751997037
0.424953288644614
0.436672104058459
0.449515977571906
0.466955791639465
0.48099418833959
0.495646617692101
0.508995964291655
0.5293691237193
0.545372907116892
0.554792058398701
0.571870736537754
0.590521449451064
0.607657452598564
0.623697040283768
0.635588937786343
0.645343886667399
0.655778286434985
0.662989307432733
0.677404125916108
0.687879476096904
0.695373818461095
0.702442290666475
0.701885946058339
0.709470735805364
0.712086967784076
0.710235809061676
0.714347180425774
0.716121076273116
0.71444424604403
0.712910011756303
0.713197875677366
0.712421046760138
0.712123609181016
0.711705494163672
0.711209516820481
0.711972328951593
0.710759342163137
0.712339708909871
0.718035859653953
0.720727372730084
0.723029727675143
0.727000609250821
0.725892388611941
0.732355165149883
0.744931579997381
0.745598903647426
0.750944124230862
0.756385570484886
0.770189192913248
0.774688563127062
0.784128584811712
0.797770998302613
0.804777135166918
0.820629494541104
0.831721400549301
0.838016877272353
0.857559520258591
0.864377201874078
0.858138938185794
0.86453040141536
0.873351100067796
0.882757221879741
0.884706342620066
0.880531909459192
0.874475446488698
0.875415921864891
0.869233206110277
0.865667689159815
0.870933379973631
0.868014137083874
0.863905715080331
0.872832516642697
0.878506083991386
0.882119734792656
0.887008299569175
0.894641451980314
0.914012032727484
0.915214048841034
0.925853438110963
0.945537765744462
0.958421212532656
0.964932731605791
0.983929941835607
0.99588644329149
1.00017264510984
1.01750608229956
1.02516145306061
1.04342040767363
1.06112333492827
1.06065182223069
1.09944156688664
1.11148279318714
1.12552148463465
1.1540060274181
1.2009265031515
1.24365596888128
1.2301179499381
1.24695738386436
1.25455254279199
1.29038517698551
1.31208335610974
1.29940742913255
1.33366692306788
1.34224883321435
1.37352114563687
1.43598842864906
1.47754182087053
1.46861133813377
1.44640336865001
1.45048525585425
1.45707513761466
1.45675179877921
1.51853742972637
1.47074490855454
1.51457383633114
1.56447556800947
1.49337210165224
1.54422605457034
1.52781869787179
1.49669582786641
1.50088579526634
1.48501288719343
1.4589275289874
1.46192073137468
1.5286358119875
1.49135027605784
1.48204810412902
1.50569046654786
1.54366685392108
1.62143682567347
1.65049119593712
1.61271263826724
1.59077494949682
1.57439299440471
1.64799500193162
1.63773458881377
1.62590981060692
1.84253146679731
1.76434657517596
1.70149656536411
1.77403579486931
1.68075574967407
1.72871862734191
1.8192356320675
1.87446824872273
1.89347662700105
1.77686132472725
1.79668561944592
1.90388902611903
1.85525063226516
1.8915053843107
1.87611773891263
1.90262759297144
1.88273131473724
1.82924816375495
1.84890388262101
1.88704786139417
1.9571861617896
1.98312949417498
1.86262205125818
2.02396877992149
1.89020791779959
1.7779979933074
1.89297718449992
1.90935035451103
1.94256033019045
1.90654972107827
1.93071803771092
2.00782007499316
1.77209375653481
1.97093481757349
1.92804446042987
1.72370741464257
1.6899601928947
1.73884253616757
1.69040856932779
1.64691157397648
1.55531328904037
1.50187596230883
1.41502876765627
1.41379246810624
1.33790951534953
1.30759542379708
1.32670821420568
1.31879516571904
1.30718206716189
1.29644874388713
1.24207617843638
1.25633218653231
1.23604906818263
1.23233439408099
1.21653294477343
1.202809548225
1.17110314600848
1.13978255830947
1.11820594189341
1.1066628389477
1.10367316234199
1.06588291567684
1.04591787494614
1.01847674148729
1.00338256985817
0.976643538064283
0.941157290275848
0.905034711668879
0.857891922215002
0.83255252230128
0.802297298241704
0.772952331761251
0.73284393359001
0.693001751955419
0.668325673837253
0.631261827581769
0.603478727459847
0.580063064604013
0.550313589639003
0.528961744604991
0.512446224938708
0.497506037305928
0.473485214282299
0.458580282229986
0.448599570061922
0.432141254160121
0.420528900555187
0.415013996323382
0.402165774314357
0.395259390998684
0.392870683730154
0.388073300702894
0.383104768357728
0.380904770527969
0.384378088591015
0.379869998674542
0.379128540278575
0.383051651931668
0.381642369860663
0.377408779773044
0.378139832749133
0.386277401065198
0.387135665593783
0.392995471140859
0.388314456489077
0.385405451058839
0.388036298994998
0.394590466253226
0.394762800127862
0.401538979706913
0.388267491314009
0.385774688558444
0.39253077005728
0.383559307365751
0.384162622795246
0.386299738057388
0.377107099721463
0.381514985853995
0.379249256902524
0.376279623671017
0.37790840860988
0.38533000240541
0.385034747275471
0.383670868101143
0.390542556691653
0.39376175648338
0.391938821459497
0.394309833715143
0.396086526713311
0.398449651501049
0.399941928147645
0.403252449511238
0.403009448310894
0.409108800968064
0.41100425238916
0.407363155234078
0.411136807376192
0.413180304967311
0.411408668102021
0.411169419372151
0.409484285045778
0.404519822675915
0.409255688340159
0.405660599847504
0.409114464007322
0.40846879193055
0.408455176727141
0.416031423211884
0.422917368155745
0.428210587883393
0.423971107195834
0.436634662591312
0.439918254561632
0.448727419627868
0.461279921657617
0.47234091169123
0.47934381765317
0.490393639788996
0.503300747351328
0.51617353602302
0.526874440679287
0.536432104135992
0.534524431583212
0.5417219414269
0.532006369851125
0.525024126836872
0.514875140071279
0.506571229237094
0.485805202616447
0.49098936208807
0.489491408356781
0.493726954292305
0.481368423534795
0.467736567315011
0.46780788452131
0.477512392932254
0.475770152085077
0.483555998927068
0.466495375905069
0.470415366181781
0.481750411536151
0.481152767613054
0.47438856328337
0.481263034454178
0.476808658785502
0.470152704974218
0.454376908330509
0.459962410051276
0.463238121671184
0.456917414252502
0.43980070623331
0.451311175743118
0.46013214422721
0.446863766075405
0.438442268029235
0.453035747252797
0.448233831614264
0.441511343470241
0.449260924412042
0.43380580007559
0.437738337605275
0.434805598067371
0.425145171974872
0.429965195090908
0.433459082012766
0.427776155510213
0.418591694928068
0.42652145483684
0.441451459348894
0.42444120217275
0.421391983725232
0.438243625233086
0.420756497566769
0.412310314223372
0.414338531479882
0.429265376860587
0.421777735023328
0.420652789180375
0.416382414537188
0.420100288665047
0.422607568932447
0.416671744014309
0.408616916067525
0.398827024451605
0.40988304678766
0.407460046343349
0.402444239998559
0.407533106224789
0.397142659408966
0.401653616022408
0.407309955903644
0.405297013009605
0.407159782628052
0.409919858261633
0.408368805632119
0.417436052226856
0.408245147655311
0.414806788890015
0.414239661290816
0.413970408780347
0.417896098908573
0.419832414303016
0.415876094583336
0.417174381263374
0.413685722691234
0.431284548063547
0.424134972483306
0.420463117965871
0.421542567769489
0.434373323846281
0.421134260230181
0.442079473975853
0.439980008231783
0.461484798899593
0.453158274137882
0.463665627817212
0.451919651407542
0.449816586055
0.470932389288526
0.480006739276098
0.469853149856948
0.494313013643771
0.491592135728697
0.511777459738295
0.500504349237613
0.512435041510372
0.543058942457327
0.533040527660602
0.560626672282283
0.563653457470876
0.550084028771453
0.624395826160148
0.62841657802476
0.627171381216451
0.655282454406792
0.648703364889503
0.649155184439968
0.666842896834515
0.673101878079543
0.676532402510311
0.673344161845702
0.675047393887515
0.624630096373468
0.7032002777246
0.652186531603876
0.626820837884477
0.672115609640045
0.697989514046681
0.635748679544786
0.663938730646037
0.666200828325374
0.675635653737101
0.655607168236096
0.701990159103992
0.64749518966047
0.692114982909109
0.705546013418237
0.655703761695291
0.618002218473386
0.66228178662685
0.655945032793742
0.674118051620739
0.683449033404431
0.679436342869591
0.617643436923732
0.637831964594231
0.629143498032699
0.647895910727797
0.60411725718497
0.643956837367591
0.606518553707006
0.631866229860114
0.622255816869665
0.653850001355652
0.635375545628063
0.653270931749979
0.613573688094031
0.667949708705695
0.630609426047978
0.627979227136103
0.615003244677646
0.643440995464272
0.654141267366554
0.703365863696424
0.633541110320979
0.690560840689214
0.580663467558462
0.57703577024927
0.648407300605879
0.705249232207072
0.649838134179243
0.666863521132855
0.6097288093174
0.779830062485371
0.667465662669323
0.612019861135047
0.612345161016809
0.702710700500631
0.645155522462164
0.618853110635686
0.638239299474755
0.754163504589685
0.666388866193517
0.683034355824811
0.641571242732391
0.713275015858157
0.615837066350947
0.66695450838167
0.726640822722889
0.80616926050201
0.759115977799944
0.746670749596218
0.745717686313327
0.883791776067709
0.760430713875276
0.793561903947881
0.857735645336039
0.805768770892675
0.717408907911342
0.819012609185436
0.72862593014477
0.904126659485438
0.775158735768865
0.861560880965632
0.814137928496643
0.882308670208059
0.92111424174619
0.997258401465108
0.785962121841074
0.906412276711319
0.788921019249751
0.945540527291083
0.781207380974684
0.894578490198999
0.782402712659877
0.941847284331436
0.878839425792268
0.968599760852492
0.757000998720987
0.917098386731163
0.801030624096773
0.838080900808143
0.688432416756037
0.674098549814085
0.653670526777855
0.922765496132341
0.756725582733238
1.03656558406074
0.825497635717305
1.00848143562724
0.65185881463353
1.08919633092735
1.02174068620998
1.00330998976551
0.633698334388835
1.16225403698509
1.00823574556916
1.10578610396143
0.626420171354366
1.04896850925189
0.699487921136432
0.842877085116537
0.768629299182507
2.14711306433769
1.70338531366105
1.87746546582116
0.741714319719474
0.599974709050097
0.897339743228708
5
0.892750413341626
0.909385373365462
0.746296360391494
0.92046827105903
0.666303401598734
5
1.01532775761467
0.546308507423482
1.00361730504254
5
0.55369921291194
1.15528367332606
0.486710223561795
5
