3596
4000.36533379555
650.420452594757
1
2
2
0.0661097108378642
0.0554465913765293
0.0640828526141554
0.0590238322107965
0.0737067487218247
0.0583283677108463
0.0621475725234835
0.0583058680901423
0.059815742205374
0.0660693127732847
0.0664954885821043
0.0604093796232462
0.0665108441100335
0.067456204878233
0.0683253821412883
0.0596348938116075
0.060729345944644
0.0611627867606378
0.0654244150120822
0.0648080508099956
0.0674082952580431
0.0645111315256136
0.07003899779795
0.0580961054253055
0.066049311645815
0.0684144021354103
0.0646916948357271
0.0600988494103656
0.064987605149
0.058251489377295
0.061269989689369
0.0565078539776832
0.0622967537039179
0.0584376465354665
0.0648793371946823
0.0625354852035673
0.0673341285818858
0.0628527563485162
0.0602167673676382
0.0646016895788361
0.0819330177287962
0.0714033572417724
0.0730318986733628
0.0677181045628715
0.0635238023402723
0.060386029100801
0.067784282619926
0.061813693394195
0.057884803582917
0.0670495201351872
0.0743207861153948
0.0552747758482815
0.0803623705184147
0.078595815053234
0.0661090337554032
0.073067060454231
0.0747101412186534
0.0579906705166048
0.0752523946837321
0.0597521275112212
0.0825377930023464
0.074932450385433
0.0706530981082226
0.0703664476034947
0.0657851351614276
0.0588320537374093
0.0626412986042292
0.0638678344690999
0.0615791375123009
0.0667379621007317
0.0618981440329859
0.0718673472189154
0.080124674042233
0.0644728322958603
0.0755482032439806
0.0672117393602379
0.0585367508100389
0.055673753718379
0.0523130827738971
0.0723048062773249
0.0772764039675475
0.0655895541828753
0.075976197120034
0.0573449999111724
0.0675745131284624
0.0724621770047962
0.0560801993225344
0.0663090987930664
0.0836482685440895
0.0733600070256014
0.0626283181194099
0.0552209893909111
0.0595766818085551
0.0615432926489645
0.058258068017837
0.0556575573255824
0.0606029229976677
0.0665671763662219
0.0556204801310025
0.0650925070050927
0.0795384223047752
0.0723348132659162
0.105984971540579
0.0465414500608574
0.118498079898381
0.0694082042437497
0.0702029697614184
0.116648440368255
0.0797322725151192
0.076477799109758
0.0624363926927523
0.0647226018816418
0.0600236538460875
0.074151387842101
0.0485561732792072
0.0763871403272348
0.0944241383573245
0.0672324599435181
0.0633674230739745
0.0588591033500065
0.0521173336190586
0.0963216455424456
0.099403972863265
0.0677092674526673
0.0830018131605582
0.0603559475780863
0.0578828094734746
0.0968018240819358
0.103600681473017
0.0637568031768183
0.062470914223449
0.05582754340555
0.0589635050877451
0.0468639292587003
0.104639708199951
0.0740180477997209
0.0730867333746425
0.0511633747983441
0.0875854170758726
0.11294260795591
0.0839966527012242
0.0636219118446711
0.0468296233057916
0.0635480927879266
0.105691729243353
0.0720538855080725
0.060316894391436
0.0748290910851416
0.0737314674404445
0.0583994258562249
0.0678282061910917
0.0569174977062442
0.0779540402902665
0.0714592237452708
0.034124140583092
0.105958402326834
0.137766237627101
0.0849535668835626
0.135306883298858
0.0568085569533617
0.0755238058183235
0.055055823907096
0.0681028020101963
0.0518481461290249
0.0699016036434539
0.0437508919433917
0.0723427778271322
0.0889715755684508
0.0613913570899881
0.0629299253945752
0.0921145398288703
0.0723052190174599
0.0641001101487391
0.130411041690925
0.0800868091742907
0.0613122868717449
0.0953669095309028
0.0696222857566053
0.0567150595047667
0.0663223405319543
0.0930640298980047
0.0591678507673576
0.0717694316175518
0.0549207065454922
0.068088808613436
0.0710183543179279
0.0705116648473589
0.0644585763934633
0.0712808562587058
0.0424183191062548
0.0855180529279248
0.110653448478151
0.100033614208169
0.0593892814221386
0.0707874463160285
0.0304000111404312
0.0964493888520536
0.0981547989727726
0.0660400199363705
0.0558432275394373
0.0563314103352345
0.049629947879194
0.0567140203070156
0.0576824759521004
0.0572183635705604
0.0393451365251844
0.110830121828195
0.0700774373311797
0.0674783745892159
0.055490907232821
0.0615956087275334
0.0458937140916056
0.127357113106479
0.0898778259871231
0.068256476637894
0.0654979182523578
0.0565446589519163
0.0739125684190373
0.0832199299592742
0.0631940047087939
0.0650575532533887
0.0573357073318032
0.0652616458062613
0.056426939531026
0.059309294988606
0.0554059708282194
0.060429696199032
0.0569997326446566
0.0620167847848016
0.0627578053746437
0.0744522119078541
0.066026421294888
0.0564327166415699
0.059052402977344
0.0563045571023723
0.0797924104912171
0.0927920674191561
0.0658110598733395
0.063553861076409
0.0526569868571937
0.0631043067321284
0.0627683060475859
0.0658742528956559
0.0600046569839185
0.0609552207274457
0.0531429891387757
0.10926712175252
0.0672458820047949
0.0697855925263745
0.0501679691989203
0.0779850495555167
0.06997060052732
0.0653471230262825
0.062556727937477
0.0650398843415913
0.0456903062164594
0.0596050935325166
0.0900353290910244
0.0664135284273904
0.055741775517657
0.0866027444496634
0.0712314409281243
0.069001008468243
0.0601419972356534
0.0563233327630449
0.1429259707596
0.0772239332133272
0.0543930656514215
0.145425760605071
0.0820610003870693
0.0875257247498302
0.0644273413533013
0.0321085898761945
0.158975598680488
0.133960186978666
0.069345490724778
0.0695912001264122
0.0845471911656182
0.0731009343742539
0.0757477183234361
0.0779541474140025
0.0879874513868726
0.107178621562765
0.104647347787462
0.136446401781595
0.0627977669373462
0.102497521026937
0.0940287118450226
0.0743712506586669
0.0721216964144567
0.0802202841348957
0.070457574010979
0.088712128271483
0.0845053414024432
0.0942346064143608
0.0757533365265907
0.0711901994998793
0.103712176902498
0.0877402743738141
0.0702267737701307
0.082268908368544
0.0809804395534953
0.0715499380143653
0.0766174615338097
0.0746043351304882
0.0816435085708668
0.0689363804731142
0.0668857890063392
0.135004759877462
0.0904815963857337
0.0858422761085216
0.105800720191449
0.0868854198412667
0.072236850860102
0.0782139854966311
0.0711927143489542
0.075888767469601
0.0710299937910351
0.0755732935448738
0.108323499872065
0.0907358385773657
0.0665828070037724
0.0709873834154284
0.0702990030338825
0.0742800160292692
0.0746704107356573
0.0809494186231952
0.0738314159336952
0.080351143315654
0.0712238445715186
0.107729857627977
0.111200741236567
0.0704083543889388
0.109207525224365
0.124064202264371
0.0873199234991056
0.087718028616756
0.0843339754545534
0.0896289081403931
0.0732458788701138
0.0934199300419457
0.0887099180319006
0.102772280522224
0.110108110099438
0.105712929525264
0.0901331364927262
0.106721021581173
0.15335960012918
0.168103989740472
0.106502716074099
0.0980136424004116
0.0826738688680578
0.140086540873902
0.130672128034229
0.124174337177976
0.133540588939255
0.104260370063218
0.101504626305969
0.0996141373421257
0.107600367808321
0.106802650366396
0.106823251470581
0.115237445091607
0.116507427107802
0.116114047144323
0.11434862970553
0.115531692071267
0.11682028014942
0.157268037903639
0.127300421562345
0.121786033487685
0.123496976930568
0.114996211645901
0.154743025607716
0.162140415702483
0.169835176434178
0.163425318146961
0.160216105385974
0.180988154833885
0.138894022739802
0.143522616767402
0.13157822666357
0.14472432055184
0.14483833057996
0.143543777703741
0.146346184058784
0.148691985242617
0.148391702318589
0.148782970310849
0.133589169118078
0.155065740541472
0.158457281474067
0.178855336887358
0.161219596721964
0.168718917910498
0.152714844219503
0.184116864484189
0.2185247931331
0.215829144887671
0.18183732127543
0.179106358374529
0.169820447608818
0.165904894990037
0.167007077990083
0.183016237929062
0.181732245269422
0.181830573529939
0.212258471336848
0.214313844623038
0.213811495975227
0.207457983827954
0.185218443751304
0.223049307676842
0.205684888458558
0.228628834215638
0.238774194419838
0.219566165927829
0.202462997640208
0.233647737254563
0.229076924848554
0.231039173775238
0.236097317552861
0.222758532882341
0.215025637901494
0.23393324739612
0.222154891550967
0.235024466903203
0.243993210369197
0.246197184525741
0.232767391532475
0.241166890883553
0.241536941423368
0.248936492322803
0.263669040327725
0.257889268066587
0.256398741490553
0.276225796496886
0.253578468015365
0.260531441105162
0.254093381962855
0.295036274748589
0.292029581430559
0.308091909110971
0.306466008108425
0.279201603061744
0.27584736757822
0.291016702282635
0.282383202012863
0.277773348372417
0.290644392557
0.30426277872293
0.292694159437682
0.303576770907846
0.299786873346991
0.306974714487071
0.303501093573547
0.311407229704235
0.309690497241399
0.331942195670574
0.320986669767723
0.333348563956311
0.324730949857958
0.360854819936537
0.376654611537261
0.384826301867875
0.362654934963137
0.353902705154417
0.358552866933261
0.369149307725188
0.358176370690906
0.362187889968352
0.376363043070888
0.384341249304084
0.372579031542372
0.37450153440832
0.374110495136541
0.382125911610821
0.39465162354373
0.412336857495239
0.398372895143979
0.396640436135042
0.39885746770394
0.413114854931361
0.395744419709524
0.420498934715973
0.414032513667407
0.411425660505875
0.427033388629952
0.447832565928094
0.422135212750447
0.432270076495257
0.430124992080152
0.438812414899503
0.442915553491268
0.460769740267198
0.461530412316443
0.468212160011476
0.445672671935553
0.473795538105342
0.476731278731538
0.488166150051157
0.47847961657531
0.477776417461961
0.482598240640445
0.48588391793581
0.460501272738681
0.485859608847216
0.475316589354822
0.485838891121798
0.486733256530071
0.515642029136232
0.507505095899794
0.522125606203699
0.49771958223709
0.510756184115607
0.521574486956202
0.51794865269013
0.53498897894932
0.551750104302191
0.536481077212716
0.541407408515781
0.534682298982091
0.581105627884981
0.565236959052341
0.596434730850376
0.579133127759788
0.582844516187403
0.556132273989911
0.574973505386323
0.593189379687715
0.593193723046485
0.565769884965084
0.570970075364196
0.591501414734769
0.628297847165982
0.60839659157202
0.618254817862129
0.605329685987396
0.632669826034216
0.590417269935235
0.644349337638468
0.660372220030533
0.652950016755196
0.620833659462955
0.620136985719544
0.640791465721336
0.652449491948908
0.632839087173338
0.632568769819062
0.614836616272963
0.658143817463035
0.694444214261143
0.686321048385933
0.667002068810286
0.720748010027651
0.692912392310927
0.671242201948371
0.69882346992166
0.708661901412919
0.69353373514194
0.734504842794515
0.695368746233945
0.749356805976992
0.756809990685182
0.746845049798688
0.721356743668717
0.706606141784655
0.729772398332314
0.722965531531561
0.692851210374149
0.750426485761372
0.74259562393974
0.772532379368533
0.733673002342479
0.760847935939749
0.78297657842221
0.761281141949311
0.76875614424004
0.7507771392104
0.740046298553244
0.783141657800817
0.791818210072807
0.80337502793323
0.797640791459891
0.843500922134679
0.844582573920858
0.808697102195949
0.791079503394734
0.864881237770998
0.797530530425727
0.842790005498455
0.854461579257312
0.843647560969303
0.871427725469711
0.882275139959312
0.870432686901581
0.865889639171993
0.85428285242817
0.857972749666641
0.807266685787986
0.865266913188726
0.867849953814905
0.881705456765109
0.836080359213574
0.871188293330408
0.847025037080651
0.897048533593602
0.894836459615133
0.89132604129587
0.896215758765951
0.870911748373734
0.900798762732257
0.94030469249709
0.912587857525154
0.955702235389981
0.905859937454311
0.943741814204739
0.954942544929379
0.90233138992306
0.925489607390663
1.00850615623144
0.938057863397566
0.938341030996464
0.927770339079864
0.934824235080097
0.953995372165817
0.953502249810418
0.927285748562422
1.00378717578191
0.96435708936532
0.985203155663386
1.0735040959463
1.01186777519844
0.937495663970942
0.964066669847239
0.991300257855853
0.960946639495013
0.952469592953327
0.995239843113257
0.964457186428791
0.941791026514142
0.914442756055416
0.97989425134101
0.996019158297748
1.06841965386373
0.992334225369513
1.00251272724881
1.02555890269996
1.05094071090035
1.01354649059867
1.0186444945793
1.02023930768791
1.03800775459121
1.12182552622122
1.08926499213975
1.09475646705676
1.12761903002092
1.11307656836817
1.10377272445037
1.03553729456422
1.04283987559132
1.0882902998626
1.03127548208918
1.02041684068942
1.09305911273789
1.065631753958
1.02918158119311
1.0425333948553
1.05902780366467
1.05534610924665
1.07814035420206
1.09912706611558
1.11409629777156
1.04643840446304
1.05785242370762
1.08277110457313
1.13316936750527
1.09337791463768
1.09736949690592
1.06691174523691
1.13378519301149
1.17581681907676
1.14540209804203
1.17120587630679
1.11014565347322
1.08893244220388
1.09594556298043
1.11712303502926
1.07697622812379
1.12103506643533
1.13948019217912
1.09914798777855
1.1614431016874
1.11116955786047
1.1542269990854
1.08548113023564
1.05199384160622
1.18008810419032
1.18723948380479
1.1084427550138
1.12091092724289
1.10402508285379
1.12190032387796
1.10947160419725
1.09593498886739
1.11700418788352
1.11742737715123
1.06552905990552
1.1644766836303
1.11476212556855
1.15886913961446
1.19208973342397
1.16311311363852
1.1990434033946
1.14140554769984
1.10422817988111
1.11798059210676
1.11967703191421
1.16621460288927
1.14633467628258
1.08803101244824
1.11566737988066
1.14864635214869
1.21442432269381
1.17954498721731
1.11506164945337
1.14123189744187
1.18407707075772
1.20047430399008
1.19239314028802
1.19239276948372
1.1687770743825
1.14487181731441
1.20653602218019
1.17123645449554
1.20103484609573
1.18318087047575
1.06118546981653
1.1158182096619
1.10948643318967
1.11836789165357
1.23501563638188
1.1396836381572
1.11472094693572
1.16578589752715
1.20540782447892
1.17963281440393
1.13866025753836
1.15392199847374
1.11329707663363
1.18640973502236
1.17493076624179
1.11747074116883
1.17665078556647
1.12229099859976
1.16441955840105
1.23859453959666
1.1514830258817
1.11126602857051
1.1652704222546
1.17610667799831
1.15393843759676
1.20584695107929
1.18812734160824
1.15675727408877
1.11809774558975
1.1408766569352
1.16218127565881
1.19900026076981
1.24234008976095
1.16855740420273
1.17857798277507
1.16515519707662
1.09839381145905
1.13130234571876
1.13278731974908
1.1088574396941
1.12807172965298
1.13875986967144
1.13968322392383
1.17617486572769
1.20060798245425
1.1790940927297
1.18735848594193
1.09611588677996
1.10879853336731
1.15978703428307
1.20751515282801
1.16958346570527
1.14211972326706
1.14111033000908
1.13178517104165
1.088524683323
1.12528742925852
1.12127736116965
1.12063055148745
1.13589582801481
1.14595734642192
1.12209458871302
1.13128626133703
1.12681104810002
1.14125163659993
1.12037765868421
1.08297937868022
1.08814965810041
1.08502652568858
1.05613475371974
1.12474587792027
1.12035271316393
1.11023652106411
1.11361450698125
1.04225401132569
1.06886273356256
1.09405856564128
1.08921377148938
1.11036223552657
1.08537819039159
1.09371963754293
1.04356583210429
1.02309344642645
1.0447388284111
1.06087549471831
1.08628965362883
1.11591694097565
1.07853788195089
1.10087462851974
1.08021067882596
1.07871462457938
1.07316220038022
1.05114893547797
1.08058593994812
1.0461024843702
1.01624109165032
1.08292079201122
1.09513962100947
1.06411804639082
1.0304939250367
1.07865199595359
1.04053212658895
1.04156758576166
1.03111659456696
1.03635953557658
1.05586483495468
1.04197240681508
1.02239822066777
1.01470533451423
1.01708708477656
1.03321880726379
0.983908279085579
1.00764458283148
1.00570933487925
1.00973344535806
0.993224114061206
0.979449243660831
1.03292190517598
1.02302545038607
0.998232012189654
1.0476450372569
1.01210071927868
1.00439419123703
0.987847128217684
0.96966758045489
0.967830269996557
0.999882908788783
0.976972102046155
0.938081141241565
0.937298495976283
0.932370458318359
0.908934639919163
0.948356849836556
0.967030068269009
0.975874953997177
0.949913934169048
0.919953444129602
0.944054085496235
0.948051292949979
0.935563101317565
0.930138579239586
0.911326966438243
0.915010437192298
0.887594862214104
0.882035023824625
0.885459053002316
0.880174747532145
0.876164718876855
0.894678135855858
0.880196476889259
0.863917904938474
0.866971070614309
0.876124981885643
0.870237193092918
0.889501895927297
0.865873743100413
0.863293436394531
0.880887926269638
0.857002442650059
0.863433136286659
0.872117861867241
0.836008169975363
0.83893856297505
0.837497928713049
0.823151722162961
0.835165776980018
0.810919077308206
0.800309641906675
0.831955102154895
0.787433726274923
0.802788439692577
0.802823124519255
0.783415172730849
0.80239291785085
0.791432966898659
0.782108657149301
0.779069331682005
0.778036011031328
0.772742525304172
0.770156770714795
0.765923788350762
0.753179868479473
0.759724016435164
0.732160613194959
0.764754279851137
0.765876363879909
0.725543647101911
0.736516941558519
0.73431332782721
0.719573640220989
0.727703587079417
0.718627814319255
0.716878253397676
0.71886256154353
0.725883158270914
0.701703010856638
0.695582158313357
0.669578533707647
0.700789399851407
0.706419002517517
0.680121852141385
0.683566250016675
0.684858668825174
0.675878896536817
0.681314795746407
0.675352744435567
0.666963194495386
0.679009012193177
0.674663465084347
0.654149888971725
0.673515461352871
0.665742953555006
0.65394582377953
0.634626964655535
0.64489823609954
0.64379971911286
0.637113945198491
0.651714512069148
0.64305399309295
0.626029610729485
0.621387574992708
0.614628100013275
0.620806863874185
0.61858068827616
0.617729543607579
0.625119625321003
0.6119425551661
0.604829760766641
0.607429829163279
0.59276606941665
0.593645312677487
0.589657736730529
0.593513568204652
0.586153793800641
0.581597292564765
0.57753976687696
0.575970137049878
0.580057044746283
0.5828545504928
0.582142923426452
0.578153872286235
0.571353921847454
0.568234601789213
0.552926889110167
0.565089888103689
0.554476087877209
0.552057305124377
0.553897813143502
0.54792150627346
0.541766482414432
0.542719842035563
0.536526013672361
0.532399780798628
0.532403760315017
0.529567783555426
0.535875103831585
0.542636979376333
0.527718773189933
0.514544253834832
0.517707833355872
0.524798108226757
0.508226212705342
0.511801866327908
0.517489228197524
0.508237839976005
0.504073328709488
0.510163580269107
0.501686927295317
0.500912129693813
0.500647917576681
0.49467871852247
0.489228712057751
0.48356345607691
0.474053662129543
0.474545609443796
0.484766734371503
0.482613769925993
0.480565456794467
0.479025270676187
0.468067572426726
0.460915105461087
0.463225467352713
0.473069482403083
0.464173759084949
0.4652441889907
0.447886429664877
0.460768242906057
0.45255461990995
0.457620571403639
0.447065729523319
0.449865482577451
0.44191749336866
0.438359490127537
0.429381579455946
0.437473660437434
0.447106674604669
0.434541409119804
0.43246168738722
0.430955410288431
0.425872498711201
0.420242216199818
0.425183752338758
0.424579618697271
0.414503651363029
0.414549659279082
0.413413372136405
0.412129374374126
0.405461734029631
0.397086993548035
0.407107418627074
0.406449682687175
0.404771121900499
0.408760472414971
0.404062803882414
0.39831032307253
0.395088636505456
0.395840067227837
0.397558375689135
0.388003415023212
0.384327327032301
0.386263877977551
0.385991857160484
0.383609271195272
0.379123401861003
0.388305288889157
0.380272944777488
0.37302839255597
0.368572330571873
0.368256447974909
0.381451755510124
0.377624251715329
0.379635843441
0.37521943028835
0.368648549388021
0.37617190279552
0.364361781410406
0.365685685806213
0.368447202868109
0.368055271876183
0.367990937494636
0.370232915455998
0.36154701913602
0.369499837486622
0.36347106682787
0.361621284376301
0.363431659400682
0.369541520041937
0.364018581971317
0.36716704544724
0.370077995326951
0.369683213990569
0.371050552509959
0.370735060705237
0.367396788452406
0.374676874200774
0.37266040578341
0.379455385771005
0.377389995089743
0.375412208281797
0.380697378786924
0.383315114108611
0.376288896849492
0.374237795570732
0.382185813563919
0.391440511414588
0.389108373668
0.392252380918393
0.386922785021175
0.389879632182448
0.392208298751421
0.404024752837767
0.396802316016099
0.3951630473502
0.39965618357423
0.402823631780691
0.40570103888726
0.402104756943754
0.40695795851895
0.404807789074855
0.416354185838334
0.409978841319301
0.407423907702515
0.411227989800037
0.413983921795934
0.425349700416397
0.41785554870713
0.422392064134576
0.42707877514173
0.423034906857524
0.433069783749262
0.439376726626949
0.433990905169455
0.440171156475904
0.443240921243547
0.443433609954623
0.451767965668714
0.454703486314226
0.454431743883022
0.457318852285929
0.45241168212973
0.466958951663502
0.47675329848285
0.463749390656571
0.463154303855616
0.476789858983554
0.470519572066205
0.474724201649407
0.478999881547628
0.482166899280481
0.472882785244533
0.495115226567105
0.477325051923895
0.487420307970995
0.478145214880643
0.49392283112573
0.484989285153963
0.485607838759481
0.478272769466546
0.498584540174895
0.488146279935048
0.485396345218169
0.478333656690504
0.495402016037689
0.480480205667786
0.474992414955393
0.474899916720185
0.468200388078068
0.467596312651751
0.473669631940091
0.466745281119899
0.473099893241267
0.465445309759244
0.470533358258613
0.464986821813879
0.481104900901931
0.477352898568165
0.469793251802121
0.465216120079966
0.469617066799059
0.476857688108544
0.475770664558162
0.467100525370463
0.473212268037018
0.464450648513312
0.466809248836596
0.471730776501786
0.465557870571077
0.475545947974524
0.466480398733973
0.457836829293573
0.47458899563156
0.462020032849862
0.467637744384679
0.466028721377246
0.469771827285328
0.469132475914106
0.469193385540284
0.471736915772966
0.463008163432868
0.46227321011124
0.469596382397576
0.457216432484933
0.464796960969032
0.455270027253101
0.470937926662372
0.459968682956904
0.462264807512455
0.468517635124406
0.463821345638665
0.456988362295409
0.461181281770035
0.449990481670237
0.457623970743002
0.446496811369609
0.449526587054527
0.44065806212987
0.441039960191776
0.441711198649749
0.436671706383829
0.430361701524074
0.445044574892465
0.437930745956843
0.429321794914719
0.424555970274241
0.420746511638981
0.415823615655021
0.416354073101968
0.409044575196496
0.412734472899781
0.412410634785994
0.399103793759405
0.393344659766887
0.394289411452623
0.393093882659749
0.390601237306445
0.385433871524416
0.380535717363539
0.382715390403907
0.36990021194559
0.372529831023303
0.380125205946149
0.371568777153602
0.373192424694121
0.365635292342368
0.366746818265197
0.360070347975391
0.349154444452148
0.346809152033342
0.355860694062539
0.353761111524296
0.347536904570786
0.344880768431179
0.348463129847469
0.335979779133709
0.33221479974642
0.335643235423736
0.338252439382439
0.332493678678398
0.330481336372491
0.327785567092882
0.322839763846043
0.323875750233659
0.32486316405967
0.320509918795103
0.321176376346162
0.318330578746705
0.319669812569464
0.312944728211094
0.317626818049148
0.313728394281637
0.313946514509391
0.313030151246258
0.305310988551466
0.304666996290212
0.306112110323629
0.29738392690374
0.309948632522288
0.297561400994181
0.298071258266978
0.298203764823282
0.299323552255351
0.29188714519607
0.292995650566987
0.290587319139148
0.286506400082898
0.284959153123465
0.288460331173106
0.283250925195002
0.285367546190698
0.278730428106133
0.28226185001263
0.274589148522605
0.274025090315732
0.273978578636365
0.27299574673654
0.269258519815483
0.269202190387099
0.266720340109452
0.270873347198598
0.267957529754327
0.268418595614007
0.267176885151623
0.266651565813134
0.264395434321739
0.261958654761489
0.264147660864782
0.25920507273533
0.258683669104286
0.261808759325629
0.256386983246108
0.26323745044674
0.26034219967579
0.256782253786136
0.25423126106818
0.252142689126546
0.252437861338628
0.254859801999323
0.245390462251034
0.251678065871543
0.248909546314182
0.252522786240924
0.246214514221393
0.247462267865653
0.250130236901452
0.254694577302989
0.24598297055843
0.249346326861171
0.243766009969703
0.243783230449946
0.241768888151311
0.236021677763497
0.240910117707039
0.24124713127371
0.240157066691019
0.239643984852971
0.237273765386326
0.237813366029351
0.237447216218594
0.237016988908587
0.235022777344238
0.230606134167044
0.238896028999698
0.230989601341307
0.232673243784559
0.233268107780567
0.225435766512737
0.232196823993841
0.231572091451971
0.236166249469858
0.23238011029518
0.227784554484847
0.223398796323323
0.230196583557016
0.224088167449137
0.226487326588228
0.225302832617076
0.230829048893317
0.229757483593098
0.220866657615132
0.222872156770296
0.223293613201978
0.219946754924299
0.226797602963078
0.222034534688098
0.220864592397471
0.220538889433731
0.22256549108273
0.218819075896773
0.222312560889417
0.219963482356949
0.218879538812162
0.215335806387155
0.218113591368227
0.214346717607997
0.220989091512649
0.215893289128537
0.221980538443601
0.21586419003224
0.214282194750096
0.217120638933676
0.219573170717429
0.216678491270241
0.218797423801331
0.214933101765239
0.212786128358683
0.21505994547246
0.210368112586821
0.211255170178307
0.217544893916392
0.21302319365741
0.208571931918585
0.207595227027296
0.212720281066085
0.208608319837633
0.211466845104765
0.208196543881844
0.20265006346547
0.206610594034821
0.207463622503154
0.204640388302322
0.208920131194028
0.207202126990375
0.204079661528907
0.200466825019414
0.197925699507247
0.202109225500082
0.201590289303165
0.19442844583096
0.202399232238828
0.200299592334931
0.201413370559304
0.195120675464504
0.192558413023961
0.192581322678093
0.194626264455035
0.196259444359532
0.194982580870193
0.192203498176919
0.190245875550401
0.190174130415549
0.191575482338173
0.19036303267999
0.18677933652111
0.191919977319805
0.191010165333169
0.183820438755726
0.192031738205473
0.184016171545704
0.182936080231948
0.185645998497459
0.185231397196051
0.18296473774949
0.188235048641705
0.18639256099536
0.186128945974307
0.177329939194177
0.185421505920436
0.177071388880014
0.182428617699192
0.177389931317525
0.173615210349516
0.17748584389251
0.180194834890487
0.176053702806101
0.175471752853676
0.17094981930283
0.17536529312291
0.169137381844185
0.176603743527961
0.172602795150322
0.171595085759595
0.165974515781262
0.167797265453942
0.16170998936397
0.166083475141007
0.168303521756342
0.172572446307933
0.169013742574168
0.162215575582298
0.166729612112913
0.161119443289
0.15461399462851
0.165111438235045
0.159019915179716
0.161599159417359
0.161183845406629
0.157970007974865
0.154105009266678
0.154461842253697
0.156845167923091
0.152237334812693
0.153185028939067
0.156295174299263
0.149207401103221
0.15083906228462
0.153959703730384
0.152063717672304
0.147135737403896
0.148688134164006
0.145513080545778
0.146505830125122
0.145080831753988
0.145813142150204
0.146629040009641
0.146550192413374
0.140871353528022
0.143746279805854
0.143618100351312
0.146817347574752
0.146575901021166
0.142568920942205
0.14383142038198
0.145416000855051
0.139427855602283
0.141343939551788
0.141017107255998
0.140053375053013
0.138389873014689
0.136918218119738
0.140754906581717
0.138618410243291
0.136471507547158
0.139659993287983
0.134454823587493
0.137230738297554
0.135465199923495
0.142663094220284
0.136427982795982
0.134579705313899
0.130528321121501
0.133748721495912
0.135360568105124
0.136104283714133
0.128604892921036
0.136715556314068
0.128987923225726
0.133131972760315
0.1304712421733
0.135549146200577
0.131134525255079
0.129973726314273
0.127663521939494
0.131136542112788
0.129156934474851
0.128279734861257
0.127067110603127
0.128719412958047
0.127026281905919
0.12791834711272
0.123657021897442
0.128092890528374
0.121160364914253
0.123034821988899
0.12686607063559
0.128376302995317
0.121853841960569
0.123291076209366
0.124083828263348
0.124078269583353
0.120025289836922
0.123968777149843
0.120071018245598
0.124111274830058
0.119495260829574
0.123301194617143
0.12294314791696
0.121344526481425
0.120517716912392
0.120914395762291
0.117861829446785
0.119081961742393
0.119240996637179
0.117070976285837
0.11731083944745
0.124395353952168
0.119491429120488
0.119532132691208
0.120695100534499
0.122262745571163
0.119356147495081
0.119287806323062
0.117107346123845
0.12040350397903
0.116344395671661
0.116868268897096
0.117375654024051
0.11940201297972
0.117500866349438
0.116595326058175
0.11563832747574
0.118465337118986
0.118037398195826
0.116386952165886
0.1152736838789
0.116126569622017
0.117599529100802
0.115206735422134
0.113947560020458
0.115046604331703
0.111506220631477
0.112107075687334
0.114860310982183
0.112193227186362
0.110411836206614
0.114422408921411
0.113103347420746
0.11110929921469
0.110556106886941
0.112875323399106
0.108200625376714
0.110798545822666
0.105715534767164
0.10857385253365
0.110192534731944
0.10874255858619
0.108590095379364
0.107798264557955
0.105156135585135
0.107888090937439
0.105500613453384
0.107892613416054
0.109119288913412
0.111483051360425
0.10686774816205
0.107959035135515
0.107978194454585
0.1097040837441
0.104835061195746
0.106219700504605
0.1065753895425
0.105810553780949
0.103232402860019
0.106138254530352
0.102960489470262
0.105775226988798
0.103594719468067
0.11053256176447
0.105409073424539
0.104506485373112
0.102027866095373
0.107697347453706
0.105530717728518
0.102205619463937
0.104986711659507
0.101833905260778
0.10536159594733
0.101274574464307
0.101967906602328
0.103761206076512
0.102246677619048
0.101057321703006
0.101312201484844
0.102837986306636
0.103356590352147
0.102533555670873
0.0979244395376728
0.103327545568852
0.0956098423140256
0.100695751077785
0.096375021310787
0.0971246491737173
0.0975822365743706
0.098069599053158
0.0950824476599415
0.097943710356157
0.0928603340591519
0.0979518256316033
0.0947336095676325
0.0918827918817486
0.0930813098962423
0.0954470888644729
0.0920831655121709
0.0960721128070458
0.0922734257230474
0.091069965732741
0.086530469358384
0.0948089286785451
0.0894395580089216
0.0932668764062417
0.089448031237771
0.0931575623188319
0.0870875941965164
0.0906199090183097
0.0867974494742462
0.0913537197194709
0.0878517993681925
0.088607926597181
0.0862156336842039
0.0895736592864519
0.0855076339191354
0.0880581967113113
0.0861137767432732
0.0885175275009959
0.0865150684339883
0.0856303345891226
0.0891940159998201
0.0907766602769968
0.0868424326282053
0.0833628612604271
0.0866029413542682
0.0864173940804629
0.0841175643112769
0.0846994580981438
0.0845214609330747
0.0832000826338455
0.0842376788654115
0.0829255844627438
0.0839629210910992
0.0832491030085993
0.0827028912837025
0.0849110977620182
0.0818854475742874
0.0838241864065279
0.0850569102265593
0.0804508929076516
0.0770865005287911
0.0806615261977969
0.0793693450002198
0.0814288718345698
0.0798692578371248
0.0821012316379263
0.0768537840256596
0.0802549923508413
0.077135087526035
0.0782919096047308
0.0796129013402977
0.0798050973898503
0.0741009960966135
0.081820620829586
0.0792143791883179
0.0763782496184174
0.0760290245951853
0.0772763717836226
0.0753743429447072
0.0752995533508427
0.0757804524499669
0.0772215537701501
0.072119958917857
0.0765840372707364
0.0757532633561818
0.0783651394234842
0.0750388202865867
0.0756431104430518
0.074832832970636
0.0759979587868633
0.0746784726746942
0.0775200504168766
0.0740568133289549
0.0781927012583273
0.0726665445465817
0.0777547221443083
0.0736721799254178
0.0773789508473175
0.0720259595723555
0.0751544126539945
0.0728085739288376
0.0760383484493751
0.0710814678314783
0.0763105655520174
0.0739719129603618
0.0797163765461591
0.0756051007547779
0.0802616232736279
0.0796900935808045
0.0822224680083478
0.0720118338159882
0.080784506712558
0.0711009519271286
0.076211079943624
0.0703651393103956
0.0812281942674658
0.0835783364764099
0.0825119779729727
0.0837915426497435
0.0836834316584185
0.0714238286753865
0.0782511242889187
0.0722338653218188
0.0853132942026767
0.0742174701631722
0.0791771258954847
0.0709847405290215
0.086110706134661
0.0745320303587789
0.0807683778938145
0.0716626445628391
0.080913464625113
0.0699047157526897
0.081524128105521
0.0694993470389366
0.0792995207671931
0.0707861708789226
0.0795566477325361
0.0720500574452851
0.0783200548325584
0.0645298255280788
0.0718647725456671
0.0681907896854427
0.07346135469874
0.0629913315704898
0.0810023401026972
0.0624010575537406
0.076876849188253
0.0602479122243067
0.0768251317603366
0.0596205085872584
0.081414943756787
0.0626654720577919
0.0828567365211029
0.0656151769078634
0.0817522129209555
0.0632740825858316
0.0850218532168633
0.0577572382270511
0.0814805229216112
0.0646049720661279
0.0947356829207138
0.0636818259922148
0.0813955451277852
0.0626756964915894
0.0818990335037025
0.0722874421648741
0.0839679091153192
0.0714522470390701
0.0683663601608636
0.0814034401076105
0.0675712350942808
0.0815745397786953
0.065813923790194
0.0883721299460289
0.0583848341237881
0.0929011567359773
0.0599850241573037
0.089695816647389
0.0599303782553963
0.0903225280829235
0.063768677241576
0.077899364973731
0.0715697829743399
0.0765256860432501
0.0716805751779342
0.0725006649731138
0.0740791126452841
0.0684697983814711
0.0702574452634597
0.0711507448811502
0.0668006395907384
0.0706417369823599
0.0608235615100321
0.0714846865865101
0.0669599844378233
0.0693142417271794
0.0656915370699904
0.0673171209710696
0.0700999922146743
0.0662654633409653
0.0657962407469242
0.0680619969211715
0.0670533646561691
0.0674297223838982
0.063572472644858
0.0676683829740928
0.062823195092823
0.0668209254416393
0.065532044712412
0.0658487569724639
0.0654685958098519
0.0661588408007377
0.0652979386270271
0.0702092392187411
0.0667798649877935
0.065986819856227
0.0678500406695687
0.0698033664664313
0.0659996632043792
0.0663107343163512
0.0665516377806814
0.0671390731004867
0.0692890637352503
0.0688240271638558
0.0671319152692767
0.0644172318261528
0.0674589588376793
0.0665095627850754
0.0645284992885719
0.0673842590277247
0.0645195116913413
0.0680629988266132
0.0647222925120865
0.0668967833834081
0.0710227973423541
0.0697744515747588
0.0712408782660162
0.0693160777317225
0.0664639178347281
0.0704709615808356
0.0653591516017353
0.0674925064837052
0.0679592969903463
0.0681772816121209
0.0670530183046978
0.0698344920591636
0.0697409997004988
0.0676299748912383
0.0686821480296557
0.0687897312884224
0.0684487224629731
0.0665874719131418
0.0657101533403367
0.0698839313161134
0.0681335609212991
0.066882712349977
0.0678116518701716
0.066900641690362
0.0658503567685072
0.0668460185095828
0.070639139039722
0.0675438945621369
0.0668494330535611
0.0679885833495624
0.0673148087957347
0.0671110896430146
0.0670313897136004
0.0681805751777314
0.0683983182960534
0.067779221245436
0.0688953326714164
0.0699797118365501
0.0696500900954463
0.0712216406501403
0.0700703493369209
0.0681280521204026
0.0697104351616413
0.071898791601617
0.0686261228076241
0.0699420986170716
0.0674915380678855
0.0698888423258961
0.0700472585680416
0.0719855070445554
0.0694365932072798
0.0700153989328872
0.0697555303466684
0.0694235933504073
0.0722857255450951
0.0713520821606529
0.0717122739944277
0.0733361377336369
0.0706627579244656
0.0725568133816028
0.0673726156313788
0.0713989882383028
0.0735204216749281
0.072936745250582
0.0739322461451718
0.0725133089105412
0.0734704609145262
0.0705317337960955
0.0709444070886547
0.0715073040679383
0.0740732747942213
0.0735598903773983
0.0711050427668887
0.0720766016894396
0.0736088950407638
0.0747156484757551
0.0699416444989664
0.0737380273798338
0.0707318545257467
0.0731005513942836
0.0739027703557587
0.0708101866181349
0.0729524273224344
0.072288207946705
0.072046796597402
0.0723493960372179
0.0731497061983345
0.071810066400882
0.0735400604139724
0.0724123020818135
0.0761251424583891
0.0740733996069465
0.0736276157211421
0.0729408706055655
0.077457145354436
0.0749484577638893
0.0738210260205106
0.0741009764387209
0.0731860574353104
0.0732466490400106
0.0725932709092058
0.0731823699145053
0.0747361967355056
0.0747360619673438
0.0748933261184481
0.076610454195063
0.0755399632126623
0.0757302301271355
0.0767697134151217
0.0783005248015887
0.0776978198433921
0.0765517322548168
0.0762439482507302
0.0776409972346306
0.0772053932374139
0.0763699661433792
0.0770493639443427
0.076826955848018
0.0761338743824831
0.0772069990104445
0.0770385872092471
0.0760869161208189
0.0755054533125787
0.0790827666320484
0.0761954990334551
0.0778072591681284
0.0775804345658191
0.0764226807663424
0.0776001147184915
0.0754273695777931
0.0784769904158609
0.0736400474141609
0.0763148036595177
0.077423892938776
0.0742422654211949
0.0750640463673198
0.07465708115638
0.0765932080066976
0.0738065635179552
0.0721540538257322
0.073445272575396
0.0727815930576387
0.0753845206473354
0.0724164082171172
0.0758121648509385
0.0743785268393386
0.0725170100412585
0.0707601627288926
0.0744025428205986
0.0717524752732784
0.0752481656563932
0.0731464167980816
0.0712049059995878
0.0707338754866502
0.070272295758448
0.0733833091416797
0.0739980352909684
0.0724344269326573
0.0738296764364547
0.0726226678360289
0.0740704096542402
0.0725613826695465
0.0732525081587169
0.0701978499220651
0.0742980190166983
0.074514567184687
0.0715430466280007
0.0726093625140415
0.0736079105983331
0.0723940493171467
0.0711957088594774
0.0722563951864567
0.073877019392035
0.0710027617760081
0.0726932728198833
0.0732003676443125
0.0746262755050749
0.0711115256519593
0.071180136770581
0.0691571212971928
0.0697835354131141
0.0702610507849334
0.0722922220406405
0.0708528334935038
0.0702388004175833
0.0718263473274104
0.0709604160584535
0.0711710862441951
0.072748777844089
0.0699996536861585
0.073547354254549
0.0714318630048893
0.0720174395328386
0.0705107067372033
0.0700403806636459
0.0687758790801026
0.0706733994509732
0.0695854491040188
0.0708986945037499
0.0715742305423118
0.0703781160536866
0.0706480447093382
0.0711479063289188
0.0701424631610761
0.0701110716325343
0.0674123914865398
0.0685684322074004
0.0708734357173753
0.0745510931703064
0.0718060006749054
0.0715755973074565
0.0690329513719585
0.0697323269412907
0.0697514085193682
0.0692635733870822
0.0690396251412744
0.0694881491428306
0.0654357828577101
0.0693845823824796
0.0674930410077082
0.0684804630581469
0.0670316507435329
0.0703371936301114
0.0693671960437635
0.0664414780254094
0.0664753993712048
0.0701815416228529
0.0646453240957613
0.0684862538497047
0.0671834872577509
0.0663685561217719
0.068349562604028
0.0694089075368645
0.0657513305929427
0.0683309556327663
0.0712778614078792
0.0673003736443601
0.0662961289883523
0.0644444207670018
0.0647198688951945
0.0675475868961301
0.0650785184830177
0.0673871958822858
0.0658226791945173
0.0643768011916984
0.0645791008167641
0.0649085860295826
0.065071247863797
0.0642014786189922
0.0638872157503798
0.0622405304830518
0.0639755469056717
0.0649732822657304
0.0610614413928895
0.0627640068433514
0.0630053675389936
0.0601572701325892
0.0638376666790884
0.0622424355045922
0.0641270182827021
0.0634801643189212
0.0700465865129388
0.0631619342807996
0.0615735955585199
0.0624061176933629
0.0598561195020447
0.0620442916219003
0.0581703729712394
0.0587664586100102
0.0588466738093318
0.0601963654616465
0.0599331377364117
0.058157212153823
0.0573500148755942
0.0580444920710754
0.0585849067658192
0.0565093243095858
0.0583821792151975
0.059887539377741
0.0585691589312763
0.0580873964438262
0.0564910310369452
0.0589135663784647
0.0557001573783503
0.057402460661527
0.0568053255268941
0.0575357335044239
0.0601124577466813
0.0679500286335713
0.0569765778030344
0.0586173605246503
0.0561606956794334
0.060965891824442
0.0554281615394715
0.0596732235069056
0.0550716150256215
0.0575901776953924
0.0550769106193793
0.0582107593058946
0.0561113474879647
0.056037901438982
0.0548494813763089
0.0602614318059601
0.0529720608917065
0.0568966121097177
0.0524173130844445
0.0561612323608277
0.0557784896459156
0.0572062021333518
0.0539780923215155
0.054669214506151
0.0542126157507304
0.0553131632281391
0.0530783857797895
0.0651801016595174
0.0567978503125828
0.0564890379836475
0.0528937508314392
0.0563298298463243
0.0568898097620887
0.0545162480497473
0.0519682149774665
0.0516373939596772
0.0543180746015891
0.0518344983869143
0.0500074579606925
0.0540643197302084
0.0546924340454924
0.0540003172511455
0.0526883521938933
0.0537378256076445
0.0519787378815567
0.0508729870083928
0.050077679429123
0.0530283156367453
0.0527166742347605
0.0521611014743195
0.0526779292386505
0.0547222851849213
0.0519974423324637
0.0545801386272611
0.0712277957818766
0.0526775447580007
0.0554821916163926
0.0508167135335043
0.0524181222379455
0.0510203562940969
0.0500869416650858
0.0496788768581142
0.0514071854226174
0.04977268578197
0.0525289980368204
0.0495152364444201
0.0512845825521864
0.0526159964017451
0.0515540244663849
0.0515749345232088
0.0533544249828476
0.0525093125898791
0.0518400220689608
0.0499595311966076
0.0550371065414441
0.06357673853091
0.0574299950869328
0.0497181356831781
0.054922843613351
0.0452456112271716
0.0734070106043973
0.0599167263501121
0.0512971740376593
0.0577789573119919
0.0490127378094477
0.0539616500553906
0.046761937687354
0.0506763705908577
0.0499414947988166
0.0601778126787844
0.0496655560575062
0.057383278373262
0.0502209117086435
0.0520495026135653
0.0485216102441667
0.0519661124952016
0.0482205340987075
0.049408457702669
0.0487741321124536
0.0481269354560205
0.0480171308438623
0.0487649570477714
0.0496161245839084
0.0505250734439753
0.0504494351189741
0.0548444970605895
0.0492618593376963
0.0500868138635764
0.0471148023875225
0.0478369841227979
0.0496462253893831
0.0746400247221736
0.0452519511038149
0.0541870277946533
0.0478280458614133
0.0535585026060962
0.0477232916700439
0.0514771466009976
0.0482524986407855
0.0513937581516051
0.0481583405632235
0.0510532669224305
0.05005365960426
0.0511127046517322
0.0467905700638579
0.0506663410275523
0.0511275792182811
0.0515240680117026
0.0518816514368
0.0475669916846238
0.0540616934362663
0.0486675445624134
0.0631206209085146
0.0782317346529922
0.0607716628660181
0.06471131623335
0.0513936984623833
0.0543448057979517
0.047470766586684
0.0534263466356335
0.0480285677895979
0.0584047674037341
0.0446740635064833
0.0569179953089558
0.0462463967624801
0.053581458184538
0.0461971562759987
0.0533619244742545
0.043780862915461
0.0558292674250895
0.0438707311462332
0.055950990130295
0.0434841029409839
0.0578039716795795
0.0413689876797324
0.0651417640283365
0.0494452849164467
0.061205779311438
0.0447483687367105
0.0795398731904613
0.0829569649044154
0.0489946580495859
0.0615383494885252
0.0434510355421344
0.0538934266161331
0.0481380197220818
0.0521171889856899
0.0577681867281765
0.051577515026089
0.04815427596247
0.0535455143747104
0.0500527923060258
0.0542442171791812
0.0484530981655887
0.0598818592950045
0.0880300388909974
0.060580856822347
0.054919564822976
0.0532840499768313
0.0551630265480464
0.0862448814545793
0.0540370910470391
0.0574948945040416
0.055179887246631
0.050975509485801
0.0543058981308532
0.0543309379998204
0.052768955699072
0.0576249896392375
0.0584120945477131
0.0505534531995578
0.0575367924959452
0.0473220773770254
0.0596457038097555
0.0557809780516751
0.0647922922559798
0.0679017421971739
0.0511424823616363
0.0606961655824861
0.0589833923187642
0.0526340602082704
0.0565032894271991
0.0547825552417351
0.0561965333775475
0.0603832203988793
0.0749656439889886
0.0551814485562871
0.0741103242067741
0.0701049652505266
0.0540384762209561
0.0596033093340598
0.0637600519017489
0.0639121625604026
0.0588114482713879
0.0545447544109122
0.108272030955004
0.0590535623685574
0.0922435460450253
0.0488572204422513
0.0694597329232445
0.0511056797384301
0.0647612010623164
0.0464313549252891
0.0828453837812652
0.0583315276697561
0.062703586467624
0.0567550139280068
0.0683812764698567
0.076644483978573
0.0630636001048007
0.0625697716284636
0.0580248238649662
0.0620061208443714
0.072227493579729
0.0723109077417824
0.0516123883338232
0.0991495046789307
0.0913252682901965
0.084693720378284
0.0770855185543461
0.0524280265854482
0.110442934919206
0.0675230018564917
0.0664079468117287
0.0635314227094578
0.0640796709539121
0.0650019236763678
0.0647967545494272
0.104535916723004
0.0752057531282043
0.0646981502072174
0.0803955708135259
0.0642280018211902
0.101094223193475
0.0795790014487677
0.0731733826443265
0.0682054130857028
0.078915636607365
0.0627305187908966
0.12191361418776
0.101586436734784
0.0783731174141748
0.117198554988596
0.0833942863613656
0.102653262200031
0.0802735327574771
0.0860465071700364
0.0887132084401267
0.104666337073029
0.0835145151788094
0.0778141726104617
0.089977331714089
0.12526452697529
0.076428758428468
0.0978502283128005
0.0824704549803836
0.0834624770710316
0.131253929432083
0.161349142184107
0.116870662590037
0.101050224737321
0.0888052100427469
0.123679205300164
0.0979427285587332
0.0955196800583196
0.0939510090353979
0.0919470243820314
0.0975817587610265
0.0949703481917298
0.106302878648109
0.0984223488099037
0.097970358342627
0.107702649164577
0.0963286889210329
0.143429797248589
0.141579392348557
0.164729235788552
0.10508679886053
0.156046915056264
0.13496834685788
0.124804360473582
0.116903162444481
0.113860607072453
0.131984277212887
0.120509144716971
0.120067528243075
0.120805654031598
0.145967141595449
0.155740378830935
0.134356948340329
0.170733771773068
0.125936224827623
0.159413092749209
0.114350812873111
0.357138195011976
0.169297710470715
0.167474023782447
0.172679036075484
0.156469246701911
0.260475189103967
0.180934494838938
0.174739933039447
0.177070143498892
0.180196441565002
0.190996877241666
0.206670151743664
0.207440511178695
0.21797951449144
0.221980823999829
0.212432506937874
0.234266137964454
0.332163193083442
0.293693139678983
0.273999205387247
0.240371969048507
0.280375517520681
0.277667645168875
0.265558986451769
0.267603013393699
0.278830506320442
0.273855974471899
0.378798662216557
0.290032650917847
0.314492024753765
0.295350601145909
0.362660526393818
0.304541333494893
0.391186386825973
0.373144590688301
0.346327352755197
0.357409183673662
0.347477362548474
0.372847208882521
0.35747419221434
0.427671463515735
0.401506848103631
0.379900796709249
0.395414703467537
0.391474492945092
0.395745272139751
0.400729034167174
0.423441736219268
0.410426331728848
0.475666369733508
0.450635812563009
0.631533681229114
0.481080624269977
0.421638248315356
0.441206361426203
0.42045980299336
0.490149227761936
0.458993045355288
0.48756038452549
0.479222947782885
0.429472212756304
0.453819263252744
0.431199654466021
0.445725559055563
0.42631948646987
0.45436011872226
0.426472754209357
0.465168887061145
0.447847549135863
0.459150943220616
0.540837091459663
0.434712926426711
0.426225007039063
0.418773858494537
0.426670159549681
0.411614080024026
0.414322890500107
0.41235525971191
0.453088389587545
0.399870762711724
0.418270595089009
0.391330392179943
0.424337275252632
0.42980802261995
0.376640663441399
0.386121210138833
0.369350140404794
0.374653325478665
0.364696366026283
0.363969647720281
0.443037054694819
0.350520691869633
0.359628135024897
0.344756209536904
0.335891639179119
0.32990838221266
0.32805878587181
0.331406915660711
0.337537851531413
0.312507621102344
0.329267484397573
0.310047068933134
0.307889815042274
0.300746900409084
0.313904979925127
0.310881834825885
0.301261582116204
0.302902011967964
0.29746434603829
0.294839328555529
0.285672192922811
0.293451834449039
0.291825641350261
0.286184193442915
0.291106207464821
0.285744209468884
0.287713261322574
0.28197828427355
0.285250875238618
0.280611509746427
0.279489398218296
0.274255829696433
0.278431345247091
0.28553961590952
0.276069280785767
0.281675763057639
0.27819722554089
0.274156487815668
0.271678622891762
0.27946211218662
0.265914824829373
0.289073666709305
0.261580697600254
0.334612213548005
0.321414633871237
0.268369342665808
0.284279984786865
0.266812320717551
0.28059582810609
0.253630613217139
0.320650894378647
0.299972416476952
0.269652712121234
0.267170937349778
0.266636123842626
0.276972184721203
0.29369577290469
0.255668431987471
0.280209990394043
0.251626091318225
0.326359841271875
0.360141070596147
0.315977594958765
0.39398819150969
0.286429275720104
0.271389593593013
0.279031700573053
0.330646211865044
0.257780439036494
0.278811357474641
0.254954577934079
0.297701155734921
0.294601573112284
0.266749153289754
0.269564688254572
0.25687837928949
0.281749738219875
0.305243951885887
0.270778868128841
0.280907230035356
0.316831159545244
0.283053615599747
0.325165842557313
0.347974213501715
0.292955987105502
0.246940143375441
0.253690380716291
0.255267840591381
0.254154586803075
0.317800960153924
0.257836029408607
0.259235648498113
0.247513446653492
0.234997205587474
0.251397800180062
0.254083844257349
0.25769849949295
0.22742252270415
0.287278454476488
0.2199426725036
0.25207154993393
0.259086110841869
0.27559437783115
0.295744613806574
0.238839396170963
0.220271864465792
0.25803652128473
0.281874446050046
0.231614993154178
0.244686950381841
0.209927658094277
0.217525771001874
0.243461932608008
0.211836802797304
0.222554559330761
0.238083451412392
0.237351178768299
0.282935584033359
0.27416044621315
0.267663491462729
0.221199735950016
0.191159597368439
0.200615264716965
0.194897998234207
0.20296987709683
0.188576649308078
0.222007329015061
0.218234732202048
0.184142766755758
0.259989119057648
0.206970348995204
0.196395959242889
0.203366481055741
0.199983277569981
0.209361867180507
0.238928578692411
0.254237125909927
0.227228689125033
0.212545021621549
0.243191574333112
0.213155441273372
0.223235939772972
0.215318115975905
0.227671137388571
0.219099504032368
0.240506527936793
0.237931126087542
0.241494260439403
0.241068021235456
0.247217326331784
0.267016350986117
0.306903962831882
0.249632547908381
0.312734135904457
0.298352644565764
0.33618506199973
0.305303554604528
0.289184957757632
0.298471118916628
0.296532100233583
0.308589766303698
0.306030961707546
0.316123920778083
0.36895943408824
0.315905797893375
0.332796627318326
0.325839185744416
0.345577986182137
0.332066817898189
0.378310580792877
0.364598066976019
0.411318428336893
0.425761753870538
0.364190643891087
0.375420387685939
0.351742049191089
0.373321979636992
0.367669039033626
0.360510198893332
0.358736081890061
0.361898306444047
0.395728764014804
0.369952550753482
0.368426711316475
0.368512851513118
0.37203495567383
0.37526929360651
0.375976258044291
0.380017242525075
0.379837834243959
0.379329856185057
0.386825726818852
0.383740539152746
0.475734005807927
0.412412482969708
0.399125874358083
0.403610126825026
0.399475852340621
0.402465275013573
0.404803604387451
0.427908225224159
0.417810406234374
0.409468620752517
0.418372522368627
0.415458278195633
0.417619027484842
0.423820954408861
0.45700968604829
0.418368529748153
0.433199035583489
0.42095008107513
0.454606680818278
0.49768496297597
0.445506099917846
0.464178754275104
0.439144618677303
0.44063348381606
0.435543379295727
0.443829044064376
0.44298633862889
0.445225031470353
0.440618921605779
0.442397269755921
0.436732820514258
0.441993005773851
0.43640588378228
0.443444136906275
0.469241858484596
0.447810201359082
0.436877126162715
0.439438300508882
0.436313007749635
0.435841500712693
0.46664821052547
0.461029586518237
0.439001504492889
0.446506293600284
0.438170846894579
0.467376689207548
0.454111220041368
0.431711138301467
0.436188506442757
0.435007190209323
0.435393736723626
0.434031722445472
0.437957046994654
0.471455193033356
0.453839382699771
0.449528611518575
0.444793980176315
0.453581862405402
0.449707288804523
0.457914311956892
0.453199422862053
0.462997389772687
0.463945315040864
0.47068757055735
0.466096653522326
0.467655004420224
0.479358324703631
0.481610683609151
0.486497627426654
0.476156829654843
0.470186829291359
0.46885832294156
0.467499620449601
0.470142163635272
0.463143020134079
0.46667403407694
0.455865164255715
0.451963751135075
0.454290804820003
0.488526613916718
0.451159997818169
0.455987864112951
0.443438440188824
0.43361005507907
0.43993538347011
0.435224130913657
0.428872596471543
0.427544846961825
0.423946596366618
0.418812887191813
0.417774772292744
0.416613465101639
0.416553380535808
0.418072705379138
0.417316192357915
0.415496445870237
0.415451238859657
0.418128751901847
0.414178642271963
0.409396286950783
0.406888960720172
0.40847388843291
0.407447136814084
0.421751094479666
0.428541418123494
0.428542974313538
0.413897110940762
0.412686194149269
0.419047054172463
0.407517193673619
0.409508363181089
0.406491403793349
0.409025506573543
0.407209281184476
0.406952585898265
0.40518526064021
0.40687901656546
0.403979841397513
0.406067862416459
0.404264963575421
0.404058864731123
0.403300243667084
0.400194201348846
0.401854881554141
0.400362320326326
0.39831485630245
0.406611073669806
0.403322178835463
0.401776893585111
0.400946996682189
0.397536388695833
0.402895969476154
0.40204836106354
0.404531707264032
0.401224722186389
0.396730498828163
0.398466428813003
0.394370818945704
0.393583928685791
0.397371902509562
0.394883175722162
0.394368166729892
0.391342726310805
0.387584065750196
0.38645148147006
0.383654344052594
0.382272827441889
0.382812923448865
0.378250873127022
0.371462518539393
0.370558306832513
0.367251261399511
0.36611097345321
0.363274732303256
0.357694495139076
0.354326577649415
0.353207224747678
0.350883345384125
0.344611018503597
0.34867162099188
0.34817253503608
0.34327432975798
0.342728455431505
0.342586654241683
0.341199237316476
0.339660692098378
0.337953585276826
0.339436205939713
0.340984876765798
0.3385195098324
0.338469138317182
0.33859943160279
0.340047589755259
0.34235962324619
0.344613019791205
0.344610040331916
0.345113887617475
0.347541793150511
0.344947735881147
0.34864300797752
0.351977032700365
0.352001364828394
0.352252381120687
0.355902660423191
0.359980247835061
0.360155933650121
0.358796722535306
0.362845213127615
0.361314189696378
0.362439022801965
0.362284897620681
0.360160275746951
0.363252129344914
0.362697828223585
0.362175044609098
0.361533281745876
0.361026973095443
0.356021648132589
0.360205993794249
0.363006559359375
0.358449332099604
0.357258236185928
0.357622524522336
0.357309203671456
0.356369194655996
0.356334828880279
0.356739425828896
0.352604014232414
0.352220564029255
0.351779434538752
0.347553923073754
0.350478207579184
0.349344902100894
0.346258960707046
0.344883923492983
0.340990703535869
0.342855469335201
0.342371095798785
0.342862656558193
0.342921317008444
0.33858267726341
0.337304082469362
0.336377453684163
0.335593842700092
0.336232784424912
0.33374499250754
0.333477380538583
0.334872482768104
0.33016192465745
0.326641126868939
0.326862709074422
0.323983593889675
0.324092201335367
0.321054018392507
0.321404892719366
0.321645096501441
0.313562734192347
0.313363452236138
0.313097226941823
0.310370331885878
0.307873506795185
0.305602052786939
0.30288858459027
0.299527669364246
0.298968616335434
0.298458192407689
0.299010057687333
0.294970191668993
0.29308247741071
0.293580931221241
0.293943769238009
0.294105832750448
0.292301678973461
0.29120952390458
0.293456490447321
0.29039643855577
0.287346997843235
0.285077553020025
0.284034011972471
0.281654615536269
0.27988531789507
0.275911110054823
0.271477412734887
0.265905250682128
0.261986109501905
0.261311871537401
0.258410630095101
0.256341714253183
0.254680634122751
0.254253534264131
0.254930035153223
0.257034834956252
0.256951411901472
0.262445028906105
0.270034642943616
0.274441956474948
0.27976561717728
0.288536772230911
0.298455538919324
0.308725540005641
0.321063276096089
0.332681296387222
0.343777750016012
0.35590681127484
0.368786378578905
0.380785236667354
0.396846079484574
0.410032327211823
0.421039410087618
0.437078718766962
0.448415007302019
0.462641605034629
0.479176929737179
0.489534150033607
0.504385784340516
0.522015563237156
0.5303843478454
0.542703975485695
0.558179256060794
0.568505047902267
0.57724994642494
0.592123349803949
0.601026636911237
0.600197206449605
0.613032540206397
0.622984225268665
0.620844931526493
0.620439833591625
0.623244044096055
0.630584121042693
0.630956054877118
0.621910868917098
0.626361572936826
0.628335386449897
0.624858333772769
0.624689624626813
0.622170415377973
0.622141470188712
0.62158652677946
0.617782755987573
0.62523805747576
0.630513443579158
0.625535441802379
0.631955076637795
0.635510613670319
0.631721670467292
0.634847357609007
0.640769812175029
0.653858898654562
0.655997706977429
0.659634952727232
0.668279209623379
0.67350553264296
0.684811885744514
0.693500985532677
0.702049794809948
0.71443969916452
0.726352912026179
0.73588214631291
0.742662535010331
0.752989754483228
0.761314345101952
0.764277663727044
0.768999756205092
0.770162283587408
0.77492313381447
0.780459156487285
0.779961259564908
0.777389406427674
0.765652818576674
0.76771990078483
0.777706630683654
0.772375080895825
0.77306269453997
0.769437363590228
0.766813420807262
0.771778018551605
0.785878200836431
0.798467748984251
0.797757582075695
0.811619871486472
0.815184109844572
0.826490267527704
0.834925832038893
0.851662785165995
0.863415970890779
0.869265163156049
0.878792594736589
0.897817786431151
0.915992855133995
0.914183009562076
0.93211610741657
0.940536233907061
0.959106574858993
0.966329616596402
0.981296207829129
1.01946738909765
1.01920669722076
1.04111110760824
1.06199150485405
1.08451976579812
1.12240067003892
1.15018238573883
1.15337550266965
1.17538347452928
1.21112840815265
1.20121468390777
1.2086881024806
1.24802871883341
1.25484736547306
1.29059137227501
1.32156052219023
1.29353155284075
1.31964808734804
1.32268540558
1.32283975423434
1.3197664405569
1.32057310799567
1.32393899222195
1.30268767992913
1.31410263819286
1.30464920564202
1.29708109207927
1.32684585611031
1.3194784480425
1.32088476160566
1.36139733421196
1.34905551357912
1.3348497086379
1.35033129417723
1.37166286604354
1.35165419352076
1.38213718947355
1.38563182383235
1.40796282091772
1.43868096650986
1.44215851969374
1.44508193191254
1.43638178153795
1.44385433948542
1.42629111338451
1.43163992272639
1.49525014271291
1.51671619545188
1.54741874845875
1.54610061266778
1.52946094962042
1.55624057812249
1.56443383514237
1.55579056312338
1.60988161023283
1.63300127462627
1.66477935503625
1.68279544803352
1.77965158065309
1.63038679570554
1.61035132832883
1.78928338616286
1.70101832521498
1.58807809659376
1.61802812999653
1.61973049782593
1.66085871515946
1.73143789858632
1.71864435612685
1.70301925417751
1.6752542584733
1.60697566861829
1.75203290222292
1.72896757886056
1.64198403515303
1.66687418655614
1.60813815760402
1.57995379856615
1.58150922536072
1.52446240967333
1.50532450732686
1.48627458510983
1.43382932836616
1.39194660024993
1.3444412783685
1.28872691621106
1.22045748160437
1.15788493728702
1.13405272654266
1.11724914196613
1.13381489629344
1.11781165282168
1.07212737095051
1.05176274952089
1.04347375660416
1.02955233095297
1.0368449223174
1.01812792002252
1.01281441272027
1.01509990035285
0.990137556893289
0.96310458628321
0.957304613517442
0.934905431782315
0.909381603387709
0.90129829191718
0.868354611775344
0.841414103721849
0.831313300224769
0.809541330740106
0.778124758476946
0.738970923685962
0.711523421905831
0.689387551802293
0.656522059407676
0.626370764788207
0.606182788796707
0.564159872210558
0.543755723822958
0.514769088068078
0.487992289853655
0.468151927377835
0.445447028943521
0.425705934851927
0.405595958176836
0.389786006889707
0.375285780447193
0.366547422057921
0.356452565206012
0.340501148702345
0.335471260505202
0.325440468341335
0.317100406078218
0.30951183188273
0.30310517085254
0.301387513972871
0.301834063016873
0.2929386605101
0.292481064986569
0.293041207884542
0.288255780233657
0.286495651148421
0.289549271905757
0.292831767979108
0.295671772347509
0.295983257804438
0.297943959913949
0.296843607928515
0.304482911027291
0.304789228763683
0.306013736831575
0.303117878411079
0.30174167179644
0.303347918595563
0.307582836902274
0.302116365759149
0.299155112009154
0.300791716001626
0.302844063047095
0.30233158340714
0.300787427770156
0.299435768516061
0.295395692083477
0.294435434031173
0.294637610280054
0.296726036251005
0.304114864418488
0.30233000755435
0.300528299809618
0.307502213130672
0.305808567203945
0.301230428723128
0.308884918030106
0.312078786593289
0.312110604133285
0.314761970206262
0.317039832275175
0.312834462149755
0.314876536841063
0.323925195300295
0.325044650023631
0.324490479503255
0.326495711526917
0.328926013336872
0.321609017105124
0.324941635970952
0.323779877471018
0.323411573269762
0.321993057971767
0.32537147767186
0.326111937640298
0.322853135442248
0.325850220363275
0.332240977918848
0.343146306168657
0.342997398824797
0.346640932740233
0.353950044850637
0.356310072604661
0.36380587059536
0.380286190016375
0.383259508136922
0.386742478010623
0.403143764845788
0.418024553186321
0.415473318705225
0.427105502664212
0.422564766776068
0.424088553869176
0.421645465467314
0.422327358821001
0.414598437831481
0.405686730415355
0.403504515357611
0.400065156750031
0.39009823718049
0.389840115970599
0.383958890259198
0.378149331957803
0.377776705533505
0.372502523650178
0.374037180731792
0.378233992743786
0.379180616028311
0.382772385943185
0.375393262890565
0.384325084930911
0.372216261532533
0.379514539908459
0.377194547164216
0.37175859286044
0.372156617289923
0.371411813235724
0.360863788802462
0.360409792219814
0.366773368514188
0.358908655022084
0.355648249416078
0.350124669276369
0.34470820547232
0.355670368980886
0.353301799260497
0.354765695518745
0.35099470942272
0.351562991171128
0.350827926172036
0.34334902493319
0.339756834902342
0.351025710129413
0.346591493439861
0.344253177367629
0.348736944277649
0.343355591472669
0.336607763034521
0.334073896968857
0.335414173426823
0.341066499709182
0.330721201422069
0.321696022363499
0.325703916632617
0.333056215394883
0.328834163270923
0.335133537736408
0.334066570055383
0.327740145987716
0.326830070468277
0.324762133854305
0.325014021334338
0.324953421447064
0.323116582675091
0.32325464354074
0.32282803044977
0.325025952180057
0.3229813087921
0.328033829010024
0.318506451061429
0.313660117959904
0.322665374808797
0.311409057381991
0.304518760314704
0.325956610850905
0.331491584038248
0.332515447618714
0.328210164013518
0.31358637636417
0.318919297151871
0.338592969956257
0.33349362770051
0.337360512450046
0.332237101518434
0.336449585928773
0.340938408810712
0.350299252101979
0.331244395680108
0.337382596292674
0.346870004020459
0.353090824867884
0.358166041361927
0.355209198828417
0.359175408802136
0.367969708543137
0.362316011036823
0.378644587958302
0.393473808880093
0.380860142406324
0.383591683391321
0.412543390937016
0.384556339204242
0.401717040520927
0.400717478728027
0.412075459280177
0.430159094123976
0.446440572988042
0.440661724581863
0.478639021534483
0.478251540320649
0.504852912262115
0.512839142476654
0.492324726241379
0.517614687358672
0.517261987976038
0.514872074199385
0.538588985714294
0.522798573838199
0.557146956005338
0.530458421678995
0.528270076568606
0.551457118378664
0.552151861870224
0.545691545282014
0.517010062848543
0.562765730292885
0.565928137158497
0.516989799259435
0.569934152188974
0.531677655050386
0.543079231536513
0.533636950907942
0.539875324121579
0.53646918168342
0.545410665691443
0.531094506245852
0.553620753786974
0.523714091598229
0.539337867225409
0.532411436049551
0.517985807892024
0.518740092335777
0.539302724195092
0.534771805017284
0.573968768660483
0.515241553167685
0.507378934265381
0.482756691976504
0.515526466127642
0.508573397292732
0.53359309442297
0.505842328728654
0.531921271865044
0.523246893144628
0.49810623289074
0.476009916512271
0.545975734293091
0.487831217273289
0.527038167119222
0.510926745096361
0.49100201491834
0.49956653474344
0.497381664510342
0.489407801770294
0.530122878382307
0.55771001853203
0.55231987699488
0.498840169928692
0.537791629371484
0.506626599224468
0.515443321842142
0.495232186634246
0.538365056967095
0.528238051689317
0.529678862479859
0.544695577509005
0.554203321590926
0.547075428374805
0.567588821935245
0.531267797533224
0.553824046436365
0.528376976471698
0.533769233386645
0.526082219483092
0.526290217182911
0.591305161218873
0.549264051416231
0.560944932365254
0.663087554797944
0.576650093250921
0.576744096677021
0.604242157890159
0.675405887182161
0.637456053251511
0.641087215007848
0.643141182552267
0.673439174369336
0.611259728372368
0.618310237522193
0.617497296545289
0.621516721526994
0.769981240676328
0.751262388009672
0.790320610339266
0.79332747751984
0.655187082696383
0.745054416332836
0.615756445786878
0.656763982936268
0.664227112896077
0.815229055117172
0.640843375759912
0.843341421094913
0.864020641814415
0.677514397081982
0.660410822202964
0.75546166600241
0.593908015871227
0.857034081522556
0.649816604227338
0.703068474151043
0.558610011907856
0.744924308899453
0.621402153263119
0.873895796432139
0.681414527501547
0.595626596367254
0.724339242277154
0.641889466183908
0.620277158893152
0.872309711841048
0.770417624084432
0.768679174210424
0.616576553348248
1.05125268539558
0.555952968230896
0.730835768851858
0.523913575462723
0.656090136389997
0.606527503658533
0.745745823732153
0.673568217021919
0.704211070394171
0.716742020907684
0.707470755389045
0.684168998530382
0.648574839865309
0.736423909232909
0.687300431921444
0.693500636939947
0.730030662103233
0.547754189906894
1.02752080300145
0.878769357028285
1.40675572860056
0.803513542390389
0.58506111580628
0.28223348326023
0.89210562695291
5
0.669027481003219
0.875194953778366
0.939702374154551
