3596
4000.36533379555
650.420452594757
1
2
2
0.0508803106101666
0.051484891659359
0.0542426711306927
0.052489647531062
0.0623231268850663
0.0570840508393707
0.062831882105199
0.0499727812612458
0.0597383947490873
0.0596381921553528
0.0652903902311433
0.049938331652372
0.0629899711766358
0.0571813096069681
0.0553028752794521
0.0529498334514562
0.0590631619200479
0.0533358596023658
0.0661530059635748
0.0514656313996141
0.0595609236544416
0.0557565518700783
0.0580203732124263
0.0498761230628165
0.064068091974303
0.0557603778153961
0.0615019515829321
0.0517092241492734
0.0631397466795606
0.0556429311676153
0.0552492935489972
0.0470165304088261
0.0528242332282818
0.0495749984851847
0.0582971881306905
0.0556476044106291
0.0606887813557896
0.0577720791805515
0.0547705351219051
0.0592666241424534
0.0704780463062249
0.0515213310547787
0.0679880276935554
0.0534396640142236
0.055220363636634
0.0608340863136595
0.0637490704806079
0.0511290896157137
0.0571332002343516
0.0600461121462658
0.0724917772656056
0.0530459452441151
0.0721437718915941
0.0662338710061587
0.0609396108562492
0.0711679015105102
0.070238887221757
0.05493145822596
0.0689987715318718
0.0517553888880605
0.0833799240253984
0.0714106291651053
0.0623449190460802
0.0564682378327923
0.0545075134411691
0.0554386227818454
0.0599781018674438
0.0540640728674722
0.046980751543884
0.0599317877109266
0.0506382158266082
0.0669293461230571
0.0728457577518388
0.0633780051322678
0.0672888107050963
0.056982428220784
0.0538161633968973
0.0534301116275543
0.052434765533086
0.0657742154738372
0.0670728199157152
0.0627710468159395
0.0616738710232091
0.0498995692497759
0.0607307379028867
0.0732235770805728
0.0513148551271851
0.0640914176505104
0.0797815051911629
0.0695484129432681
0.0581002522214253
0.0497778829989558
0.051015030464092
0.0596327923268589
0.0487288356183136
0.0572555123197936
0.0544858000893248
0.0520284492152089
0.0437609049078652
0.065081044425309
0.0673095008639132
0.0709396081373687
0.112517601342027
0.0385638083038111
0.118287217914251
0.0653672827458874
0.0576202695586865
0.112462980813043
0.0760927296406708
0.067900808372663
0.0568353117271012
0.0578372826513544
0.0566610453655778
0.0697177980299764
0.0430236198728675
0.0830313257344057
0.0992918380937827
0.0628593833617675
0.0525966546556023
0.0553608907105352
0.0371844344951109
0.0897669247815872
0.108558437844669
0.0522195355035343
0.0712667648387408
0.0585639819063685
0.0415440022953337
0.0856987633826198
0.102910983236161
0.0553751970526553
0.0540317408529813
0.0478767011719468
0.0552695897910447
0.047642250468757
0.107843313067561
0.0635367547670401
0.0703616055799495
0.0394601370765666
0.0863613232045101
0.116426527960667
0.0781145293794176
0.0613335838700993
0.0363934520508965
0.0544919938749665
0.106505566710428
0.0688507748280694
0.0566689839310158
0.0704772343910664
0.0707892707626387
0.0550278829702177
0.0574625702252101
0.0451027629309949
0.0734703415374152
0.0695408351232569
0.0206502821904464
0.105869051824697
0.121122159304299
0.077512234546298
0.138371764340733
0.0514485690963749
0.0810994091424406
0.0505289822846755
0.0632048876072692
0.0405820033863682
0.0619056439774022
0.039425305618696
0.0728542812107154
0.0759476003846073
0.0530164138340951
0.0624278828746052
0.0934447409383323
0.0638175990615493
0.0531421391435193
0.134772598070249
0.0738795347218187
0.0520237449191191
0.096656099428577
0.0647161078461324
0.0576290078495669
0.0626611857950332
0.0910927366097988
0.0493233199701587
0.0634650958416669
0.0501069927076072
0.062945861105475
0.0694815308160248
0.0650045218734803
0.049928140831953
0.0638895651004104
0.0312146941689997
0.0798712326309894
0.105705726228642
0.1022474392283
0.0585472903082206
0.0707154901142093
0.0213227995270079
0.100743410998763
0.083381186735668
0.0609196381763336
0.0487072395061346
0.0506925638889452
0.0474834524257736
0.0526431598003057
0.0538214812253741
0.0426969984985552
0.0294674727171368
0.116063069574691
0.0731347655486656
0.0572841979200247
0.0440332737196968
0.056849696240043
0.0330482452325927
0.126858223418398
0.0822532571992919
0.0576545868122685
0.0556659805332148
0.0497664656857142
0.0627208954756621
0.0802005979413633
0.0503618292250233
0.0584766782267966
0.0477542703964011
0.055715537948245
0.0508643925741427
0.0549829472115121
0.0495763112595795
0.0530087569893548
0.0470916912992546
0.0573515274189327
0.0487185700235719
0.06981341214338
0.0577617783585269
0.0524019222581674
0.0533217012369545
0.0414244363804021
0.0632676124734525
0.0902331698050174
0.0577678900573102
0.0593135919104492
0.0491765144212023
0.0583548816833487
0.0492882310642935
0.060244118514081
0.0453708012125474
0.0522320473300058
0.045644486150409
0.106229464368189
0.055093429961357
0.0647462484603679
0.0340400823538587
0.0806918293248988
0.0613592725781627
0.0564636057373376
0.0427120157068441
0.0598476131186951
0.0342846259911913
0.0534756465606353
0.0846550462862671
0.0680506815407861
0.0461830597483602
0.0898784842233719
0.0612892881500173
0.0561078345211923
0.0486008473697742
0.0411345988151351
0.133038006680433
0.0689653211677645
0.048747538025945
0.139857765139881
0.0748764512825416
0.0800031996390057
0.0538683105557076
0.0269782720879039
0.164344666056272
0.124774983366737
0.0600839287618861
0.0704496931895593
0.0764395988575618
0.0632889855005797
0.0640262116363402
0.0573027912795739
0.0716024002807556
0.0996236203435894
0.101260731735909
0.130075186036709
0.0474919904634549
0.105458617313094
0.0920180192503313
0.0700861036099304
0.0581821565915379
0.0670702154245382
0.0488017332431925
0.0786413560255047
0.0729722622317432
0.0849080686443067
0.064861433644708
0.0604551387119769
0.089425612941973
0.074335089935034
0.0582070863393
0.0712839941644601
0.0721026951400812
0.0611970695558357
0.0559265655402498
0.0590767077786295
0.0732085087531161
0.0599226562052729
0.0504027924582027
0.12489217551993
0.0770661002192551
0.0682539352289517
0.0948886015570418
0.0727808095974103
0.0575042918171664
0.067638204361478
0.0597990445958896
0.0668164733620482
0.0604372318937112
0.055719665765545
0.0907687899124261
0.0759688088721404
0.0574107203787962
0.0614421006644335
0.0564533394941546
0.065731846054377
0.0597786260099937
0.0670014879622432
0.0614954520569625
0.0657756801770671
0.0477060496320901
0.0938940183277891
0.0997662135759539
0.0429220479338259
0.0943368948474587
0.112547597128539
0.0645482621764183
0.0666773223331311
0.0595777660199139
0.0691395920647273
0.0538008779236022
0.0717865472395853
0.0635826522943405
0.0771876224139551
0.0867235138519034
0.0726817457478793
0.0572034243335292
0.0773537497929604
0.126770041298801
0.148895444181796
0.0871580602954579
0.0763581407044562
0.0484526718613103
0.119813538999483
0.103805100943082
0.0988981756052547
0.106049439998748
0.0733549141103951
0.0692872465961315
0.0681819898532289
0.0774734787087342
0.0703319558548431
0.0758982918879987
0.078370179494503
0.0811001924392352
0.0799610067269993
0.0821818533167984
0.0767551562271291
0.0802658304084364
0.125076820080185
0.0924024778131323
0.0836790137987899
0.0878628679970551
0.0706566362945373
0.104500478137912
0.115753677815045
0.127492281641974
0.123272559697891
0.115515163019945
0.151487268495133
0.101462081686719
0.10012241111444
0.0817161476560858
0.0923571777561705
0.0919381646182393
0.100523475392474
0.090091213689416
0.0971943096379618
0.0896837243093137
0.100317509159047
0.0887753362977848
0.0987420163751329
0.095158092830305
0.125993247308678
0.102777225377337
0.112395783739716
0.0923250231855749
0.133649510302072
0.163149902306229
0.167330236712409
0.119874918400669
0.118524282929783
0.106643379148335
0.108333410438299
0.11164797729195
0.130631889641457
0.123376945887339
0.115885021303541
0.157274435134331
0.13812697415256
0.141258861014968
0.146554961887956
0.115126365434605
0.160112357393729
0.136798190931521
0.158652887771148
0.167339353348644
0.14373138017124
0.125082437028679
0.169400085879854
0.15770614444662
0.151381850881722
0.168326355027555
0.145876493973743
0.141326383274109
0.158328258682482
0.150448601141346
0.14741699006006
0.159073838656569
0.171687102909086
0.151008249074185
0.168496928719485
0.161949059438669
0.163772698352024
0.179789693335816
0.182132842773755
0.16052795597334
0.17428434897735
0.160260065081464
0.183123970683622
0.163718645871051
0.198066995669239
0.186578815910597
0.216079781131165
0.223764592973321
0.191824592366601
0.189373579377546
0.194122111289943
0.191671881399505
0.191249476080089
0.188971474525698
0.206434732741482
0.190011693238045
0.206464010115689
0.201850769347183
0.211482286100592
0.20705618101728
0.212684736885273
0.212155974009345
0.220660373585563
0.209161864228286
0.231703133137168
0.209501183766855
0.268948346363441
0.262821715849607
0.264235735342606
0.256442833902529
0.235479549279209
0.227423953157378
0.243650330299792
0.242294217184533
0.246038669034809
0.25752411849056
0.262393963902242
0.254826167277957
0.27087805650989
0.246401429541387
0.265684521364203
0.257881300300702
0.286103165410113
0.266469959118633
0.280085512815261
0.268220474101977
0.286794555900089
0.27618071094527
0.287157660350892
0.296530498872302
0.320320901634514
0.302128757807209
0.311941338995668
0.289713444231866
0.309358159776084
0.297005516059719
0.318129685819514
0.305593433021197
0.319175719381535
0.307204456963168
0.307356275193085
0.31893609345413
0.322309014258305
0.327019685694917
0.335518167891985
0.329957025231123
0.344212325334132
0.32003217112585
0.350699195401552
0.349057379645686
0.356300119831471
0.361069638498658
0.375892020934428
0.343862592102545
0.375640015941696
0.347776365147971
0.363818814981971
0.376943638998312
0.392059957062108
0.373045429698593
0.378143419144018
0.381826061313819
0.397139878224024
0.38114817616819
0.396293617443441
0.369829567030129
0.414548655065263
0.407145111059044
0.409068616385315
0.40888570742052
0.420568263377636
0.384080231227923
0.408760574384003
0.404540389555862
0.426604013110179
0.430247197258822
0.441242294308504
0.424698330065448
0.434904563009714
0.434633714928827
0.471850711910125
0.429595322339561
0.44621521107052
0.442677989276596
0.478349202124966
0.466992649031831
0.469631074308569
0.455230317741446
0.473946099250726
0.46459730618351
0.481652585740036
0.465796532895512
0.471840866205049
0.470038472297124
0.508409475145191
0.502408468176978
0.498443732079104
0.489412149379109
0.511267023806896
0.484979951713356
0.482673449729816
0.495064036052461
0.550436314746269
0.517156956849107
0.532135790810414
0.519379514899861
0.554304811549637
0.519164146820875
0.538498449876849
0.520685389030438
0.545256753857305
0.515139933260745
0.535123866878209
0.521518162610322
0.570267887440041
0.567245891940411
0.579563619325181
0.557999991692333
0.578017719319453
0.56803105095577
0.607210780445931
0.580007952577392
0.574471318726423
0.580851398561811
0.597143726358436
0.589659530667455
0.611093296137248
0.567332144495966
0.597509426380747
0.605501108565645
0.626824492082275
0.596834162994299
0.632715459860061
0.591151090107332
0.609508012272846
0.611935251494373
0.63113530738603
0.63012909181408
0.661522559397259
0.651154090770718
0.633363601783266
0.618584755740247
0.63148148818128
0.618513675403877
0.614861354887265
0.643308768434836
0.648744228893639
0.620158363978298
0.682313371066278
0.637109082994598
0.670515034773798
0.657111661570548
0.696644679171171
0.668054002047811
0.683541532198979
0.660348494694401
0.684753007254052
0.678960981093771
0.701979508407108
0.676278725876632
0.716675323133491
0.667768137689716
0.667070587951117
0.675045506313538
0.696671490239368
0.68413621585441
0.716656789706977
0.694607654861386
0.705998305216335
0.694335118629122
0.724604148563999
0.740246658366943
0.755016437366925
0.676100060104265
0.708048633637583
0.722829814046139
0.717529622889626
0.690782668198591
0.753061403966703
0.720723776431006
0.749655625714145
0.732322332102688
0.761802972022699
0.727401355179936
0.747381624369704
0.715908777787217
0.746247096831473
0.758458882914283
0.780150706308739
0.791096305610375
0.78269770204001
0.742758802947331
0.768902077513908
0.731368707664466
0.748338408318981
0.752218543979148
0.773734721573237
0.761016748081988
0.79399912519132
0.799707373215529
0.815438765563881
0.768032858151458
0.806832532979085
0.802311446996435
0.798524910638442
0.760929260940838
0.82064031010717
0.806500514511994
0.810625549652461
0.783007311804769
0.814663757194212
0.781437878837317
0.818419031345322
0.811075859677361
0.83162191015778
0.822522575338898
0.825854288090179
0.797109707498813
0.79882675523339
0.800676510211687
0.784913996356823
0.758518521087621
0.825496919224291
0.818376670494832
0.809624497717815
0.784318405549496
0.829231054036531
0.784825739444578
0.816186380621346
0.816313615988437
0.862692251264962
0.836869384442044
0.815493422585703
0.831963777992399
0.85159370832948
0.790613574623824
0.830795891158926
0.850334971215436
0.793336300106199
0.774416462436456
0.847066110678539
0.842337307062092
0.840350291546192
0.804312062226355
0.867001381012342
0.833001627115543
0.813896511590259
0.823572913549837
0.832973406175145
0.809800385728506
0.851923889964077
0.81416463456048
0.820974250942469
0.833741083564301
0.83748219968779
0.82309376988155
0.851076014825661
0.796313092879705
0.853784631226111
0.858131760839174
0.856723069395346
0.840537566478969
0.883254449345888
0.856742728821046
0.849949410975357
0.83397892752026
0.815774994631941
0.830605130666636
0.821674219217239
0.801643947007767
0.833578820530361
0.8305878027569
0.861437538931516
0.840674147769152
0.874866047269029
0.845084779660669
0.858778037215752
0.826722461269495
0.807337617861334
0.837521774809985
0.849531728452266
0.796807980039644
0.816272487394298
0.826655930812774
0.834623720364962
0.797287752814676
0.853438717455906
0.841635779980027
0.828762293850784
0.816550980488076
0.834606380205373
0.824917307473812
0.843012270149637
0.797740699448353
0.825427932431886
0.848518033919178
0.815899519509287
0.793699815633352
0.838105166598636
0.814241929463371
0.827699184307683
0.811470752408897
0.84142773099973
0.831271058665626
0.800514984887767
0.818904622120602
0.847767233973271
0.813699034400212
0.81322367184197
0.824232870621134
0.844889607945717
0.812569250426228
0.816824954557918
0.797860625673186
0.813419391666976
0.800727330913727
0.827639845374635
0.812267304939242
0.817943544434228
0.819297521139334
0.826802822229228
0.796553321788436
0.812179260112719
0.82473749522014
0.813369899030936
0.802926285654366
0.817045603774944
0.804456963678599
0.799347280661671
0.795500042731769
0.829342222149039
0.781037367464029
0.799141870397976
0.78816151614169
0.777136123322955
0.786474275990379
0.790908453867801
0.781500326893288
0.806370397634723
0.758724644425772
0.771657750810377
0.790807550332402
0.792117990950291
0.758816452222321
0.7779054774054
0.776087843541131
0.776331608040935
0.771092633524819
0.764471461340703
0.759826026913348
0.782793489551247
0.758870250131984
0.766840400812426
0.779160392329602
0.778379263966834
0.718587830013176
0.746155310258139
0.751511155343978
0.746868470350774
0.747045203193682
0.749254144237158
0.748884502978707
0.737569425606946
0.701583984005711
0.726948243872565
0.722479890389097
0.712042386122619
0.744425063204445
0.741871997302369
0.722392949314707
0.741474691640614
0.721907365513054
0.720119624580143
0.707580993372283
0.715060317278492
0.703894686611841
0.697600310589236
0.684606021117576
0.700610241161804
0.709490759544121
0.697698539942012
0.692658357087517
0.71999294252119
0.690107306411758
0.680805791734979
0.680169817555977
0.695871760719196
0.677228356436686
0.680018729757742
0.672011890734125
0.680391372105223
0.669700620769114
0.68324474390805
0.669141359142031
0.661181445580567
0.66415828069052
0.655066664942618
0.655032773181
0.663126346577409
0.638407221984331
0.638621012652274
0.629669489857126
0.638518552537766
0.637050609458313
0.663892190812723
0.638712131252806
0.613925541187605
0.633711093108899
0.645684776557374
0.624288186924269
0.604586397628679
0.608635388495678
0.624817948241977
0.609619681973878
0.616009092143771
0.605446122937203
0.59536127754452
0.602139012238792
0.614671682159237
0.61192456936907
0.591417514581289
0.576759359877303
0.585111507297542
0.594045187885707
0.591261602962003
0.576577784334992
0.577606558785312
0.568270689056481
0.575228443795322
0.571641609492677
0.569823223952098
0.569632557710172
0.566239968866384
0.55247468545878
0.550463956162747
0.550828378340279
0.556962521839609
0.545272424387856
0.54651112165266
0.537898560611926
0.547786966946456
0.53102949376956
0.535441267076606
0.535888264670559
0.534256763576594
0.527860603533516
0.521865764975001
0.508754997110442
0.525223942727193
0.508921960403261
0.494659137402593
0.489384608281767
0.496427311103656
0.501783849123018
0.496800769053868
0.492230088694473
0.5025340658643
0.481034063380088
0.49905900620707
0.487674987654488
0.484356493862135
0.484144287258219
0.472499301758971
0.471645732825406
0.474775011505731
0.468582473237936
0.459360136653974
0.469108186103056
0.46307815410849
0.452136568359507
0.463438927149679
0.452207574444778
0.458824048155182
0.447141166178667
0.434106859827051
0.43934855000007
0.439549630206822
0.433879799297884
0.434952317585595
0.428404709726848
0.428388262279988
0.421303419057128
0.423431571964878
0.414014805597664
0.422227260238216
0.414635111097793
0.405028185371575
0.410876424605138
0.412187813367616
0.410155717743829
0.409880463565874
0.404211158894207
0.411122046360362
0.397380546033552
0.391233178255974
0.403659938163215
0.403300639139543
0.390295521311775
0.394177384271595
0.387509017634933
0.382548766095681
0.384097856933934
0.38387821062066
0.371393022880259
0.374932838928978
0.36845082749093
0.364353785812315
0.36318042527115
0.362442419704845
0.355472616489228
0.359193017735799
0.350281951920119
0.354301894413802
0.353849484011792
0.354024121079641
0.34860599059131
0.354942789065301
0.348259898770657
0.343090111529734
0.344164394578018
0.353704896887804
0.339128868476861
0.334785403838706
0.335923109781747
0.336058939746861
0.337266634146488
0.339024686703477
0.328985938545466
0.325248513547154
0.320500298955787
0.325832985705052
0.31986429739737
0.316150143293442
0.307995099421061
0.319966043864604
0.312218726841522
0.307091660412615
0.309602871032972
0.318007426032591
0.303181503312418
0.303912812055946
0.297660574371049
0.296901214251516
0.296110697648437
0.29698299400966
0.296636226250703
0.289221505711804
0.291744785277031
0.295003549602158
0.285647164544735
0.289690151618104
0.285163861428205
0.286971341321211
0.284048458259806
0.279550692797176
0.276817987068192
0.277826788890824
0.273869019131899
0.271991291508449
0.270055318745602
0.272591436737245
0.261878941308778
0.260808818257783
0.267193586891737
0.267596794254153
0.263491328707105
0.263213402688416
0.265306319579141
0.261435571129088
0.260357401385859
0.258401111674282
0.259605237021989
0.256028890171789
0.252976963094926
0.259598063207536
0.255166710708496
0.252590615901776
0.249874568610972
0.249312650853828
0.240123958130956
0.251758124644755
0.244879846193659
0.24885287086946
0.244668250790603
0.240052649652076
0.238645796799776
0.237750102564523
0.236180001298397
0.239692664581819
0.23144866657886
0.236124659183164
0.236726465456786
0.234413760021785
0.230584417914078
0.232369695084163
0.223709837441468
0.225425590343106
0.22583889332295
0.225974209551796
0.222811948203974
0.220940861817619
0.216675455024995
0.226102444594438
0.226056566804523
0.222623276828946
0.218443141687657
0.221134959927033
0.222734731226261
0.218121412375218
0.212476581230646
0.226224805335206
0.225523785427321
0.215262048636756
0.21804453612709
0.219676810859855
0.214856408028577
0.210642118371324
0.215787285066498
0.214040551618269
0.216344889038761
0.217641092383894
0.213393940786441
0.213459659740336
0.217526666786804
0.212184181737379
0.21727333545244
0.215480178437743
0.217725281613158
0.2172135610213
0.21720947804034
0.220465929015663
0.221362820427192
0.219386489078138
0.221988899565153
0.219276930706282
0.2242532742579
0.229181055954385
0.22523319850286
0.227470239562107
0.226483452171857
0.225173859077814
0.224769984887149
0.225121145568732
0.231153177662249
0.235913988131142
0.240110585843422
0.242061602818018
0.241560938873496
0.242755839706946
0.237685641449691
0.240440773595915
0.241432653835739
0.241216582255558
0.241732525998662
0.247959361078988
0.241845141615656
0.247785568344103
0.241688487331315
0.246606139186883
0.248651224405524
0.253143170046696
0.249618160132278
0.250512559926699
0.248898944906487
0.262366891017893
0.26268234853452
0.259510120903082
0.264629132774821
0.262711281258703
0.266615795119674
0.272698545682716
0.272553217005947
0.275393131709609
0.280517980862884
0.279286982112106
0.27721167845818
0.28216344160606
0.284123496067806
0.29290602232869
0.29412373469182
0.29155775050567
0.294032883676864
0.2958590699972
0.29410964134282
0.298713770485031
0.300469681218189
0.298914399978049
0.304106621643086
0.303015815301768
0.305249836796533
0.301384033005502
0.306022471289229
0.309343868024536
0.317813076538425
0.305236188432781
0.312636963437859
0.31400201542331
0.312738542606487
0.308672296020669
0.313710194423326
0.310725727820706
0.307749629001111
0.308980391334247
0.311322012239343
0.304775843155065
0.297281321572651
0.306937816431605
0.296987999503919
0.295989409775081
0.305703058674669
0.297847802948989
0.294483516133815
0.298986782749207
0.293171867680312
0.294686723757542
0.29794809121062
0.300073019981828
0.299190292193192
0.298553207724319
0.295175912043103
0.297548729035671
0.296162482014263
0.295917363883905
0.300117076739951
0.298888584365288
0.294381359039253
0.293859536095137
0.290226232899091
0.294118716740058
0.297559303448978
0.291935289869103
0.288323546668036
0.299386237792456
0.292007541645873
0.292905569329892
0.292970723044108
0.29556852206028
0.292619483048439
0.295994371920832
0.292716721917731
0.292415547554656
0.296257055815716
0.290764846424509
0.29128178883176
0.289541531011108
0.294416813552658
0.288221805107499
0.280871135821417
0.29116503311002
0.291791365559121
0.279310797768706
0.283691581501623
0.279013803362039
0.281621354742143
0.27512794237611
0.278368652253205
0.276335586288329
0.275001507811976
0.27170029344367
0.2648903110281
0.267878687707856
0.274050027924135
0.265948873052985
0.25775157193328
0.257781863684154
0.262089300372996
0.255460088431112
0.254392475933961
0.248436648088332
0.246154638501179
0.247106731351211
0.241671968860894
0.240025084948106
0.237360421042302
0.233689700088677
0.230952159170817
0.229360698898586
0.225378016026549
0.221979652413122
0.219370958248408
0.221528943166195
0.222193779528809
0.221812094555682
0.22372372169547
0.227480420682862
0.221923860092678
0.212375422793191
0.207555746019558
0.208759290034024
0.208786161095807
0.203395046799844
0.206626681962018
0.205125807021298
0.205237718697868
0.200469875886462
0.193586683144612
0.201834306529178
0.198991373505052
0.194903709201698
0.19799063560352
0.194610465219826
0.191701872218127
0.191500323522327
0.191363487655861
0.18822283800929
0.186701424166472
0.184631178982601
0.186446392964257
0.184682817715394
0.184958026240798
0.184780111602788
0.181668289878484
0.182035053711795
0.178907242474875
0.181054191865855
0.177038693858815
0.1760013544527
0.171488304902818
0.171440695328717
0.174470344894003
0.169922692600576
0.167856893496482
0.170729645121114
0.170249351544478
0.163120167756713
0.160823220000612
0.162973756288789
0.167179017104909
0.164968945488164
0.163623015462917
0.159428340643619
0.162623470122989
0.155894358525086
0.155458606269945
0.157356559482412
0.156513441010904
0.149474531848796
0.15245344715636
0.152486358415175
0.155792470752964
0.152682447344053
0.152085286371411
0.155173865126723
0.150503706914794
0.151620015218546
0.150725071434103
0.150356946827138
0.145752695138395
0.147265211635856
0.149611758371711
0.14491968432388
0.147811167271721
0.144102991398984
0.14390815271361
0.143107185033657
0.143397811709971
0.14469184038482
0.144220613391738
0.14281652609783
0.146754009529057
0.141638863659398
0.145151193824911
0.139450891505332
0.13887766039904
0.140765681106952
0.142856418257782
0.14093318342319
0.143812590923271
0.139575283025218
0.137093714096001
0.137317132192121
0.136512047025719
0.135158543987444
0.138840313789899
0.138300794079144
0.135542961328922
0.136690571011709
0.135404313980549
0.136448852615919
0.132982029687893
0.132026072448592
0.130596064107266
0.129260384527964
0.128913593609448
0.134307619983048
0.132742998823742
0.132097669814196
0.13174551890902
0.128493976176715
0.12710282898468
0.12834178582353
0.130177161615235
0.125052165768813
0.129191906455555
0.12688000023344
0.129714356097691
0.129258545161916
0.126922419623275
0.127998322536182
0.124796800555643
0.123816698599781
0.126233587944084
0.123292438195878
0.12613804392133
0.12398264392111
0.125540995389761
0.12337032772947
0.122814805488059
0.122059446768529
0.124935603347814
0.12376979570269
0.125152238578304
0.120318954024845
0.122405061845422
0.121079512737342
0.125321557356361
0.120373682405312
0.123852198910501
0.125947520027392
0.122999249507511
0.125976464099543
0.122296858943958
0.125233718900032
0.120290107995364
0.122594522790993
0.124785735516383
0.120826260864287
0.1184412115322
0.121220918099753
0.12189595072722
0.120303833661393
0.115287346707958
0.118073258545955
0.121526306246797
0.114665903037058
0.1158327767739
0.118735797350842
0.112570494582335
0.116834687636559
0.117281268614017
0.11349693807163
0.115548040401354
0.116864354574616
0.113296952172018
0.115365933555201
0.112001060374799
0.115320839486647
0.11208008526453
0.112081364362287
0.107658578266398
0.114116330386907
0.112155395671815
0.106450085467166
0.109097570303113
0.107214351198665
0.111032524161831
0.108585381229661
0.108779452989955
0.106901674436482
0.100245855827099
0.105005102391352
0.104868115422717
0.106324330958524
0.106394641888767
0.10491628527311
0.103234125086864
0.10591756149809
0.107038789947541
0.101326234747117
0.10289318315629
0.106040182014109
0.101328783303584
0.103021040372726
0.103501896791966
0.104169800816985
0.101438181118012
0.0986855480720974
0.10247326792525
0.0969974737014533
0.10107413563343
0.101779021339834
0.0976476015695587
0.0957035460875732
0.101122591961471
0.0985049372651668
0.0968928243216948
0.0969302240853793
0.0978406021518261
0.0995538303623412
0.0999388103940608
0.0957811613415637
0.0958406990416678
0.0919245401809965
0.0955798991937984
0.0940268872800404
0.0943844019699427
0.0954224573909515
0.0976577698302443
0.0943481601568677
0.0929725529866381
0.092167503066972
0.0917922010216244
0.0922003733382787
0.0891646789839032
0.0881077188489477
0.0927954919854838
0.0893643249989095
0.0847124931406802
0.086365345628903
0.0887838815373131
0.0875038562516553
0.0826775544582301
0.0850318238023651
0.0849991369539576
0.082489214266002
0.0826138100074746
0.086047508750255
0.0844278073114598
0.082601743126377
0.0830721219277852
0.0792618521253
0.0813002131506023
0.0819188696603076
0.0813297470615688
0.077289156207021
0.081229875200371
0.0844717373257344
0.0784855582408957
0.0796871467234382
0.0796543447357681
0.0782098466800076
0.0801470153858064
0.0797755474891858
0.0775172181189849
0.0806764656298639
0.0760090869996646
0.0798256426881986
0.0760153868275085
0.07555932677908
0.0756630206076435
0.0788781108686919
0.0773917318364912
0.0763912880104416
0.0788022571926039
0.0765557651048786
0.0772179629103543
0.0731339183938245
0.0779743381688015
0.0777609559349853
0.0798053124957121
0.0737093120156023
0.074208299228822
0.0762149522660901
0.074699815952995
0.0698142911240624
0.0759231958532972
0.073104414863382
0.0725623856746865
0.0702515018996522
0.0744618535909978
0.070202724686894
0.0704950765502615
0.071102572314361
0.0728907721279995
0.0695037538784652
0.0683784913630288
0.0703755867227163
0.0705033992904538
0.0672122803262707
0.0671733008061406
0.0689432751928117
0.0687012313598945
0.0701383504007047
0.0697717678568416
0.0708455886411908
0.0709863508419635
0.0691829752736717
0.0672147240065608
0.068060187029459
0.0695616184288025
0.0655301102422837
0.0642507685899447
0.0672354510150033
0.0676732679277329
0.063954885975873
0.0655414841334024
0.0667402651921567
0.0658975102891988
0.0687379493311675
0.0640380282203426
0.0663282577054619
0.065295218405835
0.0668260465955653
0.065552411495655
0.0649081929913607
0.0688383202167883
0.0671722834044486
0.0655274681041842
0.0681726309152058
0.0666753276897708
0.0655705398151447
0.0648547556872996
0.0647417047108466
0.0670586582475081
0.0645894655572234
0.0657828536803236
0.065643411692398
0.0684225523296172
0.0670074289290272
0.0662741532507272
0.0662720548966867
0.0681221726626463
0.0646458853706072
0.0647655653770341
0.0639768399774915
0.0660343206467891
0.0652918323326054
0.0614810781878318
0.0609613992821439
0.061767595937998
0.0628031087007629
0.0626885101769021
0.0638196606528644
0.0648494549896949
0.0604126131587264
0.062611280777612
0.0610297003403918
0.062578434329123
0.0591645169454032
0.0620268850897499
0.0605366083305807
0.0645011356371148
0.059033281443714
0.0561603225459176
0.0587127552684292
0.0600282648681482
0.0572917763059798
0.0608842704164338
0.0562531428607855
0.057938673130224
0.0586280553203609
0.0590101831072198
0.0606383604116244
0.0613092921543301
0.0567344315085467
0.0595158532973638
0.058817392707504
0.0623631334531439
0.0555298164199962
0.0550303363884693
0.0567452512890448
0.0586504411282359
0.0564414601757177
0.0576999243946848
0.0570551344713948
0.06005930293729
0.0565560518892351
0.0586549581691363
0.0588729260574351
0.0570208462640739
0.0560000646772055
0.0590197135190294
0.0585571138065412
0.0563642826221414
0.060232740203216
0.0572258355971
0.0595444948281865
0.0570111092558682
0.0557213661755519
0.0593724877408883
0.0549332506592899
0.0593711324849654
0.0537338746476794
0.0571744920848752
0.0591274681046014
0.0581274346969619
0.0521512654031153
0.0554909591565857
0.055785489416668
0.0559680430572908
0.0517358966984607
0.0560948060379607
0.0527157387095541
0.053571441570389
0.0519666799016119
0.0551180756317556
0.0514675347064557
0.0545701125163988
0.0522668974416272
0.0508401698499053
0.0504808852003809
0.0523304737899073
0.0498572998228344
0.0546088070602869
0.0480141518063578
0.049630995480609
0.0491402886788323
0.0513785525335143
0.0485778030966356
0.0496715347756067
0.0496600394581733
0.0536680677962335
0.0494234478010168
0.0493722233767435
0.0458214304518196
0.0491816144860063
0.0470985694098709
0.049938609394226
0.0466129516569902
0.0489884898423536
0.0449838856135485
0.0462649159036432
0.0467064849102379
0.050312831577261
0.0444498719923301
0.0459233191618866
0.0486981847637826
0.0509534177320906
0.048337194558534
0.0487291054050937
0.0494053845293289
0.0472039394753064
0.0474929031743962
0.0464242310279276
0.0456406775957097
0.04607816975554
0.0477269256083182
0.0472920142067891
0.0463864713599352
0.0477767544032765
0.0480403433865986
0.0473943464950286
0.0449529996726551
0.0446104638050858
0.0453063910425378
0.0439896683421653
0.0447244605416683
0.0444238267129142
0.0431438143426765
0.0430660018869432
0.0449154596301468
0.0457912794685107
0.043803446983203
0.0433240760621647
0.04305878980758
0.0412744180767367
0.0441855206526103
0.0456008018774483
0.0396635560530535
0.0448412907586922
0.0420743515073576
0.0434436758541826
0.0435732266397251
0.0418011101976697
0.0424129205785066
0.0405373842395423
0.0422740478240189
0.0426878690537874
0.0399327267752872
0.0408885730103462
0.0392130143974272
0.0442882482541985
0.0396878718194383
0.0416959304019492
0.0400583885388124
0.0417612638658691
0.0360921030980834
0.0403319088363651
0.0397695334959999
0.0447822591018859
0.0382347704612685
0.0437140861889854
0.0417805744187206
0.0432728095798533
0.0396368608211713
0.0395592245574673
0.0395890550196562
0.0437428619479088
0.0407528044065611
0.0425418707146192
0.0398559885191135
0.0447015311136774
0.0426702440542245
0.0479470801340478
0.0441009830480675
0.0466470460678639
0.0413125839607292
0.0463577499989532
0.0427663232964116
0.0463473313961762
0.0410317449417924
0.0455242432728104
0.0464241574963523
0.0480087405794951
0.0534436147425769
0.0528689435583538
0.0392276298640212
0.0401867049392033
0.0392238584456953
0.0502929355692675
0.0435524830163684
0.0438294001329149
0.0427108157763322
0.0499745362222499
0.0399955074556616
0.0499131549635671
0.0388810697375821
0.0454265333002965
0.0432394480881482
0.0484291065749858
0.0426103638811734
0.0462884360831487
0.0410359388981841
0.045027693937074
0.0420558984532895
0.0452450148991563
0.0336972474050122
0.0372052875187313
0.0369748265887455
0.0443846730382117
0.0346057227759095
0.0462214442358762
0.0358401648389756
0.0401511886963326
0.0321727987695331
0.043509004956308
0.0306409227860414
0.040742618142492
0.0299595424076419
0.0483744247221426
0.0338985067009847
0.0530045150973648
0.032383099158843
0.0466638020522536
0.0287170092130116
0.0476256285587762
0.0363686339219944
0.0551561509856626
0.0361007848417279
0.0478464560832701
0.0352382225093774
0.0520411451822309
0.0450957324367097
0.0539633935957859
0.0414471143039323
0.0372167205507725
0.0523264153819221
0.0372090561831786
0.0493687476839715
0.0369133393806937
0.0564116426342551
0.0306623293007882
0.0558425383368502
0.0334272213472402
0.0526247708273776
0.0302704055763677
0.0573227533160411
0.0362113347398525
0.0438139227594889
0.0411209100771706
0.0433369711189575
0.0390023813336018
0.0395982489081706
0.0432712108654985
0.0384101654185405
0.038974487933161
0.0404737391260499
0.0369565577540615
0.0422366571121128
0.0335506352343584
0.0406742558505342
0.0335822186872054
0.0373469834531779
0.033332013230567
0.0377893180062116
0.0360427530514977
0.0364275580978111
0.0341934773391805
0.03525400742589
0.035149544909929
0.0356116758857517
0.0332662612173164
0.035552796650034
0.0319177011703162
0.0330411183561741
0.0330462314123709
0.0351613650633806
0.0336586806325931
0.0333821627799154
0.0344752664477068
0.0373101600204958
0.0344794351131478
0.0354032800047706
0.0343235856275612
0.0359599450577096
0.0363738687283755
0.0361207084080187
0.0334059249727249
0.0343122054464031
0.0366100435466171
0.0358871784203196
0.0333271217730965
0.0330142465200017
0.0341236724280319
0.0338111824395473
0.0353721964654847
0.0353641965573647
0.0348842276522121
0.0360190733229101
0.0345470808400009
0.0367864434102891
0.0367332064452919
0.0378410928786271
0.0365146657975254
0.0358351361454928
0.0350653705415303
0.0366467792772027
0.0320559155974381
0.0349728055030272
0.038076003169923
0.034592699865625
0.0338135511260493
0.0361528612120667
0.0376767547018141
0.0347567211669407
0.0342722582555
0.035049138990514
0.0360400425625766
0.0335172477808531
0.0319935147766494
0.0359989695217592
0.0344161451707528
0.035070306666289
0.0346081601013287
0.0335597394862419
0.0346062668188723
0.0334343680673874
0.0355179452646866
0.0348415869958789
0.0353805134142652
0.0320624813422274
0.0328695819645653
0.0349977816170191
0.0355708995438571
0.034121929117605
0.0371878401638566
0.0364673489734681
0.0342677524594044
0.0335932133740264
0.0349183368516621
0.0369323954128387
0.0339644677838157
0.035641650807438
0.0362247983216483
0.0378236841409465
0.0354536443656216
0.035699182282639
0.0358520662762181
0.0359637199905604
0.0337156669033182
0.0372014955474075
0.0361243895685918
0.0342790708342747
0.0353995899429208
0.0332991564706469
0.0379578087413815
0.0347783835521722
0.0351013245646501
0.0376597997405835
0.0367651946738502
0.0345724700567734
0.0356288788732439
0.0374319701307909
0.0370676601496717
0.0364397326840062
0.0389763835058522
0.0386135134645366
0.0376981565548408
0.036113949604384
0.0348972844961007
0.035554589530352
0.0375912502289434
0.0368663350915256
0.0369620639349703
0.0366080590472573
0.0363358620426817
0.0349996063028437
0.035288984919124
0.0368556240879971
0.03745465573478
0.0348378619370466
0.0367943721042929
0.0351446089154087
0.0355851294802585
0.035588065964368
0.0366927806702626
0.0344899011296303
0.0367287431457454
0.0345322136537452
0.0375670111257321
0.0373165361556244
0.0398210213129265
0.0365892079747214
0.0359248462661061
0.0367525321613538
0.0376901700322433
0.0360452697605548
0.037557012918943
0.0350464304750937
0.0355964845451748
0.038720404633745
0.0377473200113517
0.0360472434118926
0.0392505607860714
0.0377208598376541
0.0360079222249381
0.0395911962438154
0.0383553859135141
0.0387745386915113
0.039041204474708
0.0400149983496342
0.0387350754247821
0.0388575952098261
0.0378963725411082
0.039035237786969
0.0368116671253762
0.037653336929519
0.0389321467758331
0.040466576713414
0.0388341364885109
0.0389555248986985
0.0375877739467993
0.0370179246492342
0.0395183877431831
0.0373475665287345
0.0396584446403596
0.03886842305852
0.0379417845592331
0.0373261991613754
0.0381284577900429
0.0382179009702845
0.0390788455914856
0.036590046883403
0.0393297770470751
0.0387134049408489
0.0368804508209047
0.0373039419867441
0.0388118721410466
0.0391244977552551
0.0366233430470549
0.0360395280459479
0.0366777403397483
0.0348350889979234
0.0360306943147476
0.0350738316847975
0.0379829627696916
0.0384031804317943
0.0353283647171945
0.0344053794135212
0.0374873325654343
0.0353909218522694
0.0371796427769582
0.0345043467299818
0.0343293761222001
0.0342424569490971
0.0353484403434248
0.0361191337594098
0.0368313019191648
0.0375706516803475
0.0360340479559129
0.0360344966616186
0.0366869760309482
0.0357512270942504
0.0354498457770852
0.0348663726725292
0.0370118676471891
0.0378320590130858
0.0352717262330967
0.0359146994646142
0.0354821607661998
0.0366991852011399
0.0351490841020232
0.0356806049307859
0.0365226497745201
0.0349015711354518
0.0344798962270927
0.0346041443132315
0.0356832861666126
0.0353797839397886
0.0333772828347945
0.0360102388076174
0.0342950987797868
0.0332315790496229
0.0359701348991095
0.0362324796496882
0.0346325219297766
0.0356531746449344
0.0358607909242689
0.0370930788181588
0.0371805269561124
0.0358656509821689
0.0347652801410046
0.0335365719818511
0.0374615975523996
0.0354908348666145
0.0373713994081087
0.0348231414288675
0.0350885585353706
0.0344547350067036
0.0349473440945031
0.0356647220184335
0.03409769600748
0.03441028308518
0.0341804615661042
0.0348275400144012
0.0366022936211719
0.0332829918818719
0.0330902581543908
0.0350049875827387
0.0357757071756831
0.0383864395068292
0.0366408358683837
0.0354360498514652
0.0344158148506162
0.0336098502857613
0.0328180781432674
0.0333797469956621
0.0364294699107169
0.0329646409384138
0.0345715971980871
0.0329495341186909
0.0350303518486478
0.0320482130910695
0.0333726288054766
0.0316631517853399
0.0306877197997585
0.0294586308407456
0.0350661141677915
0.0327604503120749
0.0353429917700374
0.0324080006924521
0.0324602583985666
0.0344543166919838
0.0365726976195452
0.0316395381609919
0.0372752591144207
0.0374102163775064
0.0353244859565008
0.0319789184946384
0.0318468737465465
0.0326122890385099
0.034830774858643
0.0322556196980042
0.0328309913025447
0.033275382275503
0.0326529522044527
0.0317331663375744
0.0301082480689596
0.03277891729199
0.0324949934413811
0.0327837218541105
0.0319694712883795
0.0311369849420557
0.0325495827392432
0.0307588376222921
0.0305738554380765
0.0311044971097496
0.0318424250826793
0.0314603767047415
0.0321588572969195
0.0330911324380493
0.0304926830372476
0.0368601540382595
0.032610057077679
0.0333754732447911
0.0330261799154798
0.0280281845938844
0.0305577943389274
0.028809088835164
0.0278958263855338
0.0302208223160799
0.0293191851389342
0.0310318168576106
0.0305375935849952
0.0275273431879853
0.0320190829732583
0.0294579744401967
0.0266287192551789
0.0281915942498405
0.0304887494393426
0.028123437851741
0.0285331162443567
0.0280102662547706
0.03044193007938
0.028339275597435
0.0290737770781072
0.0298312445385733
0.0286387293330116
0.0310119618672922
0.0401590704535768
0.0284953202885831
0.0292693924079105
0.0282089630165652
0.0333953246711115
0.0267473247690635
0.0311438494188731
0.0274356158117991
0.029680887863424
0.02496055691788
0.029110260228035
0.028354733737087
0.0294989544553799
0.0277827834545423
0.0300523548730957
0.0267253569484617
0.0288110817652698
0.0249114982365187
0.0288768939797829
0.0273153624054899
0.0309863810440793
0.0261600452177539
0.0266896047724784
0.0271985796176709
0.0286284524476408
0.0261307846947702
0.0381758808486728
0.030552511126743
0.0290442421397625
0.0272136793568437
0.0282734055667028
0.0277332976931139
0.0261150944383456
0.0265334865347063
0.0272441640799885
0.0255120549406093
0.0240929814033804
0.0247984246455739
0.0238428760013469
0.0248762410885239
0.0275575851195306
0.0277998166792751
0.0290078069001325
0.0262321455328887
0.0274838894612464
0.0237482810872479
0.0276384996758324
0.0278569239788285
0.0267769556159894
0.0287117823541933
0.029655380378253
0.0270320289953622
0.0264528870972191
0.048620136868416
0.0272286878106064
0.0321120842987268
0.0249925059568412
0.02835811218928
0.0259805091419201
0.0250081587747854
0.0245106881017275
0.0248750142808756
0.0239420195133183
0.026980900234549
0.0227370662125873
0.026329575728988
0.0267692007166857
0.0277554996329211
0.0260342325806111
0.0282660826819474
0.0259127264692316
0.0275608169247656
0.0250272126979698
0.0295179633587368
0.0401614464500258
0.0346505613326265
0.0282170879594394
0.0319181724796717
0.0205858072060512
0.0509291225795462
0.0333818612319183
0.0271417476768522
0.0304200096252853
0.0260692005297905
0.0282134534161986
0.0229527478003457
0.0261429169657576
0.0261737066667753
0.034647362269148
0.0253715802430219
0.0310599168719592
0.0241803677306678
0.027659064406224
0.0237504077527144
0.0260514611846401
0.0243986428807319
0.0258547052651317
0.0240830873398965
0.0228051585801962
0.0233117824078857
0.0236232198705288
0.025398253793755
0.0231193864704136
0.0240396814153414
0.0330730055850758
0.0250173256049023
0.0264475767316092
0.024076714706605
0.025096847877564
0.025554724112722
0.0489602762224314
0.0222499623947368
0.0310752376250187
0.0215934014280909
0.028724090828733
0.0227728806286534
0.0281177772115683
0.0239928164598749
0.0253857330953566
0.0244466975939961
0.027558029040156
0.0248702428465741
0.0266242054216372
0.0208149897005718
0.0264253464515102
0.0267217069750318
0.0270373295561093
0.0246244270824725
0.0241078261108765
0.0315587769819482
0.0235983865550271
0.0376988543008664
0.0554982503224252
0.0380123458068835
0.0419999934773805
0.0286318276410854
0.0290171586015818
0.0250243576955827
0.0307455283350746
0.0238851460028916
0.0342595670666036
0.0207869491047044
0.0307556934162014
0.0218719051467472
0.0290151855066323
0.0200266463773354
0.0280474007618832
0.0197487421756169
0.0304687133132777
0.0178923318836198
0.0314616760897034
0.01852390539131
0.0324171984048385
0.0172852348007897
0.0393843868656416
0.0254618552345819
0.0382235280995554
0.0178288713830751
0.0581736653296273
0.0582851784687191
0.0249937674693729
0.0377805865003739
0.0199428004161192
0.0293964695472881
0.0213208137108214
0.0242410739137448
0.0319702461355795
0.0249356747694594
0.0225930891003895
0.0264418769515728
0.0248808600945809
0.0292431204096309
0.0237749460705407
0.0337043473844968
0.0648351213523869
0.0342507300148697
0.0320140189509834
0.0267657018982405
0.0286371540144162
0.063449450287806
0.0257741582408813
0.0332164483052929
0.0288838488958025
0.0268314821607454
0.0281823561761789
0.0264662656254606
0.026267018146071
0.0320542796615793
0.0300179907683564
0.0248693623756594
0.0305440481063137
0.0216073822671526
0.0319227381179717
0.0277393340890742
0.0378190470273036
0.0413685685559137
0.024889768070692
0.034712213948514
0.0325616691123806
0.0266293167734636
0.0308509522780018
0.0289459398688275
0.02879461060002
0.0323151651030557
0.0465975416456799
0.0293879122488784
0.0475993152375504
0.0434698575229037
0.0269262739254947
0.0318693747431855
0.0354797300546325
0.039944926093608
0.0252953996977452
0.0258017707330183
0.0765280645916292
0.0308724643281471
0.0682959196376892
0.020599023817585
0.0421866679380558
0.0203183768929583
0.0363086373127044
0.0164809702006474
0.0577224632301779
0.0283350329235424
0.0383529032681219
0.0244217263678892
0.039391545690217
0.0463645572148381
0.0342262000077402
0.0339376883596763
0.0274777498543536
0.0306376110126513
0.0434596862503441
0.0410656591656914
0.0216140968366039
0.0702607916295897
0.0605980601269128
0.0582275756676331
0.0467452149538819
0.0204997865979259
0.0814894627808351
0.0345596041024028
0.037127611086589
0.0320689295016099
0.0325457687379202
0.032510799277287
0.0312266716833432
0.074229169268733
0.0418957703865849
0.0308916596663005
0.0457719332014486
0.0274410623517904
0.0698398958226147
0.0444073328883229
0.0394215116352922
0.0308501620031376
0.0442487635845249
0.0246984878471605
0.0931364685438423
0.0638800083469684
0.0424783280489713
0.0813832075326046
0.0494969755231119
0.0648945153150743
0.0434476791154167
0.0492672311612887
0.0499634915436757
0.0671525370341378
0.0419600700648918
0.0353978885921014
0.0514338017211764
0.0880287577453256
0.036025505414883
0.0574079316517294
0.0398552408794797
0.0424826842238508
0.0843822547826617
0.119358682326413
0.0747251003807322
0.0568737674955412
0.0442895307201076
0.0789459881538719
0.0475987415445708
0.0487343325522659
0.0468663421177031
0.0450183369563669
0.0482776581574611
0.0454166322798313
0.0606935891473449
0.0521015265725341
0.0496531626912086
0.0545840839718747
0.0428058784745587
0.0832631204345055
0.0884807596195163
0.113040005249836
0.053284369613612
0.103645759821879
0.0766890777754799
0.0689641834652936
0.0610561850762168
0.0551961683948586
0.07258653856623
0.0610038543805952
0.0615160905125773
0.0570247632504023
0.0843875910481251
0.0901865771124279
0.0682017319928451
0.104810859535271
0.0553324707562942
0.0870047992960152
0.040187372137103
0.283469509621927
0.0927846196894488
0.0919826988468612
0.0883832758354504
0.0745533350328715
0.178987892340658
0.0906218728341265
0.0847319221485263
0.0842854834346606
0.0792076046885711
0.0943154336357529
0.102444089326948
0.100094571732105
0.110408094313706
0.108536766267848
0.0964674870114547
0.120732325679238
0.198864161193895
0.166559211743252
0.144398993728273
0.112229278435069
0.142262846472392
0.141177776593431
0.12172317733915
0.126558711890649
0.130978258653283
0.122431618746337
0.216671349266737
0.13096373080548
0.158062987708064
0.129150925448316
0.193186545110732
0.127765112477392
0.213418662769846
0.186086372170587
0.165043189949069
0.167395296632287
0.161060856897945
0.174892223478856
0.153063630867443
0.215685649615348
0.19162559651693
0.176174585549159
0.182491893581293
0.179120348908223
0.189546425204381
0.183225452929446
0.197569473055347
0.178561040752814
0.237838609728323
0.203770966348583
0.372922248806495
0.237250889085768
0.192174360181142
0.206871524197134
0.182354175524423
0.245652596749146
0.211053707943077
0.250704737522202
0.238818340545031
0.186184623612462
0.209079789081769
0.188018148069736
0.207626999559535
0.180677320903843
0.207585887982834
0.178574537891771
0.223450498506847
0.18731351034384
0.209773257230507
0.289425221710188
0.188882633618748
0.192344405066091
0.185070792351707
0.180856855980076
0.172797193459567
0.179615500229292
0.171702746762662
0.218182989293471
0.165375575436709
0.184788957435687
0.154651838371013
0.198765885609065
0.203687531599258
0.154717114524681
0.168620035067275
0.153745678562973
0.165936271424324
0.145597694420675
0.153538266220538
0.231136727803522
0.150055291703705
0.156148566270334
0.143245884267719
0.148420960168854
0.143452574515424
0.139394202648384
0.143529963424408
0.151521727899745
0.131280146290212
0.149292384198867
0.131176342291437
0.134517180057005
0.124220983641331
0.13978136070094
0.138521428844288
0.133889300028029
0.133659047926181
0.127217910858951
0.129909904074403
0.125488645580929
0.12890229534413
0.125623000658896
0.124433022410837
0.132640607396649
0.122142046585944
0.123318990759607
0.118435241570311
0.123292069094606
0.123324871031822
0.121095260035665
0.116194102523342
0.118828878345078
0.119323240524475
0.116825164306171
0.12076960618266
0.114051425338688
0.119496085517007
0.110631014824816
0.120394984615748
0.108847042977877
0.129545259654932
0.0976415261449023
0.172971676507011
0.15165475558758
0.109796951686408
0.123315139201935
0.100865731769383
0.119496387806069
0.0945228034817223
0.167541533334404
0.138955375471618
0.116087980909063
0.109405677009325
0.1104199144096
0.120514350893729
0.132853749660799
0.0955813042829934
0.124183639402751
0.0878619281156691
0.16188289403002
0.201706648569136
0.168407944007206
0.214318633839978
0.124130521535725
0.113778848843165
0.112404072752896
0.165075412857122
0.097605009830168
0.117497522868663
0.09535933536733
0.14454841839508
0.126072290592544
0.100536825548523
0.104128031721472
0.0933752589366588
0.124952622173364
0.148047911745635
0.113641568122321
0.123742943877221
0.160047999187542
0.118468165499741
0.159456031750785
0.18513684502464
0.14282099712129
0.0993737081476596
0.103734719491911
0.101407848680528
0.103484654071363
0.170855737966392
0.108112887925864
0.118153360386125
0.0992308856579555
0.0895488531640455
0.111246333329239
0.114079775203431
0.118544105391394
0.0893610264488595
0.155153082021749
0.0837041104815557
0.121324755646271
0.119800631916455
0.139516828795409
0.157800924031981
0.109879073640698
0.0890081468277787
0.121242907410213
0.15058005999557
0.101182399822414
0.116636549068159
0.0842054724909911
0.0926316103124216
0.125895424256134
0.0931898307228818
0.105083278256616
0.120233383055634
0.119145125733921
0.169042611348016
0.166113953425514
0.158924752569112
0.107339731835192
0.0812786374705086
0.0931442042662779
0.0874170208949931
0.0967564275046858
0.0790864250978152
0.118231119357707
0.114288786630151
0.078092069187063
0.152713779851807
0.0998785676601295
0.0957812489642749
0.0972806525922902
0.0911460797700723
0.100664997322987
0.134909661112741
0.151778641423992
0.119864334955469
0.108646937015478
0.136515874992841
0.103611815419325
0.115354366379607
0.104613126199779
0.114384459271241
0.106818655769947
0.12893101363227
0.119501620081315
0.120921758170572
0.122086489171796
0.131282679766835
0.142417488375626
0.181855963855103
0.122134099929296
0.186592398278412
0.159344534874879
0.201865787742149
0.170062875320907
0.151478389533559
0.157750038773824
0.154211903742063
0.164968581837867
0.16275036996105
0.166909954114245
0.21493101610583
0.1675828344414
0.182348654132138
0.166440012818533
0.189440765619527
0.174193481399276
0.224112551503942
0.207104063802068
0.248885004562929
0.258167573541863
0.207596014652853
0.207777000424244
0.182632919644351
0.204728253885265
0.200257300530181
0.192721738538112
0.192323406284326
0.188967047847839
0.221154787892562
0.200197100843193
0.199742444018299
0.19427742684454
0.19683291556953
0.200297464066791
0.201333977667539
0.199220234235532
0.201593844187446
0.202707590171517
0.210295362741801
0.200822725741092
0.295237481200217
0.229320001710773
0.217873491153573
0.222887266083833
0.220831108605404
0.224573144743131
0.214099662709874
0.239735917799942
0.233425478932725
0.224523841028633
0.22987765263133
0.222318176424721
0.229174817514736
0.231164985164216
0.265579029286397
0.225333546337965
0.241077268835759
0.22108572650013
0.258186616287212
0.304194226489699
0.244755339449098
0.268585361027953
0.243260320740067
0.242902702745903
0.232386250394404
0.243189918370959
0.239027036543985
0.241971038181544
0.23757846382928
0.245462082069368
0.236313132554688
0.236762194094721
0.236169843766534
0.234209847577937
0.262372450982628
0.243343919516542
0.231378367246789
0.236101011987656
0.238072917086259
0.229310339537876
0.256998016745033
0.258938201127084
0.238195506136901
0.239814783134426
0.238875704670967
0.263144964719275
0.251852413654688
0.229554882863469
0.231885805840296
0.232792323319234
0.233845204675846
0.229832784630017
0.235004335305894
0.265987093384314
0.242695288534013
0.243278735991253
0.236730425365976
0.241366249482941
0.242365490063803
0.24713495887644
0.243321818404743
0.25458954317078
0.24913638668208
0.258131512775908
0.251095047936093
0.255107741357993
0.267071110046661
0.268703918187404
0.26961275504041
0.256929314478369
0.255200299265536
0.25371117359857
0.253639821820184
0.261836938074269
0.249760525857372
0.249931095664593
0.246001906777787
0.243799755490564
0.240797135333094
0.278692057766205
0.248181414708224
0.255667964963687
0.245099485146375
0.232679557269385
0.238751974246976
0.231171627583891
0.231938107084068
0.235950721341489
0.232160590218948
0.225430222614134
0.225423780483091
0.224150032102967
0.224341089189415
0.223791720101154
0.224790261900322
0.222017679764889
0.223287722802947
0.224759659106134
0.221000401721508
0.220059451826599
0.219521826296218
0.220644005542762
0.216595498301549
0.233363656360803
0.238436098472741
0.238460672314229
0.228578871692372
0.224853167305205
0.22551138517425
0.214936355766096
0.219744325605784
0.215550418375769
0.22178697219905
0.2182697049493
0.219662749662833
0.218935999968025
0.219104892768312
0.218501353729162
0.218555632958479
0.214640570664246
0.21603850840843
0.212491872408808
0.212718075105537
0.213037149646478
0.21498855861622
0.212120159565498
0.217612239448197
0.215848469575754
0.216472982416996
0.216665144650064
0.209314760214743
0.211566601787394
0.213957661490107
0.217178334283937
0.210662275429128
0.20897868220476
0.21030665785117
0.211011779079799
0.211684881980894
0.208824317372683
0.207555126568687
0.2049910922355
0.206446822884772
0.20498154907071
0.203031315523564
0.201025041371017
0.201276478131722
0.198800922198161
0.194615240604544
0.190973369678893
0.191592503419882
0.189820772936453
0.190768985564494
0.187472053082561
0.185263359746186
0.185369953707017
0.183465719621592
0.182140528149315
0.17579908376975
0.178336913585497
0.17821599755547
0.172683240932624
0.172441744878171
0.178079696900517
0.174722979803053
0.173698669107063
0.174519922227903
0.174075995655513
0.173870969690317
0.172648672975686
0.173790015824636
0.174911498482707
0.173452320957462
0.173827373084424
0.176158790715405
0.176030209862247
0.176195928554003
0.178539934282467
0.1791166136274
0.18290345949574
0.18225269036795
0.181887392800119
0.183635442544679
0.18458841314608
0.184658009695862
0.184111524791176
0.18288778550524
0.185575529003006
0.185565849777628
0.189557606146493
0.190034122329674
0.186981596103639
0.189182290707913
0.188209309132204
0.188264865206202
0.185864791319116
0.184003290928101
0.186522760930948
0.185924587156303
0.187164448229631
0.187797710910923
0.185314112223
0.184524497985006
0.184468701825918
0.18368547172825
0.183518443650836
0.185388089698745
0.183045675932048
0.182338243724447
0.183305270319645
0.180432550522928
0.182098189601724
0.179126394165136
0.176998396861248
0.179672541533735
0.177447420836401
0.175534214072824
0.1767567339792
0.178542906893785
0.177386192976518
0.176039303991257
0.17407274106783
0.173639387000933
0.176444224785565
0.174293932526359
0.173066090012917
0.173345861625916
0.172476265872482
0.169885752564704
0.169253723169472
0.170049510101033
0.169314293791875
0.166549371215755
0.166328555956299
0.166805878540646
0.164110713779741
0.162450182925184
0.163454709263142
0.162535878078528
0.159450059836789
0.160283116317591
0.160090719896153
0.159813812912549
0.157388453808008
0.155745877018222
0.155577409460114
0.155841085833935
0.153334491584685
0.153460284602399
0.155184153804565
0.153941541064067
0.15340406439128
0.153382038457758
0.153413930438769
0.153945772441678
0.152747029429354
0.151560478536841
0.149778059796464
0.148682971467594
0.148405016913062
0.146201986287536
0.144160546778674
0.144045357455725
0.139794481173715
0.137295447482035
0.136951242463064
0.136003186683467
0.136000958657448
0.133951793816883
0.134382987603613
0.13593964701179
0.135877009684199
0.13550939591064
0.137811559721052
0.144129217550376
0.148513579695178
0.151279987721725
0.157169214323178
0.162671745368828
0.169115737577913
0.176259311542454
0.184282039883193
0.192501895901658
0.199936070623269
0.208553439212362
0.219058125319188
0.226042562978759
0.233848333748145
0.24218284629973
0.25107191413103
0.260895344955841
0.269757773722848
0.280393422841143
0.28736863259196
0.298079664026935
0.309546644699644
0.315404548343903
0.323908519086762
0.331034054085313
0.339142428253891
0.346955546555517
0.354395995224891
0.361221108128792
0.366740567048534
0.371256316850972
0.372186579808658
0.373076547171984
0.37747517459248
0.380728979638406
0.381296266857655
0.382424334884496
0.38046837653635
0.379361151267064
0.378326903288693
0.378425128461798
0.379045824945842
0.375663195077315
0.373642256081373
0.374665801529167
0.370996861347292
0.372530329072068
0.377250007174277
0.375811390384632
0.378299927138006
0.37833449742593
0.378819423872495
0.379134387567317
0.380670281304081
0.386899434394741
0.39344137584159
0.397677173057364
0.399222446407441
0.407759064613014
0.410472438094708
0.41358911022313
0.422945399827778
0.428459147615401
0.433424634387174
0.441182784174354
0.446496688912812
0.447944164484348
0.45338216837378
0.456194122792579
0.456698813846608
0.462832974094645
0.465021640476567
0.463281806269882
0.462005221845302
0.459854280703342
0.462301516450663
0.463615407043269
0.463287696162986
0.461731337146255
0.458567308549467
0.460107329530988
0.463142196940495
0.471930777456929
0.475893860079562
0.477109149343774
0.482144849430225
0.494037028908443
0.505760590275966
0.506500996813649
0.512205791018187
0.519015692415534
0.52595966349698
0.537130358891068
0.540960932319774
0.546627215154358
0.556311391840281
0.564710174697059
0.573744220084247
0.580548996279954
0.593394944432054
0.600424661254777
0.613724187549121
0.632492295485495
0.637129424928185
0.651436454151719
0.671045891945091
0.687171210957219
0.7038977990931
0.722082952550393
0.733515929932343
0.739986394793692
0.762045719746202
0.775980652576171
0.773659656436136
0.78513655220549
0.787218447562459
0.798953151492124
0.808928424005411
0.800013584435681
0.801859482617465
0.808783070783311
0.810594355898975
0.811185420428583
0.814127991355817
0.812008201266393
0.797586838867517
0.790441322047782
0.793454679701663
0.800528853448397
0.797252448481164
0.800096181948963
0.799527715793704
0.803270406725918
0.810114464615385
0.806529171954816
0.815600309271479
0.828950371939611
0.837911666000563
0.827119099001195
0.840488042520956
0.851592587507374
0.852059549938014
0.859837938478454
0.860790672706171
0.872443631521948
0.879665029491693
0.890220788237106
0.89668853960776
0.895391871555717
0.914553416048831
0.908152554660105
0.909310278370589
0.935945061253769
0.912079991943567
0.915637399665682
0.929432693789131
0.910739516895471
0.928643632779286
0.991693521603772
1.03361497431368
0.982701714314208
0.950662864136562
0.953238992461096
0.934992151492619
0.942785697634174
0.94765090015107
0.954869878961678
0.951106134860773
0.948413667575081
0.957450861839211
0.953399240393723
0.937473664911905
0.938915742987875
0.941694150515838
0.919868395024942
0.923214809293277
0.887972400399499
0.858901700214532
0.864582719358173
0.835379186629684
0.817616127205218
0.788920486695
0.766986194088015
0.751457841219013
0.719847319334614
0.691630037942469
0.67512002081293
0.647113657365319
0.624232747159764
0.603906118888455
0.592861626847088
0.574399362032798
0.559162180968673
0.552662742461518
0.54685426249002
0.540274220737747
0.53921913309398
0.527877067703021
0.516032011098746
0.513131590564541
0.508643973371046
0.502568903948534
0.492105034185953
0.473446594342473
0.461015509572184
0.455194554369746
0.44298390358775
0.435444188682145
0.418584293841072
0.403778498898513
0.39351963362696
0.379900472576925
0.360939185385918
0.346113740953601
0.333385867750197
0.317774975516221
0.297073321973112
0.28498299295124
0.273277663489698
0.255124220633797
0.243418921583394
0.228216838082042
0.216123854877461
0.204914751880568
0.194500816443366
0.185874132051394
0.171047834192662
0.167015177158569
0.162595458977256
0.157181086599636
0.152378395097873
0.145335835153362
0.141679526052036
0.138718606102965
0.13507406447463
0.128276656951518
0.130035858895931
0.126180560772631
0.124206295512233
0.122028303459884
0.121841252376188
0.122730292216484
0.120667213749522
0.120320547372337
0.122127504408114
0.119653758958518
0.12059715026988
0.124608230961219
0.12678956087142
0.125095286221767
0.128071499223109
0.128823720882495
0.132373570472938
0.130699461925366
0.128416366271675
0.132904010660979
0.133301394239529
0.130884470314241
0.1334275164519
0.132414766488652
0.13160149345163
0.133162129248317
0.131732596684449
0.134975528027741
0.135511939031891
0.13189161220386
0.132796575920568
0.1348149625734
0.139119120295657
0.138224399041202
0.137006706136271
0.140408564520479
0.137352418170817
0.136154982408882
0.139244039771394
0.14057075192551
0.141050177745058
0.142727426722141
0.145422072170165
0.142574733754546
0.139209265771584
0.143972816450363
0.145850510665324
0.148513348917385
0.147307016657014
0.14681819171655
0.142031462706855
0.146785289418893
0.14469926158549
0.143657047358023
0.140383679626807
0.146648736267051
0.145371985128014
0.147351128155498
0.149062436612509
0.150401220437921
0.150521999394186
0.148717546964276
0.15587684062033
0.156357799827734
0.158685953287389
0.164258172634896
0.166172691209155
0.167672513658606
0.17344115752153
0.18206555635621
0.184966578566778
0.188847591993999
0.191089225444509
0.183074707845339
0.18014963498977
0.186555885733179
0.18814361984111
0.181698533519827
0.175415807857625
0.175137817300838
0.172611586655526
0.164402010010553
0.1682233837889
0.1605299774109
0.155642892294272
0.159356530693718
0.158769151980548
0.158306218821347
0.161800281236665
0.157160562673073
0.160434589380626
0.159740997142502
0.161669981318507
0.16226985318085
0.167295313730667
0.15988204148952
0.15322803434685
0.158239815444105
0.158720115125805
0.156380120592306
0.148296317068571
0.152336113604372
0.152255202936926
0.151318699953599
0.146317669773681
0.144658947080529
0.149245396411115
0.153441849659014
0.15023588428266
0.153275426318481
0.146716545672188
0.153522450559237
0.144315588113482
0.138465570479448
0.140519984101099
0.14365822400763
0.144447843004208
0.14089913339968
0.143880081039539
0.14486755405174
0.139957299759871
0.135892983624211
0.142081118061545
0.137643710068935
0.13688191614033
0.145870945899562
0.144328005165071
0.138379986710606
0.14484244056563
0.138916447096013
0.14009972993295
0.142408660910562
0.131346581871645
0.129227907165926
0.124922314254335
0.131163719104321
0.130755963073251
0.13123716796017
0.130621611952944
0.12189469654746
0.130284845520285
0.13173221732601
0.1325360363402
0.130976148924008
0.119912510592898
0.13294065928143
0.137546251621752
0.128297827643627
0.127972196875423
0.127583071638207
0.127559712951666
0.130682253491477
0.132295122777051
0.129736752720759
0.142223045654158
0.134250643936192
0.134514296641441
0.136027351197066
0.13853613640535
0.127805863158833
0.12406271131264
0.14024510653348
0.149209888813362
0.143614971196256
0.143425801169384
0.148365167089134
0.157719413432683
0.146286710435982
0.151930764153332
0.162887143495566
0.160358484951314
0.159377477943658
0.159839663562342
0.154592514632086
0.175482454433705
0.16814668161553
0.173346730291113
0.196298899756738
0.180147322466599
0.187370638312337
0.19736048825927
0.204591044161607
0.20653021789675
0.214932897941344
0.237959998078419
0.236125898356736
0.22290399339984
0.222710541519165
0.230597443429407
0.227839610910916
0.239964809152421
0.233287977014826
0.236109682178413
0.259339270506502
0.23657879801311
0.228559676544665
0.23296340155314
0.241203884367477
0.228358283828108
0.233958765961056
0.237578811230583
0.221100191844297
0.232956082838446
0.221894094030983
0.22875083040031
0.23087665023006
0.231495739283737
0.238047041750565
0.238558778929924
0.236955709517902
0.22609945155989
0.226245630209753
0.221534452306949
0.214646581153793
0.238427453794751
0.215242792705627
0.215927709606206
0.208063254831815
0.21746956290198
0.216392690114188
0.224653118921808
0.208330564494884
0.222797303759439
0.192340409987541
0.216842592976333
0.223918562664953
0.208439933664179
0.192607915496462
0.22290309279852
0.197545310055043
0.207713985564722
0.205276873082291
0.205683352803443
0.2158411352782
0.21416193846955
0.194205399310104
0.234564159778157
0.223244656103057
0.212402821449172
0.208780364918466
0.249781275899832
0.213326448636119
0.218561488488724
0.223067307481046
0.234172082649455
0.238910928584714
0.220855015122341
0.20474372271338
0.218939049585162
0.225285869284211
0.216622773291636
0.245244731267501
0.222650583710957
0.2334053814092
0.227687596771521
0.210208704488239
0.254756469534237
0.238066633634426
0.231497601774051
0.23081103160511
0.237662740969835
0.263551186829073
0.268117737695994
0.241160429836284
0.269725119651231
0.276334052174785
0.295305604660682
0.280797149622983
0.30814202995512
0.259346423892956
0.312076849464335
0.301780075880866
0.28062455623235
0.297893815129808
0.295878406860943
0.347272553208916
0.316997449327023
0.308656566346441
0.344985350541549
0.320663098382684
0.290843277232546
0.270590090151677
0.294990051906369
0.287830132221913
0.301852589949707
0.310654013250404
0.276155504909251
0.247381188483605
0.297667396379097
0.279960572629333
0.30491878625819
0.287359917367864
0.293760740408703
0.242157682998257
0.268856597841349
0.249176175341279
0.342985819488181
0.27613644859543
0.292125527840358
0.237169918736464
0.311986695922397
0.187911210853821
0.264028746678251
0.243588183982658
0.39440282118622
0.294933577980063
0.386454702901409
0.313011246222336
0.277116283239501
0.251501440848762
0.31086451465092
0.293003118121142
0.38793177877722
0.231069280908854
0.306270610308959
0.49145607807692
0.409670161329865
0.293247076963911
0.265540286405244
0.259847344801017
0.357065712503724
0.263019404724127
0.25315471724069
0.255162960113707
0.252727154907739
0.335062423362527
0.381471244104039
0.348760176599386
0.205808702823758
0.340834972199643
0.315584781548969
0.471606210469238
0.306941651357624
0.272174157139327
0.60895383239385
