3596
4000.36533379555
650.420452594757
1
2
2
0.0674839212937365
0.0697553449079489
0.0754408715498163
0.0623915047821993
0.0754156713986554
0.0695150621963347
0.0810104630259164
0.0624070961026463
0.069251325030591
0.0711711443163346
0.0795999958516921
0.0644478797722796
0.0716346709347973
0.0707744283123557
0.0714105876111417
0.0721130885266293
0.0728251643976201
0.0672038877205823
0.0827045821461621
0.0627950009084139
0.071380793723003
0.0699064646563854
0.0684809583305479
0.0666641635774047
0.0721444162736438
0.0700589984915512
0.0765722850544943
0.0718953639677896
0.0725807113470436
0.0693037342425244
0.0683202437695258
0.0681867198116389
0.0642942470062009
0.0692186799017962
0.0670963069651354
0.0692333951777502
0.0793777749708422
0.0667787268507974
0.0634566176915445
0.0745788409774129
0.0823634982644833
0.0670901630859292
0.0773774076228815
0.0653480233176905
0.0739766520873985
0.0665619885764284
0.0773747813678942
0.0605504409962722
0.0618381648642336
0.0683406537730182
0.0772142410929461
0.057105010285425
0.0874307488796104
0.084292535624617
0.0788604722097773
0.0813065248908593
0.0707224745915487
0.0689248979310148
0.0812363750154615
0.067860946008443
0.10050478857866
0.0843223968694362
0.0787811470914059
0.0660811104613979
0.0732934914033971
0.0748660786977335
0.0680342216662055
0.0602793648743251
0.0609118531257698
0.0791185488314074
0.0600811973584162
0.0874844965302168
0.0780748560735932
0.0736292906080379
0.0805498750625789
0.0666531505999483
0.0701316130181381
0.0637356012827325
0.0611308351982449
0.082566463866249
0.0800114503710676
0.0674699297182516
0.0742187114848253
0.0576963993141141
0.0805187665025837
0.0848510965477347
0.0623435920427313
0.0811397501698062
0.0902880217670296
0.0818141461874399
0.064563975237308
0.0656049210368373
0.06057158586393
0.0603323289076347
0.0611784376775023
0.0615664966078784
0.0562303947998828
0.0738004718653915
0.0559553726474698
0.0809935249853789
0.0783339721274452
0.101233799711843
0.105712983912445
0.0486448591986261
0.135982075797637
0.0635175290780237
0.0873514295840767
0.10694842728355
0.0936564260352901
0.0701807543911897
0.0721689936045077
0.0709784559457328
0.0685322681991152
0.0809511918097102
0.0511075315095963
0.0892040485731624
0.108258039538739
0.0781858070088038
0.065901714699973
0.0690003199462721
0.0467551338166682
0.110168112861029
0.114253723022519
0.065047534082682
0.0842312953072446
0.0694632154164603
0.0622730351515601
0.110607523760624
0.107924742542248
0.0692983981029485
0.0637915693401101
0.0660138946514482
0.0620757737167736
0.066325820622916
0.111155264058374
0.0725907285135577
0.0791463903367248
0.0487954215025104
0.0968188240172456
0.125872911140843
0.0926331876760481
0.0738079604007396
0.0496974579270462
0.0782697734804206
0.117776332106086
0.075857523129542
0.0648839805171987
0.0851017824081672
0.0736366866498562
0.0691251855006945
0.0642536512533367
0.0619644802452212
0.080327187112977
0.073836665352003
0.0283381716058943
0.144163897222317
0.125115954720717
0.108374048276562
0.13370903973018
0.0613286363718927
0.0889477470314284
0.0571221364142115
0.0777810851853127
0.0581469249526192
0.0750658512956844
0.0482415497712694
0.0902814771259587
0.0836824895053222
0.0774469152988344
0.0770594919428893
0.10895910410489
0.0704269439181369
0.0717033623482001
0.145321634427322
0.0723329852004852
0.0675444095659318
0.106054210968332
0.0775195982497829
0.0612765408829158
0.0767259718252536
0.0923442242054036
0.060851911605243
0.0694292916146175
0.0569951615825409
0.0754053683166908
0.0856866656295812
0.0759433171321376
0.0735255155005635
0.0705780856038049
0.0493032765269842
0.0924530503294088
0.126681007895614
0.100850424614398
0.071295901765123
0.0735022952874105
0.0334212057836664
0.140492646516034
0.0935452064253976
0.0756984384241627
0.0627271515022256
0.0628004145785402
0.0575808211855655
0.0613258421346314
0.0685958597587825
0.0540064288300757
0.045182821373405
0.131624884227961
0.0808549964451919
0.077326976266111
0.0638501904539099
0.074807552437153
0.051286185428836
0.147461360843295
0.086058538729265
0.0824869003089465
0.0616143914627323
0.0674712360504602
0.0817613951099994
0.0920754346923671
0.0590190895462443
0.0740360393146382
0.0585471441961675
0.0728934318722687
0.0566737166159094
0.066829665376807
0.0626559095001244
0.0726966494143724
0.0594955948960002
0.0694191290140015
0.0660842886763822
0.0837872943346024
0.0692661320914693
0.066030392611533
0.0645698481495728
0.0532891770242049
0.080693124478571
0.095570671165226
0.0729356025769316
0.0794250312461895
0.0599243658298052
0.0696245417478872
0.0711250917120062
0.0703177973762182
0.0610272274853843
0.0633316944035361
0.0633957625856703
0.12208712850118
0.0675685792152199
0.0822042826381114
0.0444609702474359
0.101652266155698
0.0714500598271003
0.077281457128891
0.0598443747976409
0.0794372260516746
0.0494740404704044
0.07835194539773
0.0949688347160755
0.0845365213122126
0.0582713159186906
0.0947252143504645
0.0693126280517426
0.0812045533139369
0.0592620322979638
0.0703217569332577
0.152673401545888
0.08142686207847
0.0710372448405475
0.165172152862507
0.0753615860433374
0.100853254219031
0.0622242664926351
0.0579737926204879
0.190016882636897
0.14505252722032
0.0718764399502125
0.0810093799670897
0.0978125416099366
0.0752305945906966
0.0919022324376868
0.0817163184270476
0.105990555412852
0.111975448286163
0.116748247556946
0.14793128323024
0.0596148270539407
0.131039193198769
0.0882843926762552
0.0926611263856407
0.0691387265055683
0.0923596513627254
0.0603380210812939
0.100877183187843
0.089919559380406
0.111590823706236
0.0743310996843983
0.090973165687624
0.108601826599012
0.0921174061099826
0.0730563759392543
0.0936689985153772
0.0911669225506472
0.0874092147304854
0.0817171821498606
0.0785794132213607
0.0944839830463801
0.0790232246127622
0.0809544222553148
0.155612236467496
0.0952737173854489
0.0956195130326291
0.11291566047754
0.0914497015664934
0.076773715838489
0.088490912793699
0.0730293685194506
0.0855807582824674
0.0754873330116735
0.0814865900119984
0.109306655897296
0.0928204952176126
0.0855623879877807
0.0834073791793606
0.0714072702840743
0.0840902859737604
0.0777450000700911
0.0902773832257356
0.0812476782001647
0.0889766474642856
0.0673018616529116
0.115820077900406
0.116852202095305
0.0719937722563621
0.128790412717279
0.1232510178054
0.0902179080681513
0.0830483539293939
0.0833524365727876
0.0938029899825039
0.0793718248173406
0.0979128667547036
0.0876424967101012
0.10288653903247
0.107662315784198
0.106333258882103
0.0941573208190807
0.103397115040131
0.151407825701291
0.17064975592266
0.11300407699296
0.108739055042513
0.0731635095767695
0.166801877344994
0.123486795873473
0.143170782074202
0.127291485545771
0.104831268120521
0.0983197722613831
0.0977416712944938
0.103976397236276
0.102259548154894
0.100068592678609
0.10282833638779
0.106644150217692
0.103455132547291
0.118824870603824
0.10321495527642
0.115147065249988
0.15515601317178
0.120710880571477
0.121554548632514
0.11719020282267
0.10231110704093
0.149435559791223
0.138841791707678
0.17934378396151
0.149338121737735
0.166624902964006
0.180102951824034
0.122005891827208
0.133763830832906
0.116564100857835
0.132798256404955
0.122432320386586
0.126507225848488
0.11960889254845
0.13019884309598
0.127769160545549
0.134775679731
0.132518912248942
0.136469409506411
0.130743824671006
0.169366798019859
0.137154012081193
0.152135977399148
0.126659822623851
0.189646694641084
0.205669905021695
0.216452451279562
0.148967518629209
0.171043797584832
0.147396745339254
0.157265050683474
0.144159313064529
0.167976173556067
0.156364187067571
0.166882353134305
0.193521827613061
0.184344993316719
0.188826716502252
0.182735773834892
0.151042624301426
0.204817540004964
0.179624697877755
0.209331288439043
0.212426119447503
0.193890936911116
0.163827068882653
0.220127585213886
0.187821894195922
0.209805936086336
0.207425136624898
0.196502652380865
0.195158363833139
0.189795015999101
0.186402372390506
0.185983874789571
0.205038626725766
0.217592160421194
0.194241919200691
0.227416710893585
0.204899306601452
0.22564856654004
0.224927490232491
0.223489164987197
0.218657394466208
0.237142371588717
0.204211801543407
0.236857094088966
0.201835875635934
0.267821643808695
0.237376779408185
0.272375738554772
0.26209270093962
0.229156440292766
0.22866883321942
0.243923780797181
0.229512757355305
0.241450005948481
0.244401514250365
0.266286639185022
0.232480011130468
0.266858343535353
0.251973198699605
0.254218714966229
0.253350266780058
0.270938713849559
0.258299829023495
0.27238718091476
0.268189049868237
0.28192609248503
0.247922365256191
0.326365446021241
0.306835304313813
0.319728633856683
0.303853032453079
0.304394026321298
0.280599283531005
0.319978122132141
0.281683761078512
0.317970761919709
0.301411555177107
0.306711049237978
0.31478217533864
0.297145242562638
0.304378983117199
0.323727967961441
0.317667983961949
0.338180570500443
0.328415740157468
0.365076449038487
0.313717822499074
0.322416043158125
0.321904196443685
0.352014232053121
0.350560196332812
0.36275482640251
0.34095294867776
0.367596393534424
0.34260814795552
0.372255931316373
0.346362338953721
0.376328226418041
0.357911978950478
0.387079769548726
0.350620150734838
0.381527936686327
0.376555203793862
0.395928383232084
0.373357422368147
0.390668559830461
0.377534287741409
0.403738909740962
0.381202414027441
0.405948809365866
0.389271804110504
0.409769123795004
0.38641509978073
0.420703053102598
0.415188000229847
0.42206811129109
0.415264046058334
0.419445335194899
0.407991428452713
0.431014139524001
0.414473311734615
0.450185205514006
0.419284496302488
0.457801633757165
0.432048188765342
0.452585550178227
0.444479081326762
0.477911210861811
0.456859197988635
0.47586117393955
0.469010181790155
0.487029656466447
0.442093248548866
0.496875472306617
0.450153698330474
0.497754768037755
0.479719168097668
0.499554022350291
0.464945523866514
0.517853283826807
0.481936093335366
0.525577965827924
0.492411693566095
0.518751849199101
0.501226720379285
0.52833148590033
0.507452295454152
0.561398144104828
0.493903510832941
0.522343958824361
0.496104674155603
0.551970205435998
0.505949728126415
0.550220443443474
0.507629453486099
0.546348415478642
0.553264060052997
0.553747231558534
0.562856454127548
0.575461546479228
0.544074256365229
0.575599859428052
0.522726749247854
0.557577033572199
0.565187471843949
0.581257092453638
0.551949890325599
0.582629830994736
0.577236381610032
0.615402484622003
0.553657768477209
0.629966200982166
0.564700368143879
0.580274875203958
0.55632590068881
0.657923630323608
0.60442055471655
0.63295445085437
0.57821654518303
0.597699580139218
0.586899843240471
0.670068479968389
0.602728469694599
0.623431768558541
0.592381592806561
0.668835919959677
0.603901740151727
0.67123036167098
0.611894803341369
0.667221088594443
0.648946938834571
0.689177116151375
0.638339998653926
0.683848317321772
0.611864499054505
0.658722513796754
0.664181559193382
0.67889918551649
0.661948889408506
0.667154761244249
0.652929950129694
0.703562304230754
0.654652746453517
0.686034920842494
0.657018910265451
0.704182133694963
0.68124830610584
0.682384160332285
0.689118980749118
0.694248731047862
0.656862884102717
0.717665371605554
0.727819271913154
0.73881259121295
0.710528399598447
0.730833599448336
0.715659278720335
0.779513416744789
0.675861050131299
0.756952803973511
0.712427261474471
0.759813430258391
0.70564787695554
0.786696560752602
0.713165629297553
0.763711018605814
0.751344442644482
0.776799389828943
0.726100199111134
0.775768655827771
0.757339800615217
0.798370697503209
0.733045136499845
0.763703773360832
0.738750038849965
0.7841692664653
0.716932786812562
0.77969165981452
0.782081780890188
0.805696621300062
0.78954004140977
0.801072376614729
0.750702491450986
0.805700359247476
0.757782021227524
0.799885529587494
0.743807861801648
0.802020715414602
0.779844694640148
0.828879809462262
0.787998483721373
0.83138202638676
0.812343615558333
0.822904765846978
0.759042371293348
0.822567481448932
0.796655924854537
0.836479893959503
0.811631218781867
0.853771480427705
0.803659001609865
0.86409153549082
0.849323504474804
0.863337590700196
0.801780254805435
0.828222769051069
0.784948098997525
0.875426739761335
0.820639411248208
0.824093066337132
0.855339365715336
0.838099897933654
0.824299801532423
0.849299929741951
0.828082544151193
0.88407053815462
0.849008043750551
0.909472531044959
0.826726027694123
0.861087508788169
0.792029313418383
0.874435443736201
0.835798011739733
0.896349464850039
0.848651512914476
0.900251497217149
0.883992195764887
0.877180439729264
0.847781616921205
0.875770971406806
0.874118176885007
0.937534448158319
0.867880148518972
0.889648563965007
0.838674017186537
0.874410443065856
0.859970311836358
0.894231423134496
0.835700778085526
0.874079334746658
0.830540873387429
0.930090329386808
0.919100773596937
0.95114534377845
0.907436364353045
0.943576630687727
0.828797255807139
0.86509234811403
0.870308330296122
0.910837518632358
0.909452319971001
0.956170877535415
0.888027385324617
0.926206972130899
0.90969901134086
0.971416634137085
0.881717160185001
0.957204062393091
0.955655175601143
0.939522493089501
0.897826265531815
0.97860732348091
0.890548380055556
0.958925607168969
0.887139190175334
0.892847754073178
0.893667221136034
0.907013654932133
0.882768480034513
0.920340000903708
0.885809191013192
0.913585988476563
0.918091740487237
0.914182999192947
0.842076179683838
0.944980885475763
0.903616706560225
0.925502314068943
0.901543279279671
0.89387469699447
0.899044928937399
0.948299090274459
0.897708952771348
0.939223383495906
0.862719012193129
0.925893829898781
0.894820929472673
0.932358040883032
0.868864709900012
0.940695609842918
0.928903157470699
0.964353554845831
0.898594778419384
0.917654516174925
0.906461730409122
0.930289480899651
0.906630330112791
0.941127070398194
0.901547011996174
0.965359896982024
0.902587791499468
0.904881352103181
0.895734945364569
0.939062898985491
0.895535170444349
0.934554275384979
0.895413005466967
0.94348334119587
0.876955745861281
0.897882988567838
0.883655664132749
0.950109004283839
0.891752772591476
0.911658584779476
0.850431698918503
0.927441803841301
0.897447490952886
0.929100749621661
0.85957680506208
0.899386081523217
0.915009725041911
0.917553216385273
0.876401502299762
0.911099540207821
0.939695532783053
0.973620284908505
0.908219210171037
0.935482823690553
0.916253651249582
0.893503929137986
0.888276169510132
0.91362986166483
0.855031084913105
0.932541907418752
0.838713131469518
0.873328016936544
0.864378314964141
0.929901732408168
0.858568167197397
0.920354754083014
0.858072618761456
0.878930431593851
0.877762108524683
0.903000145867042
0.887876099735022
0.902815865812981
0.880630234685105
0.91059631557383
0.886858903705744
0.885760959832348
0.837603168015067
0.876629909905369
0.854725431383024
0.880213888231241
0.886888865834573
0.905483273452952
0.861273158052272
0.876268538420386
0.82046349516097
0.897896717233648
0.860387899156568
0.872802642949713
0.851698368541072
0.881102818403554
0.845297213324909
0.856578036918316
0.85489396642308
0.877474073194131
0.821245067839514
0.853763043024496
0.832998981491661
0.881307881171517
0.825292536066685
0.822807478286518
0.827396171226376
0.860543879513509
0.843245463772803
0.837104302704268
0.807108840574126
0.849301406784984
0.828274118381033
0.826055030549083
0.799526465298716
0.838235241808994
0.8097131514445
0.812403531410929
0.814004360974414
0.842928113041548
0.802433514591686
0.8234148146925
0.816287362281691
0.840250760879389
0.773603443082925
0.775247869403031
0.78634659028771
0.823698205779529
0.771080646450154
0.767831356689407
0.774476040206667
0.787262294217492
0.775532821760158
0.792754124592575
0.768137271612818
0.797672695736857
0.763910020911596
0.772867322470491
0.75182650632085
0.789690144562216
0.743725388568796
0.758691475960489
0.764174646753223
0.755698455023137
0.724652050905062
0.737955976752305
0.740237801998728
0.738741674924844
0.734233598880396
0.761119185068987
0.740405136320514
0.732247372987069
0.70675641266186
0.721071084879924
0.707916328870611
0.713929403766525
0.713649656208132
0.731842474513181
0.706408497889585
0.703385235296454
0.675991259878957
0.696663146798483
0.700536191786721
0.718934950879042
0.663779695621299
0.692864687658852
0.685767807520478
0.688784685705637
0.682704345485963
0.698678104955802
0.674019763369531
0.672943457143492
0.654528334140197
0.678117602873856
0.654552542589917
0.664423056246712
0.668016289696153
0.676256668113707
0.636492118749452
0.649904742415139
0.656450907459002
0.663704516728786
0.619795445532675
0.631938883493127
0.62756654253143
0.632876500773092
0.619807114350524
0.626260237304214
0.62661565824949
0.646206632452
0.604636144325586
0.620111204284739
0.596611348890376
0.606931666085395
0.603224869553349
0.605610616840213
0.582489615629482
0.59741072681598
0.579957505841438
0.567509603259179
0.57539155484404
0.580717552872657
0.583293156268643
0.582372146008834
0.562892427737766
0.578337609992487
0.560422180510621
0.56441926896478
0.559083411002593
0.56807976128193
0.550995974357013
0.556234877878177
0.545992908646381
0.55287350313891
0.535110074919951
0.539921118493507
0.526414313952059
0.541133249794688
0.527858159006981
0.531466308749769
0.527517023006133
0.523283441610467
0.510284453266464
0.510074565015521
0.50046411153992
0.523918173267626
0.514242833109081
0.512570427594868
0.506057491422299
0.518474576954037
0.499563011798807
0.509190981208175
0.491591551631731
0.490434641229663
0.488229514177529
0.486295544729746
0.478553229731835
0.48904507199119
0.472682474085296
0.48478314713916
0.467016529410027
0.477886238887064
0.465338228487169
0.476042566207758
0.463269592340186
0.462899634555213
0.459261215220979
0.466104054829771
0.452773694850156
0.457863265244774
0.455695561894482
0.44913962096106
0.435465338966325
0.455105249564665
0.438577974687635
0.44107536668698
0.450823525372767
0.443210726860885
0.433317573585749
0.43676007274242
0.427595560640886
0.435288688796028
0.42278217995895
0.426076625349101
0.421531888270212
0.424097859328066
0.417165115437043
0.423823811162919
0.410893286401195
0.425072705606763
0.417656867179053
0.422250015013831
0.406192498165943
0.408311871216483
0.395573399142079
0.399703812894987
0.400764394640174
0.396592112389156
0.385427675527909
0.394994866343507
0.392190804248292
0.389383254085757
0.37588636559833
0.394143479173122
0.382714118105679
0.376171372657584
0.377365358085176
0.378633513550168
0.36367284793945
0.372805781523168
0.371857459721067
0.371082791401302
0.367942604842888
0.371732170133568
0.364971398396547
0.367025389531227
0.361448314559773
0.369967709369184
0.354274733926233
0.36050755009202
0.358023457077653
0.353530888678175
0.354443810422076
0.347836499510155
0.34679087226164
0.353615657745591
0.345903168799482
0.342178662016692
0.339494033520197
0.345166228419841
0.335495722635095
0.352320202527542
0.339534225946601
0.340994125493603
0.340911025139408
0.342161765229512
0.324721798553301
0.336243109399372
0.326962628501668
0.320174183541271
0.327504268723818
0.340250180336388
0.322463699030881
0.323944623446966
0.321462795847631
0.322347437306986
0.318178173857852
0.327443991287354
0.314526568741725
0.31045047263926
0.310262695347748
0.319493124697303
0.309619449930001
0.310744260644838
0.313657463942497
0.319762710482669
0.302016931086304
0.313892266989868
0.313894200427125
0.316327740807166
0.30911591277233
0.307201784211867
0.297657193964455
0.308508225463562
0.304859249325532
0.305538974971195
0.304586070870429
0.304721138649754
0.301785705373908
0.300180307837588
0.300627769875339
0.297468226885543
0.296754738080888
0.30427276066465
0.303297677602683
0.301266606230429
0.305763351816816
0.306757358128322
0.301934040088148
0.303095826552459
0.300233516759585
0.303310656382746
0.306898791134704
0.308989415047004
0.305671812637236
0.308353949446654
0.309428876088071
0.3074466408419
0.305766364322074
0.316847727906715
0.312466792258806
0.313961359489729
0.306595583495767
0.312945305514239
0.318258026358219
0.316006082756497
0.314677032466892
0.325301697924208
0.319891581994055
0.323716728131153
0.321726081541979
0.326384842201022
0.316484042405069
0.322749148037772
0.323520823965083
0.32907958844815
0.327488855253693
0.332761465745659
0.324135687065929
0.325450762317489
0.321196203197585
0.332858636772645
0.331227192771953
0.334720700213704
0.337539744592623
0.345758836365235
0.32743619711371
0.340785397393715
0.341130309976503
0.341729703198282
0.347594314307477
0.351814204919267
0.354385209390542
0.350925353793147
0.355841758619293
0.362760601568201
0.359748203665413
0.366316225020322
0.356927158494962
0.370323910781989
0.375152400530324
0.379735575076564
0.374171201342324
0.382902349826179
0.390009145509105
0.389548263717815
0.38606879726786
0.386338203234311
0.388704890773552
0.392208610936357
0.388674888884706
0.404486678092829
0.398533592552989
0.396162735427251
0.401166440599535
0.402128775698455
0.396806176285767
0.399741395360838
0.404231330525404
0.40485797318844
0.408019570142781
0.408765167894182
0.40267747591387
0.401941202443834
0.405744484528625
0.400344939428455
0.391191916759408
0.39812170442748
0.391759429193894
0.398216385150464
0.383726341230531
0.389343650471816
0.390882342309856
0.389362403511829
0.392147209406672
0.394171178817993
0.384048335177507
0.388706863673187
0.38457784097574
0.386873553220946
0.386756941012751
0.38887650805399
0.387654101409488
0.394674768401419
0.38572695697289
0.382600253638217
0.386096828740756
0.380063070851355
0.377549041890807
0.390525195663306
0.379326871935796
0.384845730833143
0.388244219634009
0.391173086513115
0.385782702727291
0.386477264816055
0.378371336443325
0.384497542939807
0.383405080773959
0.383996516585186
0.379450956905332
0.380998180127127
0.380073715023125
0.385208463170493
0.382677158979121
0.376839623853685
0.380799673579112
0.379355512950237
0.368674923323695
0.369035529450391
0.371974863175947
0.379617095596683
0.377000812845577
0.37143985928639
0.370967665914193
0.368885770508727
0.364318139012944
0.367825854716562
0.362454972056453
0.365587555309366
0.358293115398077
0.360219466844137
0.351205184852431
0.354375681109735
0.3607460668097
0.350217362909609
0.348052093610291
0.349817349049114
0.349520174746112
0.347419176601952
0.338166738656144
0.339753087575735
0.332955129139363
0.331557692894276
0.328710863860301
0.32840463380137
0.31790297723272
0.318959954682118
0.313936247571514
0.3121323109533
0.311421425552784
0.311528486710874
0.307004814578266
0.31205003751649
0.306500202149499
0.303569267868302
0.306861043672925
0.312957650757176
0.302292419840148
0.301061116439546
0.293871578767784
0.295014741610669
0.296542813648757
0.296194608025578
0.293149151159242
0.292103797086807
0.288266042026121
0.288144346248782
0.284383743561764
0.285586382814367
0.287555323440825
0.288217569266438
0.28021734075584
0.281676264531351
0.27567492486818
0.276840786903609
0.274910608661728
0.276312369526017
0.273455746645731
0.271662849483536
0.269174469466561
0.274239072991611
0.269717708805875
0.266108956225956
0.268090955183486
0.270825088075033
0.262976050589271
0.265640863256026
0.262384596799717
0.26334060835478
0.257397707620215
0.261565584755215
0.264750205765349
0.261567592191674
0.252761805478463
0.25305719136342
0.25612094754581
0.254363995722065
0.246200978568685
0.247888710467037
0.249373397419657
0.250628630418803
0.244447720577609
0.246352722331049
0.245408219548515
0.241113691298592
0.240018538782187
0.242732889426492
0.239935130720244
0.236689627987671
0.236214398752193
0.240687045156613
0.239431514332531
0.238588695293745
0.238548791037939
0.238009804106831
0.231942888256757
0.232493105824108
0.2366484325684
0.234632113748629
0.229995952027669
0.233669707082345
0.231812185678067
0.231988254881555
0.229324829183947
0.226856228263357
0.227098353195917
0.232746659287711
0.229086301127346
0.226349400942395
0.22607806477306
0.222848871584823
0.223511676416313
0.225656140634422
0.225183359542671
0.226065584496292
0.225091232417862
0.22546434942761
0.223868108486228
0.224191552552683
0.228337881416387
0.221116391161066
0.213619386928282
0.221399532267251
0.217320464153247
0.2159868788914
0.221299019017986
0.222027383892593
0.220829922460802
0.220072076148082
0.21453490274726
0.215768794188721
0.216261165002798
0.217436362840911
0.212049052643009
0.219188245694969
0.21044159742955
0.214238519070018
0.21199583007758
0.215317900367081
0.213718579658541
0.214816647257751
0.207812024481602
0.210008712013171
0.213369526080724
0.210952038542713
0.207925265255524
0.208258033455835
0.209285710022154
0.211401161039713
0.20680331725521
0.208997824101638
0.204356490665524
0.207636993761157
0.21105413268886
0.207471807745369
0.202724265090383
0.204279500213194
0.210474107737572
0.209369026581755
0.205636305180342
0.203258117067314
0.204090590067553
0.206640993283851
0.205049142009806
0.202044366594745
0.200838323877458
0.20089256515934
0.208149033450707
0.19974676079647
0.201270607833741
0.205023847138349
0.203223543934182
0.208856484800989
0.203288417262924
0.201998363294407
0.199353979088863
0.204414185903498
0.201227466513488
0.207686308805503
0.202983720562898
0.198763676760094
0.202041188690127
0.201500829582287
0.199261765836909
0.199972631163747
0.200593726141334
0.196872828517938
0.196604396107927
0.197283506333459
0.195505551107465
0.198884413242081
0.195777586690752
0.196772798065823
0.194847748780487
0.199292272413183
0.194188238564716
0.192316947025914
0.19044337472539
0.193557476934918
0.192253347397211
0.192388426850102
0.187543560505163
0.192125295736782
0.191167430283441
0.188393734308631
0.191314801182706
0.188665175017461
0.185869163941772
0.185344627895317
0.185757721331604
0.186795287257133
0.184993225786989
0.1863126629111
0.183083264045759
0.184248318226511
0.181641543503242
0.184156530987733
0.185305218429262
0.186438469982675
0.180726012843586
0.182039086732551
0.184511866726118
0.188192489399803
0.180526578484977
0.183113422554077
0.183486143256916
0.183009222819389
0.179543672912315
0.177347393269193
0.183081717091895
0.181178311712085
0.181996182848309
0.182004248570559
0.174771344800704
0.176660257769325
0.18229034273139
0.179201818835205
0.175124874786971
0.176342871824393
0.178693279991588
0.177267615724977
0.176204639466301
0.172740561528852
0.172363001575424
0.170309601799477
0.171460480444095
0.166540953136547
0.170336235756483
0.175500556515725
0.176510342050488
0.172100152503154
0.165144669131655
0.170935855704074
0.169292930604137
0.164392003900093
0.163360327390221
0.164865479298325
0.166566033355281
0.169423527470089
0.160791800526384
0.16144627000851
0.164712173542496
0.164879228408687
0.161527206384393
0.160742810656776
0.160712120921132
0.16149004699427
0.157850816801798
0.163159334319697
0.16126225446056
0.158894578567206
0.156291170902871
0.156409660311785
0.152655254790583
0.155351416303601
0.155708904953994
0.156433184444769
0.156411615569972
0.155678503491225
0.155048695355214
0.155375685666173
0.153676452147003
0.15636593699357
0.15548499274427
0.153308294524131
0.150709395697399
0.154122883054596
0.151527606278447
0.156461538627951
0.151539300621479
0.155369350436404
0.151181018342901
0.152048969677574
0.153681737117217
0.149455425716383
0.152716984300559
0.150012768392087
0.147774456911687
0.147998463002892
0.151416173739468
0.151052817852694
0.152245282149749
0.146797835413972
0.147701614121962
0.14905812857762
0.145866266187374
0.144529360908668
0.149799860438691
0.143515085564663
0.142020104028693
0.142903109458819
0.147502197309778
0.145084859328674
0.141986007222199
0.142924068686267
0.147955424474024
0.14500904068128
0.139203410717004
0.141708779351619
0.142898402953086
0.141207497932882
0.138449924482676
0.140351538794351
0.140159929777418
0.139540780644385
0.140337865145263
0.139552951286204
0.141094091048547
0.139647196927385
0.139781045660708
0.139131226302006
0.142073490028847
0.141175513446515
0.137189051496087
0.140406964708974
0.135443452369159
0.134469886081926
0.13681519160444
0.138132178233021
0.133786632771835
0.135603067877192
0.13609612293832
0.134738492273161
0.131432251547083
0.137335427075441
0.136892670705639
0.134774739600114
0.136355874256965
0.136279617053391
0.135906971981389
0.138443802653088
0.136885613620064
0.135517031832061
0.137408664702437
0.136552149164084
0.136872656443261
0.13150916415562
0.133799463793905
0.132350865537951
0.134550563861417
0.136179838059656
0.133470902756459
0.134427098306268
0.1370711377526
0.132176118828737
0.13088257950839
0.131492272989425
0.13212844577791
0.133265493392676
0.131922816579458
0.129059288141429
0.12943018320478
0.130549997333227
0.128053029345474
0.131886159856016
0.13107875449544
0.130955915075459
0.128128812173679
0.128013056537336
0.130317852392676
0.126143660428804
0.127047260934964
0.127860168390135
0.128578073614214
0.126201125501275
0.12351899828879
0.124960045882626
0.126609987488874
0.127083219796056
0.125140781471906
0.12106390534441
0.123122797653312
0.124446637010816
0.12812971481918
0.127922104830891
0.126417409128399
0.123345860229444
0.122161260899676
0.124913107308781
0.125711243738112
0.121959676333323
0.119317075353791
0.12146431735705
0.119512076189225
0.120797926546241
0.121256473139708
0.121725336962034
0.122495895823055
0.120848460344659
0.124227937186927
0.123865250656173
0.11954388835687
0.120996141157356
0.122194640418909
0.123599275450464
0.119124919481585
0.12457939963312
0.120024051580303
0.126213909951753
0.119989249367173
0.1211505398559
0.12013640100369
0.120471391567596
0.11902488367929
0.11997862080585
0.119416749422607
0.120323511256478
0.119088775520741
0.114497052611773
0.117131903930769
0.11468096096431
0.117762141230999
0.117199193945927
0.116021716864119
0.116683684331003
0.113241245341087
0.112447041040064
0.115584027012459
0.112980647156316
0.112001766094019
0.110992326988353
0.108743135097703
0.111585609139768
0.110597547583044
0.111588802768186
0.111966932595001
0.109028525261165
0.111823332721089
0.110915901428958
0.111433046257005
0.108689746567906
0.106686055332501
0.106136791975749
0.108432196796073
0.105858028480591
0.106957501539451
0.106980559037443
0.109242713950545
0.107298895873466
0.107738183002811
0.105057479752571
0.105130947170376
0.10215644778245
0.105363013352145
0.102206037837411
0.10501441260213
0.104974064309231
0.102526305407953
0.105966044555572
0.107355687439876
0.104894411355547
0.103112000658361
0.104953530431845
0.101466693540886
0.101923975923925
0.100088192864807
0.100371659170165
0.100660885068835
0.103029830761041
0.0995410326851139
0.0998180104403594
0.0993199962256876
0.100876054904982
0.100155758585329
0.0996639425356896
0.098743740418163
0.100796197690544
0.0974622758759986
0.0967598169588691
0.0962353419230725
0.0976510521243196
0.0952578867909429
0.095212163491144
0.09667861291472
0.095175330069583
0.0929270118325512
0.0953629541464878
0.0942486384882395
0.096417985887889
0.0939125375024426
0.0923684052680329
0.0968709636492967
0.0956817102848885
0.0930418015063629
0.0920103226118692
0.0909722460190524
0.0897565467325741
0.0891689505282534
0.0919989098050061
0.0938451187010907
0.0902229807699315
0.0885405763333577
0.0919289402374225
0.0932673372024573
0.0893663044907264
0.0881111308910114
0.0917952123258452
0.0895438690045493
0.0890543914623793
0.088676676327509
0.0896162519061601
0.0919120903514611
0.0883623185153994
0.0892456214245693
0.0903493233448557
0.0891342350459954
0.0887969416533506
0.0896498411252666
0.0892054844735247
0.0907553373554237
0.0882787497120752
0.0903634461217676
0.0891080114034254
0.090087885138351
0.0919620938313028
0.0929990799319275
0.093604014440583
0.0931093738784207
0.0916157907567673
0.0937890282455935
0.0901275664899465
0.0906900439104183
0.0874802153404076
0.0916731167314309
0.0951891051380443
0.0966985497458708
0.0989593701278133
0.0958827161920879
0.0946877466471252
0.0871756867790182
0.0897142781904638
0.0945912534686549
0.0874431936391923
0.0828223046179746
0.08912838984845
0.0902374335224732
0.0829416542560886
0.0908879005821631
0.0863834291273114
0.0925318365292151
0.0899037508754782
0.0918675764222692
0.0883680837605414
0.0881940610828524
0.0858780074169977
0.0917858593048178
0.0862814862751956
0.0857395285064581
0.0830284935208054
0.078535401801273
0.0829640548478257
0.0834697184635581
0.0850183027793856
0.0853538598113284
0.0831925906672054
0.0790334645089052
0.0802221484857133
0.0802365386760616
0.0796919177729403
0.0782330267597729
0.081739974676874
0.0830342397281973
0.0868632332595832
0.0856000749195732
0.082991924567767
0.0878075366296076
0.0805427625898609
0.0800583989122324
0.0850924000219899
0.0898514082111958
0.0875996399767135
0.0894089951576933
0.0844985004611421
0.080551002042986
0.0924087359869999
0.0942200659989881
0.0840193080530746
0.0775691608826093
0.092695799758303
0.0889701655130191
0.085583919886316
0.0842534262124723
0.0928529168530173
0.079622467015303
0.0874698888420642
0.0817488116589305
0.0867323090822909
0.0810076025993405
0.0924191023674497
0.0822388570200733
0.0841010825817094
0.0874006202445926
0.0835986170495901
0.0820435883735826
0.0800926595182347
0.0856500928725864
0.0805576272444038
0.0816336222619199
0.0802761327101955
0.0796304260095768
0.0812619253065558
0.074188879633736
0.0799690060592091
0.0785470841322995
0.0784280128476376
0.0761340164146947
0.0770769034538697
0.0796843373331308
0.0774638013299689
0.0763470294826504
0.0757737824971969
0.0778926507858579
0.075134451520214
0.0751322656134511
0.0754200586913604
0.0723978568205117
0.0743334076689882
0.0730004519871166
0.0739198868060583
0.07672374456015
0.074209393416883
0.0770503774290321
0.0775268102515768
0.074992810179771
0.0764235740569154
0.0762527369410851
0.077257860126349
0.0775047910122165
0.0779452364987771
0.0758634766808432
0.074780727392143
0.077822399095084
0.0765388618069059
0.0747147431485796
0.0735374345551503
0.0769810711504164
0.0749230121967287
0.0762415442831559
0.0750797450745295
0.075831493338767
0.0750537054085462
0.0762958158960109
0.0763066274184566
0.0777090319408626
0.0770110843028605
0.0778598847538614
0.0780702427659528
0.0758101528100395
0.0783844357882882
0.0744897051304156
0.0754564491724064
0.076812114748507
0.0752069245650375
0.0751545356379408
0.0770746620703325
0.0787741463609502
0.0749574647066229
0.0744817382813459
0.0724249635583532
0.0771048174357775
0.0735048036716764
0.07385291671622
0.0755512994795521
0.0770513152525243
0.0748637955750639
0.0738604761400785
0.0750875811475719
0.074472425080883
0.074987989972527
0.075800517536072
0.0735453223285442
0.0752574192108458
0.0727478597749864
0.0767281444278087
0.0744428195030961
0.0745692507998136
0.0748453776593626
0.0769869926682834
0.0775956478525886
0.0756718884867864
0.0770001818850383
0.0782996201417839
0.075463916383989
0.0754423327996971
0.0751115452454221
0.0776095825318448
0.0768801695623521
0.0750991203317094
0.0770259210495547
0.0775955966163513
0.0746987785434838
0.0756360756074887
0.0781288803977295
0.0770816996452697
0.0752142018337633
0.0744786286583892
0.0762381531129693
0.078953295851461
0.0769489375702924
0.0783079960306682
0.0779579898980717
0.0782104431442582
0.0765085370993029
0.0768610384387193
0.0772000755282954
0.0790717352628004
0.0793278325124291
0.0805916895332823
0.0789153588568728
0.0791830697803855
0.0806844967751769
0.0801431539741516
0.076191214271944
0.0796837760433724
0.0801817073790503
0.0793710937164639
0.0784246045131613
0.0794919082301618
0.0791520198597962
0.0766882332875418
0.0781362597393047
0.0809066230829415
0.0787018063822594
0.0805370901235133
0.0775692592863294
0.0776274245881393
0.0779803146214254
0.0802804316662622
0.0799045908888946
0.082031027882651
0.0799050274643167
0.0784183768558329
0.0810170156051571
0.0833937369150518
0.0794229567410444
0.0792258212461689
0.0789549847832658
0.0828132345396578
0.0801879346336027
0.0808908174868418
0.0792073433234831
0.0807502950276526
0.0809973084697036
0.0808882194592097
0.0810613782602763
0.0799840857666097
0.0797039662844249
0.0796205667555487
0.0834145089563472
0.0826607384877521
0.0816456500925308
0.0827172568605822
0.0838951138375198
0.0862782235379399
0.0813044342380426
0.0807952536009738
0.0826839448047004
0.0826791274923115
0.0834959447360172
0.0832681525872683
0.082713657779298
0.0823372339855038
0.0827830331609163
0.0828359623411456
0.0828406561385265
0.0826881278651685
0.0797020354538357
0.0811392610384014
0.0820352938711926
0.082475789093152
0.0831798733598871
0.0820187702656951
0.0801044496796879
0.0830234253963417
0.0808540868839915
0.0841958938055283
0.0825039855228405
0.0812028447247748
0.081939583576605
0.0817054312869574
0.0814253557926425
0.0799016189862957
0.0780226770260157
0.0792608244181554
0.0806603194960715
0.0820849481933127
0.0770990230845399
0.0804958202411597
0.0805139925067373
0.0806433415171722
0.0778375507938901
0.0794204451838583
0.0780658865661093
0.0807211875474711
0.077860848705587
0.0774121265587462
0.077788690574529
0.0768941459125652
0.0795390032530948
0.0814366556526424
0.0796866181614382
0.076893748264397
0.0775898361190501
0.082383874007907
0.0763955619401044
0.0795661664999139
0.0784633670061654
0.0790618848157661
0.0778391163875774
0.0774664034955764
0.0761865589657049
0.0779020360094378
0.076956307554232
0.0780227528279259
0.0765959031625125
0.0790182676258332
0.077602690361918
0.0775052443492263
0.0762076243048455
0.0800608808273003
0.0770505143562173
0.0777591016106085
0.0767038661995718
0.0765014644219722
0.0765340395553227
0.0789365501386311
0.0754274865779322
0.075314307512217
0.0791186456679
0.0771447355818676
0.0784785588630307
0.0801215711264271
0.0750414151557682
0.0774028834996465
0.0762318000573787
0.0749509616982184
0.0764635538561717
0.0777022590165443
0.0760991980765101
0.0753109572513035
0.076651079425326
0.0754077810275184
0.0774794384469846
0.0766978042345286
0.0749652479423899
0.0762506607810385
0.0740950021211144
0.0765353344113406
0.075290475745149
0.0754608216294056
0.0742740417584585
0.0768767760226729
0.0781077476107628
0.077171836961154
0.0752738177996169
0.0753376157791682
0.074069745713036
0.0749844051945801
0.0723815320805468
0.0747094677832515
0.0707027161389036
0.072267228444982
0.0731211332399257
0.0744468756864837
0.0734352355953817
0.0754891219369061
0.0733843994134367
0.0727221850210296
0.0719166446591549
0.0745346229830329
0.0723385201513889
0.0739718575335552
0.0720280842209982
0.0729374922776364
0.0711414509806175
0.0752066249562893
0.0694262334068365
0.0765567491223878
0.0765158311210504
0.0735122565934946
0.0711269952539684
0.0696675513165442
0.0703106287323257
0.0709191285355963
0.0724149919711318
0.072328647244489
0.0676360117544607
0.069638534551726
0.0679079493086224
0.068604122134768
0.070197751656067
0.0720875932074404
0.0694530485380447
0.0682026680467556
0.0700660936155039
0.0701417520427002
0.0666837312403263
0.0682915435356145
0.0677682377333168
0.0678954871728429
0.0652153404486051
0.0670511627632145
0.0685219301327892
0.0664260791711688
0.0745752481263098
0.0674363403516964
0.0676381701077116
0.0667177135066816
0.0653893161724339
0.0647834242197027
0.0637911878421664
0.0630095170312097
0.0624233821263902
0.0647791608671443
0.0652160905190645
0.0631761008005006
0.0634425906111354
0.0643049204920383
0.0615556897610333
0.0615435670840888
0.0607691898256895
0.064806506873954
0.0617525609930525
0.0622815801833728
0.0616427144629955
0.0644753254914907
0.0620143638886704
0.0633869570183017
0.0606323560237976
0.0592672330849864
0.0659085809763532
0.073656845519622
0.0614693609347378
0.0635035401690741
0.0604060079695703
0.0666025018478529
0.0607962493283705
0.0626922852158145
0.0611920082709988
0.0616397038332616
0.0579471723188526
0.0657486127121677
0.0608099322710859
0.0631532902630541
0.0585492162354491
0.0604705326183757
0.0588380512811096
0.0599679187778411
0.0561845722543217
0.0602385090247521
0.0584434135069252
0.0615397550923164
0.0586356574160981
0.0613257640926283
0.059981830449511
0.0594971741587409
0.0576987658686241
0.0688035518290949
0.0612560048639662
0.0597857489699425
0.0558078392400657
0.061367047072232
0.0597264037109072
0.0584514183987819
0.0568546988727287
0.0572900780891739
0.055674783610796
0.0576001861856356
0.0553564325310071
0.0560627967602834
0.0569653357919486
0.0579156311427205
0.0565770030199822
0.0598939084182048
0.0552952657323306
0.0564128289792854
0.053346087008197
0.0568028564710343
0.0565718301792544
0.0568288982552437
0.0587189023628372
0.057054368300694
0.0556891663288753
0.0609289754984689
0.0780621705722716
0.0581960283275097
0.0606512487132434
0.0542476134169157
0.0566155173974719
0.0544962029425701
0.054623061504951
0.0542654990267866
0.0542821856090511
0.054585961231373
0.0559538176452626
0.0554526448342411
0.0560136101335871
0.0554767770357484
0.056604590837866
0.0554722175937755
0.0567108980863486
0.053457547634687
0.0558499022112213
0.0518695513979697
0.0592783211823238
0.0720128285979775
0.0611528512417916
0.0547901686026291
0.0590172274941939
0.0499684624240766
0.0796840241523229
0.0601084827237396
0.0539304594590403
0.0567965568699324
0.0541715623768843
0.0560875092873304
0.0506503264448672
0.0533260823465233
0.0543812975639658
0.0632752829514584
0.0538500821334523
0.0617583110038432
0.0548390364373192
0.0552884658074442
0.0508299168434683
0.0541629068249588
0.0492244152939216
0.0521350955853282
0.051349041401841
0.0489765168801675
0.0506078467848442
0.0509833830698864
0.0525027134738481
0.0526794167359839
0.056141288703754
0.0574209685986202
0.0534011815478333
0.0526609629415322
0.0502284334664679
0.0505915963787356
0.0540206726313135
0.0751574448063882
0.0475834374836525
0.0561601498849366
0.0485249763695962
0.0547625811471492
0.0496446479071718
0.0539139147360565
0.0511218645748674
0.0539882378154706
0.0494027119775308
0.0535109334559248
0.0509231883465164
0.0535746709296818
0.0487756359922135
0.0504147861440744
0.05201874839808
0.0537303468386598
0.0504698764922686
0.0509305493499371
0.0547360177037263
0.0498944542778679
0.0649141625504993
0.0773820008828089
0.0666977830151146
0.0662666844534157
0.0534702855853633
0.0533909700879878
0.0484569309909878
0.0543503311753708
0.0469821622536135
0.0597072916927418
0.0482263772370414
0.0568149150845795
0.0478786718896055
0.0530228106922364
0.0463265514426526
0.0530629382538826
0.0473589578730012
0.0564240203804272
0.0437836512481127
0.0574298853437707
0.0445737329480104
0.0552447534261675
0.0421378424936212
0.0689354966362615
0.0471823748827116
0.0619514544431333
0.0397574856271167
0.0915587310768784
0.0784854882989428
0.0506318307445015
0.0619899524174357
0.0456361870955996
0.0542542789186551
0.045644010307035
0.0496767090437128
0.0549291239409467
0.0510826531255628
0.0488064944448533
0.0501717989081229
0.0510724480327296
0.0532656733107215
0.0465423470764851
0.0590631748720025
0.0927762688090178
0.0575812562710428
0.0578326961215851
0.0488696629349216
0.0574652562061288
0.083709867024304
0.0506854413087802
0.0607953234881454
0.0512722643465741
0.0508544572218111
0.052416416399624
0.0525871013667287
0.051171772643848
0.0582718320875333
0.0551342744244596
0.0470705343823884
0.0556488580169322
0.0437026733364291
0.0586997567141869
0.0537357047228702
0.0648396757552087
0.067888627186529
0.0486609204750686
0.0592406858259915
0.0544779937863353
0.0485783353864392
0.0553498073234546
0.0530302632586096
0.0526723837329327
0.0577923716779932
0.0726851991486377
0.0554512691236533
0.073376690782231
0.0675908469116667
0.0505618632096692
0.0562525805805759
0.0612865567664849
0.0643139536731632
0.0480565573957892
0.0623542900693427
0.0991080878414275
0.0584124644247876
0.091264364251064
0.0443704524814917
0.0684585943053236
0.0437246295234507
0.0613205427375144
0.0424591305079847
0.0831790510369076
0.0487751840982437
0.0648383111483667
0.0477115145412345
0.0693594085666298
0.0698094850487128
0.0610754266829498
0.0585358576127033
0.054738916001829
0.0553075270778609
0.0735512697789244
0.0622854483929652
0.0497115961094803
0.0972655029549338
0.0890623052340572
0.0855675891598994
0.0699460455354897
0.0467739563622095
0.109839555802401
0.0599896302588925
0.0643846434137665
0.0532266580889462
0.0606943771813223
0.0545524116502283
0.0624706197450146
0.0978160644062233
0.0684469814104853
0.0579419808038807
0.0744237874770678
0.055282080905356
0.0964730776018134
0.0690656884083137
0.0681548903734861
0.0572962514667462
0.0727832710635752
0.0495142667994556
0.13272574040947
0.0844732175321082
0.076963126994712
0.105441568988824
0.0816999380211518
0.0905381804444984
0.070953021220176
0.0746651325501928
0.0832934472039475
0.0986689631651055
0.0746464497000034
0.0641708299619418
0.0916517853671686
0.116768485855589
0.0658778499286684
0.0893644380379977
0.072978631840265
0.0750486424516999
0.123386164794773
0.147975073679149
0.105619647428113
0.0909311500547263
0.0781214935081866
0.117237668155543
0.0810016809866871
0.0824683713759796
0.0799188338613875
0.0803635423265059
0.0853769888192243
0.081486052289668
0.0978945949362666
0.0836179338233132
0.0897119426030603
0.090047028509506
0.0854122492257853
0.125025367808305
0.134705549828124
0.152633169332036
0.0895875387484694
0.151483582133841
0.116819254246727
0.109946959001052
0.0982963902567869
0.0979826438973787
0.112015049328623
0.101024898449107
0.104110871330876
0.0982039541094261
0.12855727078914
0.12987736131762
0.115555809900894
0.149092786129471
0.0986431872544858
0.132919998172005
0.0882926367562133
0.351348763179309
0.128415218200966
0.146483989758544
0.12774798219437
0.134278377198048
0.224369563306169
0.132802175597396
0.132782941445899
0.132959371824327
0.129202912712152
0.144501286076022
0.149387982543712
0.154465417725557
0.160544786002603
0.158318760039875
0.147246508646376
0.181702236856108
0.26414040838329
0.227624616443468
0.194690252975439
0.162112894887974
0.200773866087541
0.194793656891931
0.173793178143416
0.180849873972114
0.184699987020407
0.184372266692747
0.27780896189261
0.184810166266389
0.214934380412161
0.185915127902322
0.257817751747713
0.179188361660818
0.293531347895307
0.246298312130354
0.226864208362741
0.226301587996952
0.22375117536349
0.238443318229023
0.221871707774976
0.281582886312237
0.257655385729487
0.24366450276573
0.247906470539208
0.24264547038849
0.254498461457937
0.245377128732961
0.268805709914974
0.252931227650109
0.330587891449616
0.303650280574638
0.477991356288277
0.303873998405668
0.268589229916451
0.277567706133053
0.263085025570145
0.331141534604713
0.292399992624265
0.323262317125405
0.31023493116384
0.267403850045484
0.282943992238925
0.267340368272025
0.286474436851408
0.262064743177382
0.291324101852569
0.255156985469098
0.307308222899397
0.26895407633592
0.319039645797838
0.369948124230916
0.268207106662896
0.272905351672243
0.264354724935733
0.262444917842649
0.253714857800369
0.267806671612865
0.26403811205352
0.294907746147648
0.239259112921351
0.266761014033858
0.236987660038895
0.291256369398237
0.27941231472835
0.240696787725578
0.245859848652549
0.231137886457415
0.246814860187336
0.228700109709555
0.243725926970823
0.311200036826296
0.21975512312403
0.227840196827263
0.215946275765017
0.216135866932597
0.210181759004994
0.20802857562896
0.212214722997837
0.218435968917716
0.196941729693136
0.216551219102344
0.197988110400905
0.197973323017489
0.19301425114547
0.214332096104968
0.200479792109844
0.200160729451789
0.1949961550067
0.193363043429965
0.193297790398884
0.186047335430277
0.191692144133626
0.185059475276039
0.186977196064537
0.189498366311697
0.175644672615629
0.181490363534759
0.175578551620107
0.1782150714533
0.178742655163652
0.175840618537548
0.174563920674161
0.17697001409924
0.178831931158726
0.171339837681756
0.17390406427933
0.169898078690138
0.17131436493624
0.164197135365459
0.172714785146666
0.160222821516669
0.185303558566852
0.150034419019561
0.237588309148892
0.194309613468836
0.161201023658903
0.176342003522674
0.153512032286402
0.173934238191504
0.148702936481375
0.224944249827057
0.18923769825441
0.165719533835278
0.162364170422623
0.157222180005502
0.173417408494451
0.180179794770622
0.143414540845444
0.176222334810562
0.137004289893361
0.23225890063485
0.240233017942875
0.233015975713504
0.26910892907703
0.178199809972346
0.161434236011996
0.170147103793246
0.223414603057356
0.147154792141416
0.169117195270106
0.140009810060631
0.202800623575377
0.178827016823275
0.150484497027627
0.157000264548911
0.144493261222816
0.178201873821442
0.198708279830435
0.162323037236868
0.182275351750878
0.210023170593718
0.168182062140082
0.221265571026697
0.239327797755335
0.189870493382785
0.145182033128768
0.152935308037258
0.152920420326976
0.156358031022748
0.222604377669323
0.156328628999108
0.172762336498604
0.147160588119534
0.141941285853602
0.156211712207397
0.165375753155775
0.170774953672648
0.141519928883102
0.209886407684137
0.128535948124177
0.177878734595165
0.164934214490721
0.202859280400993
0.210807340047337
0.162048569719468
0.136897156845161
0.180482901765381
0.202024776225102
0.15024310525686
0.171596476899209
0.135143763639746
0.143920464623944
0.175723031538024
0.135959571204616
0.160239467181722
0.171199827537688
0.171117059760218
0.22076255520654
0.210012168866325
0.210153279841964
0.158807353000328
0.130062719895889
0.143624334258265
0.138063866009966
0.149379971863805
0.127588998250528
0.178181124898429
0.160305022628199
0.127651819650481
0.209950009447375
0.150377330648341
0.145907022483543
0.150103741213975
0.144915731934481
0.158907440044224
0.18516834812253
0.210347418962184
0.175246460038467
0.167764285955513
0.195199035857639
0.158182016661295
0.172549185700556
0.159124301533855
0.174358237788991
0.165583372682914
0.195054709629929
0.178294587281187
0.186469844303894
0.187249153087805
0.192822689610956
0.211885820306068
0.247084024393954
0.184065689587149
0.263921601713434
0.221196482226501
0.280854726682731
0.237119823229912
0.223469773941344
0.227893469175344
0.227033335567543
0.236854520550216
0.236895675258286
0.246887616870735
0.298820401273816
0.239868067170253
0.263414120563916
0.244855444963725
0.270200298078836
0.2558798842129
0.312604578006231
0.283531866898625
0.361330837094987
0.341682743201842
0.29409959864921
0.293966462448925
0.268731260358744
0.293387942535614
0.281903446998593
0.276374308151161
0.278797078563128
0.278525063070747
0.315222505448878
0.281074312330379
0.284976860809604
0.281799783433198
0.281117770365586
0.288956289728162
0.294095347381395
0.293095716743298
0.289901011848169
0.298056820626242
0.300290528587855
0.288804008727374
0.398864120099437
0.319140621006368
0.310423489830195
0.311549291956416
0.316221000316277
0.314973234134956
0.309057135984778
0.334038155441037
0.327928975357218
0.320872058758555
0.324123885899245
0.312744538994359
0.324041876095007
0.328796662302213
0.363903568368967
0.313924522480256
0.342409147308125
0.316230943890346
0.372447998126449
0.39542491375764
0.342667701359086
0.374201469046834
0.337147400109513
0.344947346728541
0.334184056085852
0.339915272575646
0.340072085763518
0.345188574497877
0.337312515854779
0.344532173871641
0.336841363013976
0.335676152145266
0.330887710069011
0.335221909206458
0.364035680520486
0.336346318980252
0.332737436037837
0.331382541509398
0.336241415025246
0.327446948317303
0.360341780230188
0.350661768274637
0.336815693152868
0.335328336549468
0.334617784073331
0.355997417807535
0.344708677766497
0.323309474798768
0.326363453302858
0.322452723909422
0.329097096863699
0.323317117469039
0.333575472088815
0.368186965243763
0.33973275515637
0.340422254594584
0.329285734959397
0.33865159969108
0.338331987221777
0.345660760963185
0.343075949630552
0.361506867133365
0.355744287869487
0.361321275098185
0.357858711107649
0.362830875860704
0.373964111243411
0.377706747901742
0.38243046641448
0.371929164094309
0.370069939438643
0.364412816846981
0.366722793165372
0.377943763952013
0.364217871639584
0.36162289585541
0.363373758510073
0.361862589212687
0.362833051574764
0.397152422875282
0.362327088120781
0.379067422611271
0.360749635511908
0.349802824621253
0.356922596016625
0.351587992114171
0.34883702214195
0.350540783409888
0.353997489147291
0.34114340217642
0.342464150983207
0.342273154267786
0.340475067144846
0.340789766847889
0.339956233913763
0.338499189943172
0.34238458813853
0.341045588332811
0.339555164840635
0.33360640234744
0.332379251334682
0.33541677430074
0.330571721976588
0.347097068958648
0.359571437503012
0.358047732217399
0.341467200724017
0.342492408102566
0.345282800817789
0.333394886530666
0.335192437468581
0.333940565026693
0.335692409829848
0.329876568030775
0.335405939734604
0.329854212193515
0.331832419876087
0.329827819061814
0.330209355654529
0.325156667629731
0.325612922962607
0.326310009316507
0.326661185449271
0.324029450831829
0.328601382948225
0.322053436826158
0.329533903801443
0.329113079210244
0.328420297188736
0.326863417277743
0.320346576273116
0.321820038710864
0.321461000901478
0.326563009724571
0.31859233428166
0.314272338053128
0.31808528487052
0.317577964140428
0.321183952049907
0.320894760978406
0.318400527557226
0.313847856656333
0.313394130153748
0.316735950084751
0.308135125727213
0.308178996630897
0.309462519622812
0.306473648408398
0.301210148774598
0.29711369704063
0.300488401691667
0.292889557295295
0.293241423914848
0.289914416810917
0.289006062048507
0.286760755157853
0.282666818194216
0.28330990039529
0.277241387454972
0.277764524901382
0.279701430723485
0.274500631760763
0.273798309207638
0.275871740182716
0.274149622629247
0.269816567179648
0.267649318743814
0.271843576347414
0.270352472028498
0.267099231533595
0.269398193770661
0.26906705332214
0.268231968245808
0.269812446768003
0.271937127827268
0.272522173934792
0.271486328505019
0.275088146180094
0.275528906105607
0.275280375637956
0.276512603663244
0.277455837330276
0.279317857397627
0.282358100924072
0.281670049711509
0.282371084101685
0.281138204487224
0.283091414143429
0.286994199555609
0.287705634819734
0.286600333603549
0.284127166702149
0.288391927573703
0.287646967999547
0.290368349598025
0.286989670227547
0.28379789974323
0.282488742636759
0.286817030962565
0.287044840445333
0.284584111756524
0.284643680365709
0.285177961235705
0.284544490500202
0.281379566558874
0.279597101197257
0.283865125016981
0.283087769304197
0.282019195749011
0.282113373687812
0.278311509223932
0.279688777817978
0.27663661475223
0.275757062540483
0.27660319630699
0.275191630047596
0.276195261489827
0.274199747007523
0.275240178054165
0.274951831795833
0.274058722940819
0.269872988727198
0.269485572150639
0.268470952100607
0.266519330044269
0.265500633717878
0.267385328155049
0.267536283351953
0.262403300349468
0.260906320624944
0.261532471296015
0.258818564378136
0.258864265951818
0.256898650074864
0.255405141802508
0.254091640666536
0.252568011075245
0.251981006859241
0.250415975564635
0.247691626901588
0.247458140109227
0.248644276606291
0.247265648554705
0.245284294348166
0.243426007150244
0.242207554913136
0.243399271164092
0.242089311733875
0.242278732927668
0.241325613719855
0.240272506030662
0.23863204070539
0.240418579251884
0.241022795634444
0.239475784498123
0.236016202601817
0.234313714770304
0.231942989913921
0.231910439236173
0.231528786522545
0.229626488815396
0.223662506651418
0.219707857141455
0.21894904736855
0.215687934902416
0.211010973574924
0.207803040550858
0.206385145808641
0.203796173125359
0.204457574982571
0.205926776561973
0.203572172756162
0.205019290174892
0.205993852086039
0.208487208107012
0.213920592178037
0.217581796211675
0.220242087445653
0.226154922494112
0.234373372430736
0.241964880673362
0.250724199588783
0.26088993189888
0.26920030178043
0.274856244740425
0.287178762292251
0.298909052142789
0.306133569490756
0.317950361048123
0.32963855880135
0.339992919888665
0.350950651603102
0.36740907632493
0.378980820534063
0.390611934957071
0.409150452603122
0.422915614743351
0.432792745101686
0.444809437298488
0.460190838490684
0.468877509192649
0.48146792531919
0.495453686993126
0.503909954393404
0.513859400777178
0.515214753646342
0.519220648321423
0.525683219144891
0.531544092782277
0.528302583743607
0.533412328820933
0.532853156180877
0.52815084561685
0.534768024933078
0.529744769343123
0.521092094682514
0.520509603664536
0.516707068176105
0.512849903690758
0.510407440109985
0.50747004455327
0.50446665956727
0.503194643813179
0.503553081211729
0.508788100245163
0.50905336559175
0.505977202483991
0.507019904549625
0.508791918425176
0.511334669235796
0.517309246783685
0.516788939354718
0.525842030342545
0.528730989560956
0.534006332287708
0.542124477173172
0.547457914492406
0.556020711673615
0.562633376113245
0.569998826470368
0.57598256652049
0.580455731447062
0.58227717968609
0.590013039700944
0.595784610456156
0.599310571319016
0.596788560072411
0.598035869602861
0.598828361933254
0.596136281651207
0.597646677562461
0.601405906085521
0.599919667317206
0.601198916923343
0.603155551298136
0.601142617375459
0.607000208315704
0.612430942715344
0.607420893372139
0.619128076972411
0.626470457933044
0.629258905100139
0.636012680787782
0.643762144258387
0.648844461695985
0.656251791573152
0.662964483226354
0.665844954575816
0.673893338397755
0.677887010709615
0.687699916355235
0.70286688797001
0.713804682860262
0.718862940109605
0.726822770064868
0.746371278044259
0.765857461058352
0.770352653592642
0.79168015651831
0.80633711771635
0.822795563099251
0.857378166184247
0.879350546390129
0.898624997199774
0.895346340324917
0.914646836913927
0.937715836038357
0.954241722881136
0.956926709593716
0.946349381173123
0.971472700732022
0.984530344023177
0.988504499579512
0.993580170184216
0.995675160632178
0.994507122757501
0.989382733431826
0.995584485458404
1.00307380641022
0.993719887416366
0.989793580990113
0.989809961551866
0.991512322071138
0.981838347660754
1.0036216534786
1.01463662944013
0.996924597064448
1.02035379875064
1.04140575136846
1.0556908759711
1.03515038071105
1.04247158309081
1.05932216705872
1.07430415330348
1.08296014528587
1.10304859483601
1.12700010199828
1.11989466155012
1.12628714474263
1.13640509774652
1.13177054503208
1.17179604933559
1.17382733923043
1.16301388039893
1.17746050539117
1.19979895026051
1.20819005205555
1.20011386693428
1.22074765856157
1.26325060076221
1.26512834803276
1.28853301496592
1.37258381948518
1.41959845078175
1.35089102850611
1.34758132701778
1.35742765878794
1.36245568783765
1.35208954724582
1.36675184757076
1.3658630647071
1.42386939496771
1.47564671424704
1.40835390973297
1.44048311375695
1.50379956997466
1.47522601676542
1.50072996237303
1.49260811162638
1.44289957760507
1.4631295970193
1.43407756588588
1.44759671766
1.50790468822803
1.44676529046792
1.41950110662625
1.44107833788152
1.42658476300682
1.37347682659109
1.33414011705401
1.32839570240398
1.30770129576525
1.26307593732912
1.24577850710389
1.22323893332474
1.19516404367394
1.20265960583475
1.17898896512865
1.15471682794578
1.15288235035877
1.14374008852295
1.13484920689104
1.12490700079464
1.11146784373631
1.0924094705286
1.10207090859285
1.08497660241628
1.07226158996061
1.04447931348409
1.03041281348682
1.03646051367269
1.04230928840415
1.02365379351745
0.978854441839349
0.967568798117097
0.965933054673008
0.923289020938509
0.907316000900618
0.87572462409647
0.849714703160581
0.837449692189914
0.790108807024422
0.764686481123503
0.742348613859221
0.706096421427196
0.674664736465074
0.646927278706504
0.616233074446679
0.584334573626741
0.5590381988973
0.529945476162751
0.507000950119773
0.484293170388006
0.466232405391577
0.449051425063492
0.430712374122681
0.417501487672659
0.407062248704709
0.397493843250042
0.384623921249292
0.383039831976373
0.374872857388271
0.363568741066791
0.356455349792566
0.35607865353637
0.354239881320402
0.351219148779594
0.350106715498459
0.345928896373941
0.347700324163034
0.348877001195106
0.344622516102622
0.347923657326886
0.347987748633259
0.345370849591198
0.35081474013637
0.356580078010308
0.353025906253153
0.354909226451241
0.355415575756135
0.353151832129644
0.355710575012824
0.36213898792981
0.358006589007871
0.359749919627112
0.3634329546407
0.357725064798772
0.362125212854584
0.363243595202593
0.361926377143747
0.356375538963529
0.356454641897921
0.361367271554873
0.35658558402331
0.359846495877493
0.365313692831414
0.361806180072752
0.357236465375615
0.357719326385258
0.363233424288258
0.362403765383253
0.362351556667566
0.365877723469862
0.365079532502148
0.361040106265483
0.35952423842233
0.358004192641907
0.362795908639446
0.368356897098702
0.361900738011715
0.34923527296978
0.354860662527706
0.345587318534955
0.348770503202265
0.34467482921249
0.344964554299856
0.346543482893671
0.349725870823409
0.35407461737718
0.350240868991856
0.351354683230296
0.357778854114032
0.356011044950682
0.360719115212262
0.369973673330697
0.365524103898875
0.380310099002037
0.384322208451408
0.386164728386273
0.394549393088014
0.388467132982946
0.401256901222061
0.409895405420388
0.398723195421768
0.399765849606929
0.398062576592188
0.396704368850526
0.394808481917634
0.385103728158076
0.382093312660371
0.387844094513244
0.378741993491007
0.370852051931176
0.37204418781551
0.368481193587006
0.357500972503349
0.363310940837362
0.36219584266538
0.359405627370287
0.360191871338724
0.362898193977935
0.362072643914878
0.364877762133426
0.359226818054645
0.366716561556935
0.367576205996601
0.358356694502269
0.358941876977558
0.359307864159643
0.356675124611599
0.351193425972203
0.354735591933495
0.355954146046717
0.353931091623524
0.349456807942752
0.352120137146203
0.35583928244433
0.356592250806179
0.352870992864575
0.351989692399771
0.350104520543568
0.355806566507591
0.347880340626761
0.350264213022782
0.350880313465557
0.351026018143733
0.348332398339978
0.345075390980593
0.350610523412938
0.347419901157069
0.336928006798487
0.337911641454339
0.338994322250909
0.337058751218643
0.33216275441907
0.340869924994433
0.34643065048784
0.338758210259872
0.341055999152349
0.328536619352286
0.331207887591986
0.334210549991171
0.333334811438576
0.330133228509585
0.313221513173542
0.316334614001663
0.32516013473281
0.327737607461141
0.31458843478224
0.305954652098124
0.30635266573421
0.31544717134294
0.308371784239938
0.311439487363607
0.305524418354388
0.310296950204538
0.320085082378622
0.314891141483877
0.305916839728602
0.306947148808886
0.317575608747575
0.316161089884476
0.308536076174314
0.317053805060706
0.313669701904515
0.311477526483833
0.312689669485115
0.312464563949852
0.330908291972322
0.316649078802848
0.311831126436711
0.325326403417455
0.337871424957216
0.323111347200982
0.326087688500779
0.334146183256659
0.340920699686686
0.338692204283544
0.338292066643642
0.342654850867522
0.344912071341884
0.349230800456875
0.354782537146837
0.346106147204291
0.354188006368121
0.365026453412047
0.375540643466819
0.383570836015874
0.389542485248065
0.399988465855147
0.399573873396581
0.402084494966295
0.417652951960183
0.432310247835085
0.433862152228774
0.433261845639106
0.452026605475175
0.460228644931563
0.459661125171891
0.475976621297701
0.489753744146734
0.469667670654418
0.479482251018953
0.491106291238156
0.476839380234434
0.476812284288954
0.462005215591167
0.478119200142004
0.476806275147486
0.458289173140071
0.4641042200154
0.465185026364252
0.488119488397895
0.480897689717767
0.496194706186426
0.518221857484228
0.486135841391224
0.493753263751167
0.504390606036097
0.496992917916829
0.50242750835728
0.504567581139224
0.469614672221621
0.477199184555066
0.5120893631433
0.479395326910206
0.480796843101512
0.48344642009912
0.486101309095838
0.479040694728241
0.470605157626601
0.457304110532068
0.507952974693064
0.461556373461357
0.489901822895958
0.484854979773729
0.445887322851426
0.414757929690942
0.47289478166232
0.490293372114295
0.481668457055489
0.456201190905406
0.452495056235891
0.486674105787628
0.495261600558012
0.43487768083102
0.473672504958522
0.461475959805133
0.480308381011778
0.46523158381741
0.481331759819297
0.489749146233386
0.484186928832007
0.467646597580578
0.508057667709004
0.494010093902542
0.468880458856828
0.461008838740269
0.500289901219581
0.485401683592721
0.459890547950456
0.506406736532185
0.526605036133184
0.482882596524555
0.543791544043888
0.470682527218303
0.487636170795236
0.542275430208822
0.528270726214552
0.516526588948922
0.545055799161576
0.495647608947613
0.547155468049923
0.526551532706065
0.532485292622097
0.547383936171802
0.541521103879051
0.568569983407571
0.607413747615865
0.523152500378616
0.585926045087604
0.663001569091342
0.641763889405652
0.675290674063641
0.616476133833894
0.531416106487457
0.605491685536076
0.56025893093293
0.64828753687794
0.626778907099244
0.725127441278365
0.629201748378509
0.628508053581012
0.60748215471822
0.549138622869503
0.584181991126619
0.670398820729257
0.629146261982128
0.611923634574247
0.594783962532978
0.581660171928455
0.539054819502258
0.608097095590241
0.507072076466924
0.668930382727414
0.567022881531626
0.701128898768487
0.553803651507232
0.61457475455204
0.6312169337505
0.702478208177042
0.621543746427784
0.585535275941981
0.578916539479542
0.671077043805946
0.635761982381611
0.798363521511579
0.53986448117607
0.633090154400717
0.717618740961423
0.621868491055594
0.696193896467222
0.752771120472345
0.599866818737448
0.669881682495898
1.44071714843046
1.15065056759263
0.558120592076401
0.602681347973632
0.544817320074512
0.810537727316475
0.338202838216154
1.05775323807553
0.529403108677618
0.38316775875497
0.671051907674819
0.715085704804457
0.81440745122158
0.633569745635098
0.605683404320423
0.991736321067682
0.516611760357715
1.29468706616762
0.937126183642442
0.822345104464918
