3596
4000.36533379555
650.420452594757
1
2
2
0.0652718191733492
0.0704055277339272
0.072676872932678
0.0665430036276211
0.0719570196584799
0.0671827277188331
0.0779272547084963
0.0649470410304821
0.0794325494376069
0.0758774667455274
0.0784922562571002
0.069980993454856
0.0737809512436545
0.0678242811266572
0.0789710935012066
0.0682518249992224
0.0730994782944385
0.0777741190211242
0.0837974430325015
0.0632233424317102
0.0705333926012479
0.0678108247492415
0.0717589092415074
0.0655854979902725
0.0694530714291428
0.0703684972861339
0.0773975351860322
0.0672846826701213
0.075626688625082
0.0698593052242658
0.0657928190452837
0.0626301289179202
0.0729117676131227
0.0640400691668702
0.080088440484336
0.066940941483501
0.0746942728882229
0.0625167032113704
0.0698289635868897
0.070895948877042
0.081752001475517
0.072922154985294
0.0877181945754242
0.0696613033612634
0.0752707300006185
0.0673096171405814
0.0721659926435254
0.0632249982877904
0.0619329825264679
0.0705061136006549
0.0710155758893766
0.0675694992464779
0.0877459717190725
0.0818865430658979
0.0832990114293984
0.073680826606868
0.0775564116212079
0.0673336186641924
0.0809390192997349
0.0674669809862488
0.100231441440488
0.0869740603523119
0.0792659368449536
0.0681233255121628
0.0695973868289307
0.0759419838132643
0.0772731920058188
0.0664217184349978
0.0676289450509324
0.0662976843544432
0.067646925856612
0.082808517090074
0.0896869793601996
0.0739324566678111
0.0787200824468861
0.0700952917668938
0.071878052425842
0.0633374243081433
0.0645769956479419
0.0793850579745724
0.0787320123373872
0.0690229945435871
0.0767449505396875
0.0593329874801068
0.0773555932377709
0.0852574320144523
0.0575729932702173
0.0898167759107542
0.0961418035915268
0.0814759686246401
0.065740247366515
0.0643529701534816
0.0710538186446954
0.0671159613023143
0.0635138824118462
0.065150863634083
0.0653600914431051
0.0703580168844847
0.0539290007386818
0.0756122314474158
0.0770725265613094
0.104511153907316
0.110042779081393
0.0554276708929799
0.141832315479626
0.0750182281939955
0.0872164612351753
0.117424706832343
0.0892454759728514
0.0741132190174234
0.0649821160810953
0.0688263147652425
0.078005556936787
0.083558161195822
0.0490202492186001
0.0966369457688637
0.0971712453947776
0.0729686337772113
0.0658673589374916
0.0687345215015939
0.0623461839951576
0.122227549701365
0.102184344966591
0.074393224411422
0.0816248133210512
0.0710022692496301
0.0628398335814566
0.116579019343062
0.0990000946672663
0.0671354417682581
0.0603398845170743
0.069372589043016
0.0525539662229506
0.0696127833463474
0.118685014676368
0.0734191981866007
0.0865468066101793
0.0634445516315138
0.113511245561386
0.118480171864563
0.0905401646770794
0.0678865483800094
0.0492389602926837
0.0819162782990099
0.111867354929627
0.0770380969022087
0.0712559369328383
0.0997482527203452
0.0756944265487889
0.0722966674745622
0.0690374685344181
0.0675766252006318
0.0872413341078316
0.0788864945464324
0.0357338574479665
0.154046546564854
0.10261780799465
0.117083388339814
0.130913430039939
0.0701142928939136
0.0839717134588998
0.0647573940810347
0.0723243680627028
0.0553117159129755
0.0711106973115492
0.0494718308781077
0.0962848355070232
0.0832863808473538
0.071870900255486
0.0767963729944675
0.119694577993329
0.0715429759567123
0.0818200461431708
0.145566288323059
0.0806193825810459
0.0771381975017733
0.104492278422346
0.0900350906297092
0.0612099370396624
0.0829681303299414
0.0887105899862685
0.0650547008741599
0.0731346047359382
0.0564195443227409
0.0802726025969671
0.0881277028200227
0.0715046958487693
0.0697895142077893
0.0691261907266677
0.0529485373034296
0.0983599903745553
0.126455951374505
0.100464212808566
0.0715877355495558
0.0747929643961846
0.0443324450268635
0.129726934484528
0.0906246516730973
0.0722304336726394
0.0593039974118494
0.0659768475067248
0.0645757086668398
0.0580933532727169
0.0657571632347076
0.056431711653596
0.0534532170943384
0.124015581920065
0.0769698280624884
0.0795722781551741
0.0586267392818782
0.0725485611496679
0.0507989954861027
0.142123148328313
0.0837361650736981
0.0817056315895463
0.0628493988767065
0.0694280924199184
0.0813973045542791
0.0900110891070989
0.0679182721360272
0.0724418069854262
0.0597807918368803
0.0712936659403134
0.0568895420195165
0.068651882153258
0.0606567516507362
0.0712272005095724
0.0635554400384946
0.0697248025487188
0.0641622145509447
0.0856167321346535
0.066149415728818
0.0741396959404446
0.0650620172259152
0.0560191781166151
0.0838858182060515
0.0984248457459776
0.0693742385381524
0.0739350981163628
0.061706829029906
0.0668902001940804
0.0607158777501471
0.0710440397692958
0.0628196027057337
0.0697425020187105
0.0662504366249489
0.124941912319608
0.0697940905999556
0.0846628943073257
0.0471157960507396
0.116378528546957
0.0677723374597304
0.0782306439655597
0.0561806976082925
0.0803281929370456
0.0471483484035017
0.0834051063401254
0.0870787421131029
0.0790464185906466
0.0613524684003397
0.0976938876881942
0.0674192738296807
0.0861222711949111
0.0611670227331807
0.0803944634832888
0.150936724371528
0.0777537742716498
0.0757702444988022
0.151141574095253
0.0741271663476343
0.098587921471904
0.0632624200421735
0.0663396948669826
0.19221834839016
0.139317316786422
0.0745283036164958
0.081531416547472
0.0856730265472615
0.0815605241355465
0.0841887615062905
0.0796419396637533
0.111134041638612
0.117803205288759
0.130847791509251
0.130286227658006
0.0691801574822929
0.133498286553539
0.08828258462289
0.0948943880686964
0.0689959707673762
0.0893664239622395
0.0650581382371505
0.102404094877606
0.0884468478313875
0.106740941160675
0.0763376360105866
0.096835064041416
0.107056071030516
0.102797122846478
0.0751224807724402
0.101165666230951
0.0894353455134815
0.0854836973383681
0.0857267241146262
0.0845498510814344
0.0948752992936286
0.0747744759865267
0.0888592108407002
0.146237420651027
0.0862465687016883
0.106609136022104
0.10852954018141
0.0991641593714481
0.0781047199770707
0.0888733609324558
0.0760646564501205
0.0859392613949629
0.0780163349684913
0.0942028775505401
0.116087359904164
0.0950672953185955
0.0878203553802697
0.0843606178431133
0.0730220580327719
0.0872993843462932
0.0880466770713166
0.0923690743423078
0.0764654911323269
0.0898269571960415
0.0702659776657158
0.126515968196404
0.111357851935251
0.076669078524583
0.137074222196055
0.113753963038531
0.096809096865287
0.0915182696202002
0.087105430541605
0.0988042272923725
0.0832613506626736
0.100501831328219
0.0893654281383422
0.107296492235679
0.1160627771564
0.1035333854932
0.097698363761057
0.113380876137125
0.15821480642591
0.17529685834915
0.120974844127059
0.109149347357296
0.0750566736862833
0.181391323258361
0.115205649892015
0.142928732003108
0.1240414799666
0.112655489963707
0.105356949364122
0.104781481537307
0.108224948105586
0.106836945723475
0.111662357826606
0.112971383567607
0.11354033622779
0.113077782208652
0.113225726132063
0.108365764998084
0.121792790738422
0.158399547515832
0.119453884323219
0.123342913613752
0.121026092940809
0.10806449762955
0.162862693012826
0.142557072500704
0.184058904748345
0.158233952365715
0.174373402851822
0.185425874504136
0.137978425012639
0.137355278683858
0.121892179166382
0.137844076143812
0.130736798270984
0.136010038288235
0.136139800455892
0.140509661575581
0.131409386200382
0.133513400909468
0.132024700877089
0.139577114075847
0.139177367386211
0.168282577612606
0.141538793764761
0.16228328063555
0.135939668194678
0.195675060302554
0.202920985281901
0.209634733900785
0.157425343165568
0.178592309699632
0.14827288474007
0.171265408643108
0.142892271664386
0.168106085062926
0.163470729149069
0.172281169903603
0.200822166965747
0.19155510005607
0.199480102504629
0.199303117133195
0.152568562225601
0.21402700830869
0.183448998856454
0.227161209219816
0.215663657590842
0.195124250031666
0.168510117907904
0.235320459649431
0.190450630910603
0.213101152867049
0.20655457337367
0.19338770830283
0.191195934632351
0.203004199469016
0.19359859295869
0.210625622587759
0.207629423630063
0.215765556780327
0.207395347730623
0.219049025375947
0.212802158618447
0.221229577140452
0.226264969350938
0.226081940138684
0.228430271919999
0.245511377682475
0.210414986464623
0.230486745232301
0.208286087570544
0.27725864096896
0.228064593054532
0.280101863052261
0.261922905637323
0.243480875296452
0.229875435830762
0.254268060826799
0.24952096598472
0.256433203069867
0.242004993866904
0.262106768204166
0.240198248130973
0.271522079037188
0.252349986958714
0.265229247690732
0.26778197195377
0.272469634310089
0.252662936692229
0.283166460596755
0.276973284428509
0.301357585432149
0.260740473068623
0.340211046956343
0.297569971867065
0.358984750741299
0.313346356066145
0.317860410643273
0.302832804236539
0.321185796788915
0.303875015320488
0.311805932910609
0.303182444943565
0.33398069088431
0.309562039985854
0.336767418022945
0.316835850896427
0.321215124036924
0.316075753820531
0.359391132908007
0.339427682154
0.371360958477202
0.326053996925486
0.344871542251707
0.328620567367345
0.352414540235023
0.368022918743422
0.388033335979216
0.373005008454025
0.374241706500824
0.346642781165943
0.369036310546639
0.37565642434941
0.384772608658493
0.36634113709477
0.384201300076645
0.364268111183903
0.38751749624341
0.370049603056385
0.39844680465358
0.382634488073298
0.414599094566824
0.401234637886106
0.422272026308528
0.404915341987222
0.425771082220115
0.403669166809754
0.43044665172356
0.4052902807149
0.438540463629808
0.39531174363737
0.43807422581192
0.426690728420893
0.436158967174511
0.417793084499612
0.452528896093769
0.445420255949098
0.472135537975364
0.445541090342221
0.473349435566489
0.450521205377082
0.481953959397769
0.451395622662345
0.511036680450645
0.445053164270676
0.479141872977961
0.457514946619594
0.499864064910491
0.497140907538404
0.518162503552502
0.483888926773307
0.512116318774039
0.494890805279316
0.532828111949854
0.461951094818042
0.545361632534268
0.496959671104538
0.548435544608667
0.492626639428606
0.538526926593285
0.512883045689255
0.550822069247149
0.530459535058224
0.552651732805508
0.543330922693994
0.561053324187519
0.533654995950004
0.540434497209368
0.530531218853039
0.589217448847912
0.521035988940064
0.587492399376586
0.556735279355967
0.630177099982566
0.55168771280937
0.585697034720455
0.560071731480929
0.597842433569106
0.550251610478887
0.595894900019723
0.581230476720323
0.594567008206819
0.579582328254044
0.592919812031321
0.585064038716003
0.622345294706378
0.577264725175363
0.632169970938569
0.609317935924853
0.616993404866587
0.595119165468175
0.660177673874273
0.614307620374634
0.677312598786689
0.609991529815056
0.647888028241709
0.605491111627982
0.641686690221975
0.634267832161433
0.718384950098942
0.68168284074434
0.667533548384219
0.661079972780123
0.688115288363088
0.648923390477756
0.694071799354897
0.690640028520372
0.713403064988003
0.683828948213882
0.714034591106304
0.647305388825081
0.707053218546608
0.657999748992821
0.721866529797777
0.715405669125144
0.727931111328111
0.705961216413533
0.733035995639252
0.702526835079979
0.7193599385811
0.708963938211811
0.721869224899971
0.735165036115175
0.741924569945327
0.719439463174006
0.746845411338554
0.697194864104351
0.715051850035171
0.698740549725434
0.785843608405613
0.73396817982147
0.774046606969969
0.739650269686069
0.774667903315833
0.744644756370875
0.842905643268393
0.762463697421686
0.781496506952281
0.78946383614138
0.782455363091693
0.745601550046982
0.778483014485219
0.7288050662601
0.81076817615988
0.750383329078595
0.84432025318295
0.760560545472097
0.819413920293252
0.752198604881626
0.815370848391421
0.770794506418662
0.83255186262176
0.794182610480631
0.864705444179883
0.784153731085557
0.876366259033411
0.810228497553237
0.820509960863272
0.830092703711118
0.859520296619351
0.796925746178922
0.827837268739878
0.803897483519261
0.868043704137246
0.807580222497814
0.905080408162396
0.816800967412201
0.846448024842983
0.805728446361609
0.889121634752081
0.823524680231421
0.8439949348698
0.835744466324066
0.880835368762577
0.864194029113182
0.931914910912838
0.852458277736748
0.917118235304824
0.842087219830838
0.968509894810048
0.870639521593838
0.894478023633781
0.826973284440908
0.908572284187778
0.886369814053783
0.924135932907933
0.895562656374852
0.930211585790683
0.907110600654832
0.953531782605367
0.895057838193589
0.929409390263989
0.892924184115598
0.8965787133439
0.838986615619874
0.949158410118033
0.869290784157986
0.960528208534834
0.885709847197319
0.926363708486492
0.873297224425054
0.895883671237871
0.904155800376833
0.949719763036963
0.880041892985809
0.977607423156129
0.895639077318023
0.950899699668987
0.881792520346361
0.944380427684449
0.912044910490612
0.953726109487373
0.899971734097315
0.945043567500078
0.884791632533774
0.92556207112462
0.942690077466571
0.873356429932173
0.953953796387557
0.999907716652913
0.973183671047547
1.00631084307853
0.911679900812294
0.961341755938977
0.915326656131599
0.959384550872
0.890593054079909
0.984647710853924
0.934944276050969
0.915064146357517
0.894357281947063
1.01234247817775
0.933750490096223
1.01811615523955
0.964429556623228
0.950018830627924
0.918808511487351
0.993344290833815
0.963023960625648
0.990300732088232
0.917384335458017
0.996983675143396
0.945715758716392
0.968652003660598
1.00142895011135
0.966944276701977
0.922004215912213
1.01255286438774
0.901616724860372
0.988574243812133
1.01708084613798
0.951241455953038
0.965478338538271
0.98950900929353
0.935921310046615
0.998788233613221
0.941656375843496
0.967483749138428
0.947354356346683
1.05615885874177
0.943430264069289
0.952849850659092
0.954452364042392
1.0008197022712
0.932071611973343
0.923833015683948
0.909009012866878
0.93577986683213
0.947427995670773
1.00467782545929
0.948766651721846
0.979311950971488
0.946729012934259
0.942099067487515
0.914335816352444
0.978640818671887
0.892622544950418
0.960274437831879
0.895151563732886
0.943112798602684
0.94154490235589
0.962650675675158
0.949724986300546
0.966684376676927
0.885177745388867
0.982493910749848
0.949578067647857
0.991648853936884
0.952995513112382
0.965006478647273
0.966866170053898
0.964304056725167
0.957285328064216
0.979233138808417
0.954585383796042
0.982689035743555
0.900125923514375
0.958511971505117
0.95431412643065
0.969108082389137
0.91655821463978
0.986138609008793
0.955724685515388
0.92254855201
0.962567900738167
0.989312175459443
0.903916103421532
0.984414879955877
0.921844437998896
0.948564323626325
0.936955376976783
0.957662038635051
0.951902275522507
0.963369044247374
0.914548844486203
0.935876958118542
0.945784893500074
0.927577747303163
0.886541167602979
0.996715904937297
0.942311307875389
0.949964317928302
0.933628042630323
0.951189156872397
0.912319945099233
0.949474768550611
0.917040701272232
0.93472371780999
0.911843083799671
0.937659962157496
0.888992633946788
0.928673559596674
0.900444100128992
0.923399883933903
0.896587482792836
0.952628602587497
0.91955853714853
0.90847805957401
0.941929156688055
0.908173335769101
0.884828820850074
0.911238444416517
0.86103858751772
0.933979960018825
0.896407893961836
0.934394597654885
0.870466017504721
0.918952901319316
0.895301224040278
0.88998234873808
0.85203360408259
0.910586860611922
0.866759962252643
0.877810267541396
0.896363595587743
0.906684618065516
0.861039108113562
0.839876207470003
0.865785901074847
0.886333607480287
0.854142215557936
0.887394528532695
0.842779034713165
0.889590666258407
0.845242062645805
0.86230790178151
0.846349251334913
0.878790856861145
0.844581681828887
0.854896092921898
0.818799134834105
0.871353311275223
0.839878721838174
0.855021468166923
0.850421592702211
0.861283514422532
0.814047668623908
0.855132037234857
0.80266674085398
0.798327889405437
0.814967345562755
0.819477299000995
0.806642295066782
0.843677548325549
0.801862860557738
0.824348571438929
0.79706861810597
0.808552013881163
0.774917571992205
0.79741569484158
0.792493278924114
0.783685761643062
0.796859392581463
0.827799983114979
0.795009464011453
0.80834248575916
0.765352081427986
0.754469549805708
0.758504387014362
0.780590860743448
0.752488159915424
0.745644874012103
0.748312844345572
0.773402392005614
0.727353459872622
0.740234179524731
0.737248498803816
0.754480753806531
0.756201350608845
0.742824182168183
0.728733881319916
0.740956846565845
0.702602908839071
0.726137816337915
0.718907355653036
0.715102092528316
0.703392761209015
0.720143684750954
0.702498649180078
0.71620845882237
0.703816636155077
0.69026910465464
0.667322468958585
0.707841572667618
0.675027365639953
0.685473859085232
0.677395803642969
0.686087273088041
0.671985044712592
0.686844482234334
0.671787997792991
0.685885941270653
0.652913539366104
0.671760287036589
0.653334415516219
0.666645763368222
0.650837001887106
0.663538804393568
0.632569796787157
0.638123241320763
0.629984884700002
0.660264589099453
0.62965037135626
0.616953695204476
0.621824661999003
0.634874538780936
0.609066813516203
0.630986465682974
0.612472009111607
0.600786824844401
0.612321811413149
0.610847597465992
0.588554118634663
0.606466158242153
0.590294341322657
0.592898404752582
0.570979783945062
0.590950685838495
0.571319508152423
0.578069053419751
0.559801049766246
0.570049877163682
0.561247015293387
0.565152433965816
0.558164864033327
0.561237835241487
0.543615590243589
0.551150562659289
0.545227610317624
0.563095315854389
0.542524218045786
0.553493129158536
0.539521286829263
0.544829308537202
0.530968207548471
0.535952755108302
0.528570539474792
0.54112744046103
0.529694220870073
0.526678913034649
0.511651604795024
0.517461927999438
0.508463796452191
0.519934729990328
0.502763867017299
0.514792274759406
0.50310496434421
0.500980143871865
0.488006739907538
0.497606775404106
0.493888349233136
0.496988589860196
0.473161274966619
0.486615341485705
0.486005031364933
0.481728557868761
0.458501759678262
0.479883629667851
0.471180081540532
0.46754959388064
0.465666942023553
0.474830521609597
0.462532064334797
0.467311116313399
0.463923261023149
0.469443262132656
0.452330172649179
0.457804465384157
0.445241729774665
0.446021015099755
0.427986800590396
0.447472607319926
0.441488647227808
0.443606989425262
0.441272179129454
0.435967703428467
0.412427566710448
0.434511344776748
0.421931975316325
0.41720039293245
0.421017341091582
0.421549974379137
0.408171254391696
0.423236177754694
0.40933972645364
0.424914654079005
0.407555723090497
0.411803106640839
0.398652425947826
0.399561088557723
0.398718379173509
0.40122279987257
0.390786564633654
0.397392720615393
0.38496924828447
0.394247060885212
0.386948310196293
0.394277666395025
0.379223575652286
0.371195353801798
0.379300484030429
0.384322338709574
0.376737186849344
0.385621231960486
0.379288208201355
0.371086022278709
0.367629079247132
0.369796658794587
0.367829072186997
0.369334500668294
0.365003558436215
0.370776907960875
0.363674818964948
0.368071026286406
0.352928488343588
0.358614124342782
0.358124877294871
0.364225206841365
0.360329805380024
0.366386222532182
0.353866056462454
0.353520606643073
0.337664911440394
0.348787922343707
0.338825142368128
0.348191586989735
0.342270180507385
0.342414301223538
0.34129559834472
0.346559295960358
0.335329499659058
0.346918562284963
0.336111506366623
0.33264314517961
0.339421460837865
0.341430581388145
0.327138906209489
0.339102650564455
0.328324528472308
0.334896320425418
0.329147913140632
0.332746291382497
0.328024687569225
0.33604999529406
0.326966448696876
0.326410887072902
0.321740858621676
0.324449637867603
0.322323102639572
0.32213790021686
0.321148257822497
0.322443220150084
0.319906420637725
0.320539633580484
0.31347722456481
0.319822902256944
0.323460003566158
0.326513961370825
0.316225529812863
0.323996689268473
0.324199079559271
0.321313352763308
0.323332231576833
0.323231986051074
0.324083545884818
0.328686515601822
0.326011953556957
0.327712028130494
0.328134782654797
0.33189227009185
0.327621495312762
0.330416197915658
0.328643507134563
0.338258157982983
0.330060254679901
0.335348146596294
0.326544197836529
0.328297927423227
0.330610252420923
0.330807515889763
0.327956422589951
0.344259515680663
0.338953652516033
0.342456036993663
0.339914170021539
0.342704983107421
0.335487272336663
0.345272934844309
0.349738395788437
0.350079542359168
0.341464510185387
0.351971074614049
0.344756418335514
0.350766297522393
0.338987723387809
0.35230748967093
0.353515942925442
0.360079932369354
0.360602246044473
0.370931630313108
0.35963932174799
0.369445385741789
0.362501446125157
0.373992566252722
0.37409207354777
0.373501548105004
0.376672335154192
0.391321331391339
0.390788657649572
0.391258581179974
0.386816278962913
0.399596356494324
0.400661438600361
0.397600611939307
0.397125076135749
0.413284898932428
0.410803289361241
0.412477307522283
0.41559462863371
0.4208405763449
0.414038836741364
0.428165725548979
0.426110360793041
0.422083566706786
0.419291798039804
0.434737797451529
0.431451489645615
0.427940118273675
0.433174605147295
0.434674764581592
0.431604786900703
0.438467305413637
0.433864494178735
0.433710941174842
0.436131321913806
0.435338431766958
0.435537447649154
0.435279188053508
0.432620322297356
0.438416224067188
0.427139511350958
0.433543656172416
0.418153286858195
0.429131501398016
0.422292022720113
0.424211870071491
0.417737698858024
0.425538106540256
0.42195732868273
0.425846138517024
0.4157255367574
0.417129321934669
0.428978690164794
0.429780153244083
0.413367403410499
0.422992716002002
0.421403019000283
0.4185829022843
0.411254453978404
0.414465797904867
0.411462303659842
0.419826171940646
0.418894489899482
0.421638280220665
0.414918753580452
0.417418754483888
0.408580480214516
0.408616727256751
0.406667482449516
0.416627601217688
0.407579723472506
0.413787774415286
0.417145422222793
0.43173801003116
0.416592833509263
0.413673575109227
0.404576039204266
0.412552171205327
0.417616914294461
0.412231835346013
0.413955982693599
0.410716809650937
0.40660485547187
0.409095398129529
0.40205491876759
0.408438654311112
0.40260002724485
0.398321313768728
0.392186050104131
0.395949999951339
0.395678512635949
0.398875765238581
0.393536818786133
0.385708053446966
0.385991187228853
0.391520413145952
0.383858198334634
0.377967762153974
0.379533503558256
0.378264701907672
0.368678400505156
0.373668443203722
0.363645804523891
0.364090117346977
0.366125492028076
0.36866536137685
0.354356334245216
0.356620060938
0.349555505836111
0.351839241287135
0.342368015516647
0.343799238418687
0.346755861740435
0.34740995072013
0.336412559371658
0.334408414403524
0.325065264123168
0.329564179553368
0.334642308029657
0.326876125837266
0.326384203372695
0.333170750613024
0.327366947329084
0.328545101821495
0.317663037283564
0.323652704239167
0.322897551389831
0.31721910865165
0.317773897559165
0.320891878935168
0.3092389159481
0.309438525997875
0.308543637687244
0.312884538275754
0.309715621397056
0.309114713398335
0.302825498615732
0.30443881631886
0.30039985211646
0.304191207174345
0.299794226451514
0.301677132722438
0.294000483122704
0.292949372812981
0.289895578977824
0.298778174965304
0.293214814347979
0.292619223535578
0.292845225571074
0.292317376627264
0.281477170412095
0.291149820630138
0.286813306903523
0.286529143259839
0.284563696673159
0.279432663691969
0.28033528097238
0.280898927069856
0.27656084242995
0.276229363517633
0.274397932861503
0.278124181177077
0.269344079533066
0.271202856271208
0.274735263244255
0.278239611530608
0.273549869420729
0.272680691675883
0.268041780461629
0.262018060130352
0.262472193707686
0.264830894003335
0.263751675685
0.262538908422958
0.258063655052495
0.26157660261704
0.265359091025323
0.261921215141165
0.254943516770439
0.258766823856831
0.25154263060492
0.254315597061125
0.252323275442982
0.258953086700917
0.255103706055567
0.255326860237865
0.255207277258477
0.255688103764673
0.256173899514007
0.254975122036304
0.252974421955826
0.252065026607356
0.249789616517661
0.247986364474772
0.248574219042145
0.249254494142564
0.244822669796938
0.250026417019248
0.247379664156594
0.247212508443902
0.243699933949297
0.247478853472194
0.244604963693345
0.245619569813177
0.246492154492714
0.248296239905965
0.238610200685616
0.238522528350358
0.241995904331144
0.243064922679665
0.239093192952989
0.239177175793531
0.240848692874261
0.239849469123169
0.234461342315833
0.237660721372431
0.239000806095047
0.24033400800719
0.232556377547023
0.240146126181378
0.231590961829947
0.238092552726285
0.234738697851625
0.233238884612103
0.230472592947161
0.236272294247702
0.233243887620025
0.233105068331568
0.228002667901475
0.229901225332505
0.232663286543381
0.233056651251008
0.229802326764898
0.235922163153402
0.231587351833244
0.229777393179698
0.225202487490366
0.230926220019511
0.232514255919182
0.228959891967186
0.229243055120358
0.226649013351305
0.228271841981185
0.230298869508123
0.227530227606112
0.22794048005087
0.225909535778205
0.228800306536751
0.227112375164246
0.227595449935464
0.226097159031727
0.223015811779633
0.226468221625664
0.220636484189341
0.226033560556899
0.225229460615936
0.217374481554601
0.226155412879678
0.226722050530929
0.229884277956485
0.222691420368459
0.228509398786229
0.22354532224763
0.22758054748844
0.224432777737807
0.221901676808589
0.218534512090938
0.22143020566962
0.222070646664408
0.218262434755399
0.217971172060519
0.219016144984758
0.218362037475365
0.216665267301249
0.210177891468434
0.217405215925071
0.220481753002776
0.213988947435
0.216332142110599
0.222998414070411
0.214165846697486
0.213188539332099
0.207748656816091
0.215812357363635
0.210285080795644
0.209853337228477
0.2099387052095
0.215336159224612
0.211556426974992
0.209618997362307
0.208064285543052
0.207545829194586
0.210775039497966
0.20920942873524
0.209761752921351
0.209665436523349
0.200297185620704
0.206370470779356
0.20887108013692
0.208793379433494
0.201550562783374
0.204695518415792
0.200875799768114
0.204586210745399
0.205208270440378
0.201198989339974
0.201069697232781
0.207888297431375
0.198107732859024
0.19918128672818
0.203405754207319
0.201155432068651
0.197771227546344
0.199566641958058
0.204560692186267
0.199137088526498
0.196100820331457
0.198973984482457
0.196682382866778
0.199451047607563
0.199441752672467
0.198616972121991
0.196148889722877
0.193096779652018
0.192766114232082
0.195175638162815
0.195716454812075
0.195306868029948
0.191351148049618
0.189239047610079
0.192351496382462
0.188638367736513
0.188152056130394
0.190818529228219
0.193103015231588
0.193283990067564
0.182881671370465
0.187632315584115
0.184682480772432
0.185467673077702
0.18491481826598
0.181187373294265
0.181865371421728
0.183814109442487
0.181635217860483
0.181539918540766
0.18007122915889
0.181327488012023
0.174641718122137
0.177927235351797
0.176612714364178
0.176619519937552
0.171403517824124
0.179826588649647
0.173509330325529
0.17221102619987
0.173834413506816
0.173246142508391
0.169637009908604
0.171367447426313
0.173469310908888
0.173134259967478
0.17205399627755
0.171158797978658
0.167617619878661
0.168927156880379
0.168025481417661
0.171927174665061
0.171424487489558
0.169106220758699
0.167069884995788
0.168000319478211
0.16499629415104
0.17005125032617
0.164977178471781
0.166261323762965
0.162186764683018
0.165003689417892
0.168445579347296
0.164592871539692
0.164307623614098
0.163941606112065
0.164099112611572
0.164206606465629
0.166777432970475
0.165359037144761
0.166972034795375
0.159647510512947
0.161421984884251
0.165871572247744
0.158860123633704
0.154510892875102
0.161736358099691
0.158191602340459
0.160075330397785
0.155754179126662
0.156317432311355
0.156048077778335
0.155693781597716
0.154185377425451
0.157204566278784
0.153904976582576
0.153533102953332
0.155768150024783
0.153231268412594
0.150951816745345
0.150950121812079
0.15336413111355
0.150859472108635
0.151589448253441
0.151110578389219
0.151787437296678
0.150890807716215
0.153054030055134
0.151934556862158
0.148099957756301
0.148716051264025
0.149393687865135
0.144365627423948
0.149629689285066
0.14726932940953
0.146249134714579
0.146730412484572
0.147696973730015
0.146513263942841
0.147781267338415
0.146896637921614
0.147700328614895
0.143576322257302
0.148953508322409
0.14356103344457
0.147074404627807
0.1478003867353
0.147534351772386
0.146451974053389
0.149097770705407
0.146948252345863
0.14660922906118
0.143479891360022
0.145275531623607
0.148402773078624
0.142698136881771
0.142426499865068
0.145826076215991
0.142854693847423
0.144873647463366
0.143965584525064
0.143144810374859
0.144591780728556
0.142688215010331
0.142436301028745
0.141395790193124
0.142744974125011
0.147238356351696
0.137692161978651
0.137656021554346
0.141404802353802
0.139684080406899
0.136147628395415
0.140073573091757
0.139503293681527
0.138567063357439
0.138666226085532
0.13901702262634
0.135189515879325
0.136425320152521
0.140345254800747
0.138353306651829
0.135453458374361
0.136439458394589
0.133035154150498
0.131972988326421
0.133091721871387
0.132891292800143
0.133112728744681
0.134221275151725
0.134529156248648
0.133404891803395
0.134588457929718
0.134135036474237
0.135016702448733
0.132752528197607
0.131768269852968
0.132923762229311
0.132681624679358
0.131569045208581
0.128881285123603
0.132111454267575
0.131115985438737
0.127524209370603
0.130394582505781
0.134406544792459
0.131834918610951
0.132281005593951
0.131288816717402
0.133718145266701
0.130690954285881
0.128494352820444
0.13214804956032
0.133118064601908
0.127023338294247
0.130151783558506
0.126655490400044
0.134213866499258
0.127423682507908
0.129869614275306
0.128478987520604
0.128689267210469
0.126363743021356
0.127388325713027
0.123620181403368
0.127640046471825
0.127000995443131
0.124349564245799
0.122570735323179
0.123395932177009
0.123360456778567
0.121969820316326
0.124798471095706
0.123342907112286
0.120110859505042
0.122004124757251
0.124082549636173
0.120005502466293
0.120100543231091
0.121304936087008
0.118583013283713
0.119265886252037
0.118241352152444
0.119662752638127
0.121128964033095
0.116900641972458
0.115946587812643
0.116789319994944
0.115882140851315
0.114831233383781
0.115044081078929
0.113928903240346
0.11795047497096
0.11487537518302
0.113610228435553
0.114043392649206
0.113682816573394
0.108512779297731
0.113436025917556
0.111936096993183
0.112819201861068
0.109454118926682
0.108765990615135
0.108579543668783
0.111440467447969
0.108513682046128
0.10488183305294
0.110255507773839
0.108468485930281
0.109702986248883
0.109607204235137
0.110383857239734
0.1077716293093
0.108399394807278
0.106972532698814
0.106558553868704
0.10453383724138
0.107292862793793
0.105452874268891
0.104975725127592
0.105057592965717
0.104433605899319
0.102744350939235
0.105349425422038
0.100501354058273
0.101965412419455
0.101039038458289
0.101964043845565
0.0998821334055119
0.102186302326098
0.0970465240930919
0.100528222295829
0.099495214173034
0.0977462898769784
0.0974676221325919
0.0999997283306437
0.0972420543233596
0.0972258196620463
0.098001680531723
0.0958448897438179
0.0971777821845888
0.0973932899587937
0.0944622002960405
0.0949792147177954
0.0936410793615854
0.0946509057179512
0.0915488072668662
0.0940845491472644
0.0932906180184608
0.093377414565054
0.0925404192493331
0.0946275025861453
0.0960189461059438
0.0907535983456342
0.0913278671548136
0.0938692033250705
0.0914677036419309
0.0878875813698471
0.0885304275115082
0.0911674325963345
0.0937267347182273
0.0911563173150784
0.0903996452362996
0.0914709561641932
0.0928453585350178
0.0902202341545999
0.0901701533116011
0.0877814353385326
0.0878802407718347
0.0892068289960329
0.0881535312196213
0.092029801569184
0.0921903021906106
0.0936348046585068
0.0950883595063614
0.0949153873407021
0.0935474657551955
0.0910381526018576
0.0937308347370352
0.092829117640114
0.0885242989034838
0.0878986520117031
0.0886842398563118
0.0940416108571307
0.0914208000127202
0.101442638992569
0.0985265059903971
0.0916682002442931
0.0813419799929808
0.0863458717489566
0.0955233547867658
0.0929680772362393
0.0833691078520814
0.0869132137212312
0.0905416792461682
0.0876379708265713
0.0855766014154486
0.0841807906407289
0.0904491958577652
0.0902798226546015
0.0884132087511718
0.0868256583169615
0.0847051633954622
0.0881394676529079
0.086116039540381
0.0879868304063549
0.0871058630435211
0.0833800437674884
0.0762965153815383
0.0859094516226082
0.0808521791446516
0.0824692909231519
0.0807511671144256
0.0813143776941168
0.0767021772929339
0.0785869381230941
0.078423192214372
0.0795472198199759
0.0719447388456304
0.0800112666878248
0.0766476899567428
0.0833061726172428
0.0790402755355274
0.0852088812440057
0.0832506555088846
0.0810600664303002
0.0717095626970688
0.0830416324858856
0.0799600617249807
0.0895745281482484
0.0784749782744955
0.0836671128760095
0.0735815715439183
0.0972108175802998
0.0892258561973693
0.0853201289156023
0.0733658455290277
0.0908172618317933
0.0836083286695662
0.0849434074486239
0.0800013666534084
0.0895024001819612
0.0803658018976117
0.0835694065993008
0.0858122605647351
0.0788046882445348
0.0793472899856265
0.0876396890483627
0.0819039443544543
0.0786343049715054
0.0850354927506622
0.0793068822657559
0.0805042994735059
0.0770179258693173
0.0816505315095661
0.0770361024067658
0.0775347797219146
0.0790797385175488
0.0783579655608563
0.0755706379420757
0.0732106020704418
0.0758615602954275
0.0750804996776663
0.0733483642527494
0.0731787310807804
0.0724044462250414
0.0758443440425299
0.0711773197139131
0.0730373367684315
0.0738045248003607
0.0737290938093576
0.0718644876328702
0.0709244462056932
0.0716198206812542
0.0711009157121175
0.0702486127165007
0.0710012908541554
0.0694329981417869
0.0704901274596322
0.0720168555987842
0.0732837104005616
0.0734117148340776
0.0731000787768556
0.072925860738201
0.0707789963716744
0.0734832423171172
0.0728354482397371
0.0713161542641621
0.0715048443642365
0.0706509960111955
0.0709630226839663
0.0716557454164804
0.0723477356686552
0.070769474326489
0.0743732131246287
0.071310813207511
0.0729727826306302
0.0727655904248444
0.0703899415643552
0.0713563136656145
0.0738310017753957
0.0722589794159202
0.0739840882624991
0.072980598646951
0.0736962123603879
0.072068751307731
0.0715201034961209
0.0735348595431164
0.0708761757018934
0.0702684270567638
0.0732142776783658
0.0710669831958017
0.07187333095013
0.0723583267972943
0.0757147233077517
0.0712631327893817
0.0726275746625655
0.070677792968828
0.0727452456558173
0.068381638502131
0.0691638474469068
0.072169144486377
0.0715895406168007
0.0693118296482419
0.0723630883927906
0.0720208492395736
0.070648721468735
0.0697872440441128
0.072657598701759
0.0696092218117663
0.0711704754207411
0.0679204892479109
0.071801299659773
0.0709565322555209
0.0724756422539697
0.0717511670233183
0.0705871851157746
0.0711808701818892
0.0702509852241072
0.0711448087400848
0.071515223334761
0.0727298482711427
0.0713957718590806
0.0711450348446659
0.0734300455448066
0.0729156801439158
0.0707114046943743
0.0731259527764161
0.0729686597571762
0.0729805827689167
0.0725965494442925
0.0734794084325659
0.071917799397197
0.0710993394352882
0.0730680643204998
0.0712259044786466
0.0752399011404087
0.0716812622741874
0.0725844901764012
0.0771746029192925
0.0748629785256642
0.0730290360949021
0.0722245971351164
0.074188242737741
0.0752980498711189
0.0751633064833027
0.0740713415094347
0.0735704440158875
0.0763610115136778
0.0747749539153726
0.0741902501398524
0.0760574139966239
0.0764599420723178
0.0739611585853004
0.0724066465040085
0.0750937616153113
0.0758686645467106
0.0735035941493821
0.0715526905658607
0.0754403245169612
0.0751290428469211
0.0745238453631186
0.0754512986715185
0.0730917733092101
0.0744752896484811
0.0741093163157699
0.0751087854760154
0.0751544565783207
0.077028610619845
0.0743652586759949
0.0760417484905247
0.0755916764338282
0.0775573008716491
0.0792207212132764
0.0774144300410737
0.0746450603346101
0.0774559683094301
0.0768843248314624
0.0779999233317695
0.0772017547002999
0.0764961051836923
0.0784916015047381
0.0773115113662492
0.0776540414099154
0.0784681500060506
0.0759382582096646
0.0764976402078753
0.0774715333584867
0.0798284978013003
0.0773763238625863
0.0786802449577898
0.0786241897676073
0.0796608844884373
0.0800238134322016
0.0786943254115249
0.0791720960053262
0.0804261108571643
0.07998565187169
0.081066263932356
0.0813402704442308
0.0801854913582678
0.0798117914680744
0.0778371453077431
0.0791430644444864
0.0800602389957625
0.0778964879832812
0.0790789145461907
0.0786039129110967
0.0792419059938798
0.0783540080280007
0.0796140270666366
0.075567504717441
0.0782566507374026
0.0761619965636924
0.0783079279157902
0.0788991106495677
0.0760882775901272
0.0757298450632846
0.0777790985835576
0.0786668248672405
0.0748828948779027
0.0740440257201553
0.0763266955639632
0.0767857576202378
0.0768372866327928
0.0746551976540273
0.0785603121404888
0.0725983183926882
0.0749566169885855
0.0732492830330441
0.0747982307001093
0.0732935473485949
0.0756487139940021
0.0746576396475224
0.0748602385823315
0.0728946957381328
0.0735954733836222
0.0743615523173734
0.0745437256755957
0.0742906507781021
0.0737201075904004
0.0738803262047809
0.0751865686976487
0.0745820033505239
0.0744447235799105
0.074591142611609
0.0757806833980662
0.0745653061241363
0.0718936285996362
0.0736185032376508
0.0739409459044044
0.0727033330386324
0.0739408920434507
0.074499882230259
0.074523578361085
0.0721233391264421
0.0705291208430117
0.0736039169591296
0.0759763693791789
0.0739872681922263
0.0739235664915277
0.073324443581855
0.0718534603677354
0.0716276047449518
0.0742011512563162
0.0730476048436366
0.0732493114829522
0.0739511638302715
0.0725284237876177
0.0745727009927513
0.0729107186196979
0.0717955432254831
0.0713344257824519
0.0706435304716578
0.0754310421292857
0.0720015269993476
0.0745309727317726
0.0692713830281213
0.0733847552170748
0.0709733856746756
0.0738154291317031
0.0717238935418795
0.0720699497230245
0.0721798729110628
0.0706737799237659
0.0700253254774141
0.0727105935412293
0.0712541838804197
0.0711124394109919
0.0713077650384803
0.0749377864647944
0.0743059352263463
0.0721481531691533
0.0696674465939146
0.0708884918756404
0.0694307568483894
0.0720467650510972
0.0689052749704315
0.0685373189403885
0.0677488408495086
0.0718864245321653
0.0691530407074001
0.068775370316265
0.0679822907853785
0.0702591218229693
0.0709950359309145
0.0687662176649987
0.0675294793360644
0.0695255097151053
0.0673219573195216
0.0703317458817743
0.068054716501231
0.0674572186560254
0.069315850768031
0.0720495658241006
0.0664668404489362
0.0718753104621499
0.0701242522907043
0.0688608853527814
0.0664663127457627
0.0690804753638939
0.0667154309917983
0.0663904284030578
0.068277896643954
0.0656447733323069
0.0664757049216778
0.0660443499966494
0.0650122644853961
0.0631519401256724
0.0659582938828232
0.0676678021469321
0.0638521077238823
0.0662820102386087
0.0625101776838571
0.0662983689224707
0.0621394721785967
0.0632713928099558
0.063767979739204
0.063654349343613
0.0626777072551176
0.062650458662695
0.0637988113224223
0.0614623079258638
0.0693672347805483
0.0631636790484822
0.0626725736965914
0.0608617257138874
0.0590582422852183
0.0602877635970351
0.0579019052479195
0.0588283480522525
0.0583978698498574
0.0589381746958708
0.0594657259403622
0.0574464482189112
0.0579391386187395
0.0595066905040428
0.0578786889677216
0.0571375980500245
0.0566856084668804
0.0575992250471697
0.0571416892981384
0.0573538594046389
0.0554552029423577
0.0594749176481336
0.0555273652166606
0.0577974796701715
0.0576556812994112
0.0562815517675357
0.0632677303432729
0.0674489206957039
0.0584688358948933
0.0602770240376862
0.0570474147945193
0.0608842258366457
0.0539862096335122
0.0585503115851764
0.0552051100501335
0.0559158976989072
0.0547303804743988
0.0573603257560638
0.0548325849129317
0.0563965916520284
0.0547721282284997
0.0591105992195934
0.0524657017807446
0.0560800538959044
0.0518692651254427
0.0550580740265502
0.0529495509793547
0.0574738363449731
0.0541227669812085
0.0555118985062415
0.0549753193926212
0.053430255405808
0.0530274588493
0.0638385355357576
0.0581861543349732
0.0555786096750624
0.0544549457906743
0.0576399413951719
0.0538206148507442
0.0543057154608445
0.0535940397093161
0.0531983709584929
0.0521500183740655
0.0528890090005136
0.0511691196726979
0.0530731667712846
0.0525867670891186
0.0522980150718139
0.0529245870577006
0.0552766900004488
0.0534235618051281
0.0536092491359594
0.049809859207095
0.0517892181289034
0.0516841513811091
0.0546519306051836
0.0537362929051618
0.0562493034208677
0.0491208009830156
0.0576821071292328
0.0722548427560095
0.0562405210962206
0.0576083184626478
0.0510441927248876
0.0536088571538915
0.0522808675910475
0.0527442576577069
0.049541478693258
0.0516308211867694
0.0509738495378944
0.052744248973247
0.0501493510214418
0.0529079701475123
0.0518060250216566
0.0510227982577372
0.0500951471311592
0.0519156342287539
0.0513643678817841
0.0520626608718628
0.0490952830215516
0.0588040296110902
0.0670252767199908
0.0580560326945182
0.0537006172236836
0.0538914052898036
0.0504885063884216
0.0776015912823402
0.0565278127885269
0.0545212910201829
0.0552227900412453
0.0520834735229535
0.0512641746179336
0.0499906004775016
0.0491991689664702
0.0530261379723432
0.0584577360529541
0.0517401068924978
0.0571745407708084
0.0478479196769498
0.0549476180459218
0.0497639111050982
0.0496764385457188
0.0483655834794418
0.0504222131730383
0.0473790137212221
0.0475558987798306
0.0513610635757881
0.0502697571963771
0.0500640035379671
0.0490436815837179
0.0520000917456357
0.0539759416972783
0.0485040566058536
0.0495357521261953
0.0475227762695468
0.0458381124261103
0.0525342278161963
0.0732693649536775
0.0464823380809175
0.05424399306954
0.0468855717123112
0.0523053478168911
0.0482334425792768
0.0520222630962612
0.0485719394236413
0.0529425238056891
0.046159888826261
0.0528708779567997
0.050616941150795
0.0522460517706544
0.0468768231030184
0.0497493985609661
0.0486091376525529
0.0516813775889798
0.0479521796541202
0.0500749006445928
0.054844418882636
0.0482897468989121
0.0685762522350565
0.074787705416372
0.0668784759708079
0.0640719340541619
0.0535784917552175
0.0513461932734999
0.0500908705655671
0.051643610049247
0.0475360808231378
0.056825577814693
0.0473632334238995
0.0547252126097195
0.0487174810859468
0.0524302544657417
0.0460398482201058
0.0536554715850499
0.045612684732179
0.0561156652097024
0.043945214281952
0.0544877698990527
0.0443447292880187
0.0570977819775582
0.0402823266054282
0.0664440414293208
0.0483102562937797
0.0625912772997774
0.0409386949832893
0.0927079125243329
0.0773227912145514
0.0520994471074224
0.0593738578554335
0.0468826395845389
0.0530607299105967
0.0471483502943983
0.0494469607699775
0.0567880458262912
0.0502180330084519
0.0491314961389751
0.0519396364498077
0.0505757086309351
0.0516650921939416
0.0474234504635645
0.0641853404195788
0.0900066522091013
0.0580269611232462
0.0578441106498856
0.0488872614712326
0.0613024115435723
0.085543490434874
0.051207670883897
0.0616544065561685
0.0498050517397118
0.0506452389765427
0.0533648227308839
0.0541546259501319
0.0513459967706943
0.0584743323593841
0.0569138720187299
0.0493990185600419
0.0568320116769258
0.0456989090096398
0.0596883416634508
0.0548982017555374
0.0659391992638085
0.0674410121183304
0.0508856831369484
0.0611338108060015
0.058188143290618
0.0524009809526508
0.057575209341643
0.0547778420182969
0.0543887680724266
0.0610985502759167
0.0755297322696169
0.0576280521471625
0.0789478079631192
0.0679046600169698
0.0538498994009909
0.0621691749792525
0.064415611940084
0.0674142579835634
0.0506426528799642
0.0653227940533499
0.103537860555064
0.0649902217466533
0.0928748444897031
0.0471173115759813
0.0697869761870464
0.0463564893489748
0.064324721325982
0.045148091620571
0.0880708213639508
0.0512492827218529
0.0709194173604903
0.049472262182117
0.0742055005818743
0.0733534819702511
0.0655570825515304
0.061359274535548
0.0580257487929839
0.0592544209596254
0.0768146505046126
0.0650816531558421
0.0564301768890414
0.100887328109447
0.0914287006571079
0.0936651300103005
0.0721930303252541
0.0557326589053553
0.117163526674175
0.0626127186841162
0.0719657440258041
0.0567529545308203
0.064332014026763
0.0595287268735308
0.0683458489331791
0.106147288286102
0.0716310817224736
0.0652238363706441
0.0790821355467379
0.0586107765292753
0.104960108294758
0.0756812984416173
0.072352529114878
0.0629434782159637
0.0779821000288052
0.0565571233579221
0.145447908667148
0.0890495958577488
0.0867992387591017
0.107962400781601
0.0888731967688042
0.0986686167300652
0.0800254074051198
0.0814508611524403
0.0901446393379479
0.103195186340936
0.082260272397719
0.0701122465267552
0.0970466258279939
0.120788601675539
0.0732177408281055
0.0995304190672429
0.0813699887605265
0.0856878340996988
0.137580281847622
0.158259607765399
0.117401948610942
0.097290607438587
0.0886041250165513
0.125658393075125
0.0946588933898743
0.0943077981392468
0.0904474707467273
0.0911738979022099
0.0947372468021341
0.0903495142355341
0.110127775167635
0.0985359320079045
0.101329281258449
0.0993436267578331
0.0989515315579124
0.13379154527225
0.150075158368698
0.162229766004949
0.104871315374818
0.16529741305048
0.128291394502157
0.121417188698818
0.112730696720683
0.110008248355072
0.12484420516314
0.115412815363108
0.115653189684635
0.10836584317528
0.144777365584143
0.141256922530492
0.13046044034326
0.159098425383
0.112587410457375
0.142651108819756
0.102601559676343
0.366316238582842
0.134614955469642
0.156730447980992
0.139498322791499
0.147883891751501
0.222092529928747
0.146205579101607
0.138344788323119
0.138442937846529
0.131447289605729
0.148554504616302
0.153089300669918
0.156028430512858
0.163038461036933
0.160247960467813
0.142267753463504
0.1846666874556
0.260474942039559
0.229908985921964
0.194176658984556
0.161350094911802
0.198035764976306
0.192963639104613
0.167716835195857
0.179831738619607
0.175501084406929
0.187813053329114
0.270328535720819
0.178801601355456
0.205453708718029
0.177333896072278
0.251527791452207
0.172321843710658
0.279615524328798
0.227790696715137
0.217983732130864
0.211658743659713
0.209970259903486
0.220429234831006
0.203167028337738
0.270937719844045
0.241900618872133
0.230208106602693
0.230302240197892
0.230068486011533
0.240276057162758
0.23216342834462
0.248744425579277
0.227963009008421
0.311301317623129
0.270553412161944
0.452086328781152
0.283687481335651
0.254242728208922
0.257514508694746
0.24452174756372
0.305907814062841
0.271162123120263
0.312280182603629
0.29204614416137
0.25148500332863
0.262409176613736
0.2460587664314
0.265117952704025
0.24141145591827
0.274028754036448
0.235724140498655
0.298196703297916
0.249801943346216
0.298657302310922
0.354988702177914
0.259741007304854
0.25621338764365
0.245449538229176
0.25220109882216
0.244513593465372
0.247655321305441
0.243497261283819
0.282849474316119
0.22540941927847
0.256687294562436
0.216825915000189
0.260578072157385
0.26418761558123
0.221420101732564
0.236161320551758
0.217304135454071
0.233224487873092
0.207537542501977
0.233983568750169
0.28674895968262
0.210180318675143
0.220808414659321
0.205067594499524
0.20784658840839
0.202546075184981
0.199598197305833
0.203213530841503
0.205703384686573
0.187699577244569
0.205538658816596
0.18660047518333
0.185516740859099
0.180162894688575
0.192979970209906
0.186010218396091
0.183844042928392
0.18040683862667
0.179810474057606
0.177070505176308
0.167523188284065
0.177079266928183
0.173375311100479
0.171369510173936
0.170964065941503
0.163375226397004
0.171897507413303
0.156660174535739
0.165147718271612
0.164645177144176
0.161452134601508
0.157037387260247
0.160104003209756
0.158991197843955
0.155026239009291
0.158494596850602
0.156450686738488
0.1535111168546
0.146076621847797
0.152867850673098
0.142070289729592
0.165217472996172
0.134071673187417
0.234071601342307
0.181786245814313
0.146083489625507
0.159381516242227
0.135200634669319
0.152621728705729
0.129097084240231
0.208707938033119
0.166199055131687
0.150181513231281
0.142657262194791
0.140321474772122
0.155459994481788
0.164363243985395
0.122712445857776
0.152308006925586
0.116304445344673
0.220929827520588
0.226749378181651
0.215966854387592
0.247811981681917
0.158005170021403
0.14335443842102
0.154612212532762
0.196731880349269
0.125023501288815
0.150205379236315
0.120410395333161
0.184776181682465
0.149847902854011
0.130578606292616
0.131718747396852
0.122342537770765
0.157663262015752
0.177580146993569
0.141997809575125
0.165420071951792
0.191024260829644
0.150136010337682
0.208105211453012
0.213032478069824
0.171025065953987
0.129591586285634
0.139974572402281
0.132153626799655
0.135934254523261
0.206621012198832
0.137447381610406
0.157180947595154
0.130126110561786
0.130123567708999
0.14134546678816
0.153173741946636
0.152924432803889
0.130322021045633
0.195425200387586
0.118969982569159
0.165386285212569
0.153728456942531
0.195480230359681
0.200156938703043
0.151375170540622
0.129057334814661
0.17609962303031
0.191639162484214
0.141191303302355
0.163905555360074
0.126398024639748
0.139662574086286
0.172670401388402
0.134993731194335
0.159435951492784
0.17163800669274
0.175858748762147
0.229058579302286
0.216169715860616
0.210990604798062
0.16168214842823
0.134642890204366
0.146470792877072
0.138495118887461
0.157642163514473
0.132778718712587
0.186364903026992
0.164042005375157
0.138023906963528
0.218052334597244
0.156770400692189
0.156876036107283
0.156586804447053
0.15415927065105
0.167550599651564
0.203336016351767
0.219902363787991
0.188338880925906
0.180155667059735
0.204300597762102
0.167981337445515
0.185010188905755
0.175168902012161
0.186492133305117
0.180447604124458
0.206542196846265
0.19348865913017
0.201808280988518
0.201791325662597
0.208498178845247
0.230967067868242
0.266732533237335
0.202888459076113
0.282543028286454
0.242458400154291
0.305726991411772
0.257941618303706
0.245522417704772
0.250253450484236
0.250540094535431
0.261758270923549
0.261834905101327
0.271827484501169
0.325523825657415
0.26885488946316
0.294485345065708
0.274759526852265
0.301837798714357
0.285848528387762
0.35004212283776
0.311774065262962
0.385995153954266
0.372482395036391
0.333703057521116
0.329699753416396
0.304167565769929
0.326493422471722
0.318839210940277
0.310381260509442
0.315071733585655
0.312733399955363
0.346914083506498
0.316331812671039
0.323002841930687
0.315775198576306
0.319955565935393
0.321704712879611
0.330611686491994
0.328336117597773
0.331701546141321
0.32953513350719
0.337453037166717
0.317191695969841
0.43796696733377
0.356042317314266
0.348335929592501
0.347139248427245
0.354100538908887
0.352812092957216
0.346547226657077
0.376344089254617
0.366544279038995
0.36118441081017
0.36856407291046
0.356612047337222
0.363946493684568
0.36289340352902
0.405592690768406
0.355119640599705
0.384858812937344
0.357078504931422
0.419771420923774
0.444389474958373
0.384119543386015
0.405646014712133
0.378439765373328
0.385550872835433
0.374299105454747
0.384707122040406
0.379832686596653
0.383104968803322
0.376752138393906
0.381601072130457
0.374123389201572
0.37468316240908
0.37664394195758
0.372356105606997
0.402910840225241
0.37323486577496
0.370924908386519
0.372458643538857
0.375729021880135
0.360669513533404
0.399769772319738
0.389791955907771
0.373285817146341
0.370531301197109
0.364784794799258
0.396571713271903
0.387888353765628
0.356346410279341
0.358343072157457
0.360501951679758
0.36346158005743
0.355767061923542
0.363980541550585
0.400828569147406
0.36905874820324
0.375621964602556
0.366857111919975
0.375288617054915
0.377758907582671
0.383188896504012
0.378727059002384
0.395911086341044
0.398941562811305
0.40293055073972
0.393758637596991
0.402897489680398
0.413517195298442
0.423703843261363
0.429977387975812
0.410479581121969
0.413449638886615
0.413292445186007
0.415758917701917
0.430229916388214
0.415721580451098
0.415755444644895
0.414106191505764
0.410734337361921
0.413330571702621
0.458555818501644
0.417549106989845
0.429759680676413
0.416573804129312
0.409037799484469
0.410057806188469
0.409405161209716
0.409337018889047
0.407921076230646
0.406339297593194
0.400121330665523
0.39870169986101
0.400318383827538
0.399871276386791
0.396467857587584
0.393075101614812
0.395522630387889
0.396160130827473
0.399489758911925
0.392960655415874
0.391694869466826
0.386358503874993
0.387866269992651
0.388383949788887
0.404611400289315
0.409083466130108
0.413084514096297
0.399177923501818
0.397073151048574
0.400058376149823
0.385262228545494
0.39336969375721
0.384614426898603
0.389943605463472
0.387573667437544
0.39330376517927
0.385605315854385
0.387369907928185
0.386171194707649
0.384821842551325
0.38024446221521
0.382018472554039
0.378512686167965
0.3814440893508
0.375009207732057
0.379636886342098
0.374994703680629
0.378500291778319
0.370542215849696
0.37015338450539
0.374370910023874
0.366818834039929
0.367624716088047
0.364381317868608
0.368710932935478
0.364988152784068
0.357694112994081
0.359898792948577
0.361655110951792
0.361242191743041
0.362427208032468
0.359378066353224
0.352689410132861
0.356960199323676
0.358081481663113
0.352963243502958
0.350989653013645
0.353085605718315
0.350309326663781
0.349007565906684
0.34087712737537
0.342233397203671
0.338526299279855
0.337286537874212
0.332221026756127
0.328595981855514
0.328068167636821
0.328588289575291
0.323856836199203
0.317885309591495
0.318869678151611
0.315897668529343
0.312097644346545
0.3103601305401
0.311455544826813
0.309620339684856
0.306218601109735
0.307203868688581
0.308308263625241
0.305599948520617
0.301351672927918
0.305533437153037
0.305573008127044
0.303565676282786
0.306829812672819
0.311037690595786
0.307958987810254
0.308019229864074
0.313544080557192
0.311602298699011
0.311645375195801
0.316214531546526
0.315618728406798
0.313318683418789
0.314948197167121
0.317903310139315
0.321087528635533
0.320408214574165
0.321736852967433
0.322268755099616
0.326434693351779
0.326846236677364
0.32250219749758
0.324936414413896
0.324678881400947
0.326706083886839
0.323618555630551
0.32531804776431
0.321869361458454
0.321543259010565
0.327044428944663
0.324273239144204
0.322596010936752
0.322014604523694
0.323031064169165
0.323906126805905
0.319210585084521
0.321094854133713
0.321383284168959
0.318930965604204
0.318843931923872
0.317639617233105
0.317855060249274
0.316124943062578
0.314021530429471
0.312719037506845
0.314517427220729
0.314155100970096
0.312457083160235
0.31100468751552
0.312086959733751
0.309384365464078
0.307854511936551
0.30848753647286
0.306906931734705
0.3051725103944
0.300794167442112
0.302704837194232
0.303220580148025
0.295302868406575
0.295467761293439
0.295446906243313
0.29215996574476
0.290569665019848
0.287911675660493
0.286425301602626
0.285747300623061
0.283266968813614
0.282704915564286
0.282322877344293
0.280037308857116
0.280740227304634
0.279667392568542
0.277720802459472
0.277010432463573
0.275008125445037
0.274171990217228
0.273547611802593
0.274672785247819
0.274281567423795
0.274866226108706
0.275314687546469
0.274017259679409
0.273602195781391
0.272206232901792
0.272180684890067
0.26966140026542
0.264875359234675
0.265073347879402
0.262491314124742
0.258752222930667
0.258059454712881
0.252616368383568
0.249009068402357
0.247645694048379
0.240393357044973
0.236961567362289
0.236918702416077
0.232820595385674
0.228191415922417
0.226030938500736
0.225187443000841
0.223952714927916
0.22390762427097
0.226073798702461
0.229853468250616
0.230533677424245
0.234293865047281
0.240239764229589
0.246309044514669
0.25146369469816
0.259861079327946
0.26946111009194
0.276656361435006
0.282880829097695
0.292218426980298
0.306830026257999
0.320576725512698
0.328968910579206
0.341188069289888
0.356229950652329
0.370478740517133
0.388178490080196
0.399798953626459
0.417338856397988
0.440940831300351
0.453892492019537
0.471417418751979
0.487151079106048
0.504700036897705
0.522056987965594
0.542947542051837
0.558531426211368
0.56642490270063
0.58370884528105
0.597374719534375
0.607502443945622
0.623857984330001
0.628007217980918
0.623124155253079
0.632735629854324
0.637208970371872
0.63399247215675
0.629561073726139
0.632314536580368
0.631139961057202
0.628088092484169
0.621106349423739
0.610949986162221
0.607529743767926
0.602641394441823
0.598613930562496
0.593261086649932
0.585546509254662
0.582135482769265
0.583037421139331
0.582692723979133
0.575618221947846
0.578972279852923
0.580155335943157
0.581092075173958
0.58540165097288
0.586273580843925
0.589026423604516
0.59435241729079
0.598947751934743
0.607803912191341
0.616092012519448
0.621400089243692
0.630584530357967
0.635044039939604
0.641748599840929
0.644519738482815
0.647357015391006
0.656583931751747
0.658544334736336
0.660130479780106
0.669959933226866
0.672328213218818
0.673814675889323
0.679835362990812
0.680013000498395
0.681287044576073
0.683504002764864
0.682036995957672
0.686139767314216
0.688354828380483
0.688068091339954
0.69306879303351
0.698180402376115
0.700318431670083
0.703988143579304
0.70741754004438
0.714310191958703
0.716258297405154
0.723496065188254
0.7278097355767
0.720861495956142
0.729522600127087
0.730306982198265
0.737910971241597
0.749508850970441
0.756894436594916
0.764932918722683
0.77501817832164
0.795280409399822
0.802070645148616
0.814514147484346
0.844134229099462
0.866020537010856
0.884010003028494
0.910551242748722
0.936472932294387
0.95717397959799
0.978903490334706
1.00727942892603
1.01215255237059
1.02398696075548
1.05280308211658
1.06447607361731
1.06033226293172
1.07044128566765
1.08662964123484
1.07593746286384
1.07951163102582
1.05587869251328
1.0802845629964
1.08845738780906
1.06786813641332
1.06642255850534
1.05894213812259
1.05845579889977
1.07621140478845
1.08646624778046
1.09643305718475
1.10174316396732
1.10214141524694
1.08374355502488
1.11732704962843
1.12588771353519
1.13357934734091
1.11835285865756
1.16646141849428
1.17919893223237
1.15302885660638
1.17831552338711
1.20926223977693
1.21868990294931
1.21503493476128
1.24074068270623
1.25634035619283
1.23592551424797
1.27642602960822
1.26701582092558
1.2770396510142
1.3162533635609
1.33838208561099
1.32568763185814
1.32374521423055
1.35753169740115
1.36134432257337
1.40428672840675
1.46148003574092
1.54023032515118
1.67665023717526
1.56753527396467
1.50328474074921
1.54512198799314
1.59240726564204
1.61504642524201
1.57262851325796
1.5685941781387
1.66804707725105
1.59667299020541
1.70982744412673
1.74051919151435
1.62949089082015
1.76373534591238
1.73913087526034
1.6562701038761
1.71039984541043
1.780570602895
1.85234910892972
1.76646323550637
1.86446565890759
1.75749266894682
1.69785504095048
1.71641723337673
1.70853795898559
1.86126475780065
1.76183417395505
1.69230401607359
1.73038002790237
1.62373020027024
1.58284881015474
1.60246325106944
1.61531539383045
1.61797587612891
1.67173810095485
1.64111135230921
1.60959762326506
1.55670597735099
1.60924539953202
1.63961407497648
1.59095544649243
1.51138725676227
1.49631679280702
1.51451213769392
1.52378700295443
1.51935160231473
1.48483709320656
1.44693483722246
1.46830404047161
1.43918731012716
1.37826576405387
1.36020917050848
1.31487469572209
1.29545223433377
1.29669190473102
1.2301527875082
1.16487616421762
1.12262848195945
1.08634077986975
1.05345357152396
0.998893185389102
0.922507060272319
0.874594471512532
0.820055417696308
0.7865801459295
0.747420595480899
0.698782815396891
0.669698236775143
0.638541780011162
0.607931426584031
0.594293135618651
0.573597507780839
0.550266074983715
0.531193513939602
0.511873389529024
0.497569041036057
0.481911135567063
0.475549211184952
0.465801327573427
0.452253208990287
0.446570535233371
0.439629451758476
0.430402463882001
0.431712146313454
0.429847865985875
0.419528969923655
0.411827806082072
0.413372277612458
0.413344866051533
0.418104099825299
0.417071846407596
0.420281726954896
0.431624301884637
0.432785154759709
0.433400144877852
0.433435040175494
0.441537820571579
0.453331159480987
0.455268171963603
0.45376446269056
0.454742655295365
0.453095382864876
0.456638955269961
0.461214358883712
0.469829399298173
0.470433662386808
0.466337155291344
0.461701504146194
0.463272826371395
0.470546916263069
0.468962029830493
0.471415189781412
0.477543637168751
0.47944369701703
0.470437024888995
0.47049882690209
0.473344432392467
0.469741507102655
0.467504032793343
0.466807311979634
0.470680957155928
0.466305725017827
0.460909952148822
0.468033255341762
0.465262404373944
0.463463837392497
0.460515069152433
0.452109634568497
0.452910331357022
0.440531576275847
0.441440586651065
0.440729619922031
0.441774667210064
0.429770851095383
0.425009553372271
0.433557547473574
0.439763552762452
0.433562277756454
0.430141399980674
0.435729037990666
0.438604332310178
0.445620244607285
0.45187157141128
0.453741955678921
0.458816010063746
0.46173689288125
0.470239161997914
0.47475362215414
0.472660683104271
0.476031577436334
0.477708468270445
0.480029828681179
0.484233152740251
0.477300227664328
0.465313341792092
0.459734952560495
0.45077423522414
0.447995335844028
0.438024508625056
0.434274499093861
0.430535889621276
0.420002850704674
0.415144404451423
0.410683370423566
0.408297732722234
0.414926829942611
0.409931790013579
0.416256524390923
0.425203295035705
0.418360495117571
0.407144301135041
0.420745495972145
0.42271268026037
0.421141533761158
0.416834671805125
0.42155387138308
0.430340808808517
0.417679564770615
0.419303036575351
0.419371886784659
0.420796515576907
0.421792133117487
0.425801848392335
0.437718652015415
0.436724725135083
0.43013758544052
0.440513993610364
0.431604991748062
0.428872487895183
0.425825204273024
0.415621309023819
0.429801146649402
0.441412606605726
0.422730036841563
0.425388439229237
0.424211506307896
0.41906458577771
0.410859073835197
0.414105398148959
0.429186601277413
0.41231893002323
0.413465491765854
0.421203511108507
0.422472550392161
0.420645068896289
0.412043508017683
0.411519973425123
0.401321694217009
0.404701471142031
0.405187271444964
0.399082931461336
0.393147774539147
0.386298779308515
0.386141537117188
0.378139634582677
0.37412430593738
0.369925951108052
0.371747648553051
0.375935113415266
0.372557058691925
0.375601100775906
0.356390701857431
0.357824683675319
0.379204279741425
0.374203471215065
0.370706037123133
0.367419074192737
0.363353715312256
0.369151622103557
0.368299706102505
0.359791190882626
0.362829449883897
0.365363255567064
0.369862325504152
0.371271411750091
0.383129499487906
0.372529027625503
0.371446120372087
0.383835990260755
0.393279955058266
0.385078869341394
0.38264373863622
0.396826322266732
0.407846246309639
0.383228572228732
0.395505972502435
0.400724240427566
0.412834157484859
0.414978831694635
0.408036900615676
0.408958992235177
0.428889968310084
0.429197913723877
0.436634081728855
0.465152957816816
0.455240902335395
0.440383249897676
0.459225644743347
0.490101290537412
0.4908796410031
0.484126690132813
0.494897757943606
0.506537674072922
0.520730458308691
0.524110759668259
0.566747810373368
0.558683526873294
0.541399965104922
0.554926539831531
0.556630651631894
0.561452949136977
0.567407672985469
0.57034057327247
0.548552875262536
0.591145612139698
0.576422550209077
0.527244488915218
0.541809094824996
0.556136934527596
0.605691655298129
0.581613164866871
0.621325587778345
0.604274426164787
0.571180578804821
0.581101100590286
0.593517007305977
0.623941189276546
0.592523843748849
0.61557592790305
0.621022088920579
0.602636229747747
0.615142421324473
0.583697315987303
0.569773848377437
0.552866418464724
0.593006619798165
0.582816973743005
0.587300523615257
0.583274112088116
0.612570228026445
0.581005608271253
0.569190701081771
0.56287386519613
0.563923379663725
0.533733216501766
0.606151683815937
0.558966854108308
0.546838616145069
0.56306952991498
0.572385119012619
0.580624916827539
0.58105552083855
0.569876991303038
0.610727760134381
0.577798872196329
0.576994469487517
0.540255131630618
0.561932639934393
0.571748543056927
0.572869268262291
0.497159179619184
0.544227694163635
0.567177085114909
0.54615587097233
0.56273602877936
0.593682933309463
0.603732575458981
0.577865423216787
0.5962543368634
0.567459083245394
0.512109560563158
0.558471080901169
0.569566166463065
0.607031475137863
0.595545850705672
0.586150319250276
0.592305009586913
0.658782928057391
0.567847684232468
0.585734955878269
0.593971353515384
0.717195739399337
0.770784542869193
0.674673885887887
0.595932162720302
0.67859591872888
0.659256076233254
0.700377254974889
0.670404466234007
0.699893853066319
0.666693267885961
0.847946072874817
0.7285067012934
0.743550764160997
0.756966845286052
0.749675584792245
0.717791401962068
0.787376366538711
0.661033113959031
0.813419279792437
0.706515670137572
0.651152204023134
0.678534551196047
0.706951617311662
0.716509570282392
0.764070919486285
0.730867689215138
0.701551155183834
0.684540351901061
0.631903719200084
0.63794958761052
0.891153876395198
0.618459955034865
0.80228716476342
0.679959643231231
0.837499813897401
0.683875777042005
0.648960215992674
0.638032263197054
0.737810365348714
0.725353219934153
1.09094388430809
0.807261535798053
0.732956495448575
0.747036986515496
1.25715952430621
0.761313056673739
0.643214915966508
0.620365249978577
0.630277111951355
0.687714673271025
1.08453743389077
0.846382624352814
0.929128742055133
1.08507221007357
1.08690966163035
0.678259065909944
0.857240722728435
0.58736428100387
2.4265491170113
0.790435292312105
0.613226556684024
0.870230508832871
0.66405204208945
0.650486933334224
0.709538496614164
1.34399659037004
0.901138850131744
0.359564007429665
0.53824469563404
5
0.937758991556002
