3596
4000.36533379555
650.420452594757
1
2
2
0.0686204072671249
0.0775225717580534
0.0811770499632989
0.0807295190623881
0.0764908170590329
0.0781709384117195
0.0728477219373455
0.0701291293698234
0.072766927653217
0.0856447882801616
0.0767165617048358
0.076325243992038
0.0792166501387947
0.0792793002057578
0.0760517145308762
0.0807430337658622
0.0691276204587796
0.0786820690939319
0.084730543184828
0.0816226652489356
0.0673263423032719
0.0732893367479373
0.0713782212685935
0.0753174697596535
0.0749554878103885
0.0838486367421244
0.0771366563899761
0.0730973432928323
0.0768974704435488
0.0785696849681499
0.0660885857884572
0.0735683757606004
0.0701120981923742
0.0768901658796441
0.0723930848693573
0.0802593600879355
0.0784184765549132
0.082837481572991
0.0745813336531518
0.0826227860100219
0.0776550963767751
0.0821987951950997
0.0789668467083356
0.0781778385094152
0.0711314779247441
0.0738651247279156
0.08317503402587
0.0756360200005577
0.0645602629676843
0.0838852242887212
0.0785678984930576
0.0746981300376211
0.0877216758776369
0.097018448164938
0.0839263679833018
0.0895616946798251
0.0829789774389027
0.0765692503591905
0.0799061285519374
0.0820295009379391
0.0962448400574244
0.0960247884717779
0.0768943768357647
0.0769620913331318
0.0686105919161769
0.0773517508102702
0.0700789564147774
0.0783459672478255
0.0728907029955166
0.0858038693665225
0.0762521743496344
0.0867725774298253
0.0925848080359296
0.0764602504549562
0.0811248885991724
0.0779117456072131
0.0754795255199681
0.0729773354370736
0.070189642915737
0.0882952090684306
0.0842700424697204
0.0859763483457016
0.076892138912739
0.0655945175387245
0.0800215689762812
0.0949788236141482
0.0719610387815167
0.0880206786101407
0.0988374562006218
0.0818956688469041
0.0651101530955932
0.0655016678705428
0.0666733240167116
0.0738342218226706
0.0711227941516911
0.0651687842971998
0.0673274528236474
0.074994450566229
0.0663864900779756
0.0860470815291952
0.0890271186217421
0.10966369896236
0.1215404053769
0.0860032351509839
0.117255728650716
0.0919148203519352
0.0905352476108202
0.127183126855396
0.0924067821401312
0.0855422435230241
0.0769360987852266
0.071298559935606
0.0793358781038322
0.0828431635465633
0.0697048405432098
0.10169746298085
0.106324093326361
0.07894096064808
0.0676186111532143
0.0743501626644719
0.0712580983543681
0.111608745288969
0.106142993908156
0.0741660073850575
0.0807514648548933
0.0760626142218482
0.0770636653981662
0.114965921744578
0.106862600236824
0.0740043268540169
0.066260568702372
0.0694258084679676
0.0661033533651316
0.081941010494047
0.111864304929831
0.0851586136825278
0.0801763116383763
0.0755035834986245
0.109769934981795
0.128083990125487
0.0853647211089762
0.0721690712747993
0.0584149655769493
0.0819311414234411
0.115241768763073
0.081700078544751
0.0754233826537071
0.107107951856992
0.0775385935078924
0.0664915793012874
0.0715434620303673
0.0700278833060811
0.0872169445255639
0.076729544727932
0.0618498308138029
0.143363101330047
0.137476066048278
0.122071354107372
0.124205164263789
0.0816559116623807
0.0780973546031211
0.0755657925653313
0.0707004174147119
0.0676113036209288
0.0689544316404724
0.0681564246277045
0.0941536296188629
0.102108642383007
0.0752866123397346
0.0902471237339821
0.119733725955267
0.093230523098711
0.091835414826317
0.144299172408187
0.0877324394008141
0.0758676975913875
0.107491506637757
0.0807004506329872
0.0662160251839127
0.0905762682441966
0.0930132089396222
0.0724472571007182
0.069945830481886
0.0684793697247449
0.0796247731527262
0.0908878032505351
0.0801890188808482
0.0732395023871525
0.0674210952920278
0.0660979955207429
0.0992134298304786
0.135767136320763
0.104723496596954
0.0829225629861016
0.0647607848646459
0.0562412475934393
0.122174680471182
0.11340035749584
0.0741520955909582
0.0689728875663319
0.0656338871770192
0.0648273693369441
0.0661740155443324
0.0711356195805719
0.0524919567197948
0.0617378693276021
0.120017299761562
0.0922848681169216
0.070304867582208
0.0777830589572544
0.0731142294079894
0.0757222537794803
0.128600432905918
0.100349381571155
0.0716482098766836
0.0695747531982565
0.0727527862060023
0.0927124477255371
0.0883304911599941
0.0670769796662483
0.0643763717653266
0.0683957258274677
0.0665952074625673
0.0622859897705719
0.0668500043665261
0.0658624152076149
0.0628872638578487
0.0666972572031992
0.0685962194755262
0.072280535626607
0.0816479934762979
0.0734254711414179
0.0658259822776972
0.0644946556252751
0.0609437526158522
0.0910619256316932
0.0982926808254563
0.0783262084494284
0.0717572894489582
0.0718095330604275
0.0664532176608169
0.0685231729845385
0.0655320632272814
0.0690956741526964
0.0624237618853851
0.0843613625220224
0.11241530215716
0.0886056825403287
0.0710962120309419
0.070442947977201
0.0914861725662029
0.0865284543617653
0.068700443945005
0.0656785607043672
0.0689699905392601
0.0579407380957516
0.0760478373889938
0.0992568712588689
0.0831462490281561
0.0732848832701465
0.0916476361236266
0.0767058162720342
0.078366048935814
0.0647416215144136
0.0858707093825286
0.145375837862574
0.100027050722427
0.0979309196146829
0.142597734999635
0.0955135402477998
0.0932260626975211
0.0699729104502172
0.0757356538113277
0.175680234552625
0.135889206350531
0.0741762813548851
0.0827733045075126
0.0899905724153648
0.0795756070902699
0.0845503799366863
0.0860403570530872
0.105943115500686
0.127814936034198
0.165861399365063
0.113492490430812
0.0809509083397878
0.120384340006458
0.105491256631543
0.0825992241646879
0.0741529084383984
0.0795529350285483
0.0807387891575203
0.0930432985589992
0.0990740637349502
0.100338383072709
0.0732728872023432
0.0899617620454179
0.109045546820854
0.0937053683989597
0.0742282883686279
0.0974140038371681
0.0876802128675215
0.0828615436355784
0.0734649997644312
0.082472015127341
0.0897341092065621
0.0777619770728003
0.0991458502369601
0.144348431699456
0.0959071513461818
0.101835594900064
0.110503564209303
0.0888348041212736
0.0722401040955591
0.0834754009631499
0.0771878675015076
0.0800530037367715
0.0754164416765685
0.0959354311137784
0.113629399263677
0.0954708323230963
0.0778406452514829
0.0766488863605095
0.0729425092095287
0.0783901579968742
0.0781198917389909
0.0804256448710894
0.0787641719052023
0.0838062220377781
0.0765212569993139
0.119243514188584
0.100224398037519
0.0883729492556603
0.130207079046702
0.117321020077392
0.0849326063936854
0.0759779306532041
0.0865821336722821
0.08338838232186
0.0775551335494833
0.0887942759506638
0.0847644470437643
0.10395829822114
0.110973123208343
0.0971580277573642
0.0972470680024534
0.119903175014876
0.169029508947971
0.154466278306265
0.114520213367353
0.0880288986032033
0.0947232254935646
0.150408458305532
0.125267078517809
0.13629023247494
0.114962671629992
0.106811181145756
0.0909500639556303
0.0976118382180114
0.0908820568430578
0.100293517586415
0.0955926905427159
0.103285737243052
0.102753887240354
0.109321795561731
0.104545298846677
0.103882967391784
0.12203878319046
0.149263141412029
0.116725316788569
0.110428250787194
0.101848001735926
0.108019033255952
0.149454107108058
0.163988024582685
0.166216363276452
0.147560614507563
0.175209344090906
0.171901340741781
0.139218909337376
0.117237432559558
0.114983599558613
0.117044364135396
0.125773781066063
0.117073120235855
0.112647553664099
0.121327330500504
0.128951674390542
0.12146090750083
0.126157440340165
0.123759787764854
0.140360124658202
0.151108387690217
0.141233569944617
0.132177695635454
0.136423661229659
0.178589143895713
0.215711098983934
0.206499741084928
0.157632625165742
0.157205801242039
0.145328723569861
0.148954186790953
0.128879955097355
0.157122801915717
0.15138975089641
0.175941546648309
0.190242639603437
0.183164652307966
0.181963901103099
0.16506108803901
0.16451880950376
0.18969323798982
0.179786610686712
0.209737776600737
0.202348275656223
0.17961520493617
0.16480785460546
0.207482868697867
0.188252962396583
0.202294464049328
0.198575098950919
0.183817221740992
0.170360786646364
0.188772712223964
0.172454722047522
0.189787310253339
0.206679616670598
0.200564460490872
0.1857124512262
0.210232415017529
0.202513998447029
0.213929714114757
0.215884244391915
0.206172196608288
0.219886924876533
0.207730376514061
0.202416134340554
0.216520951008665
0.213415248445288
0.246539676314696
0.235345718443737
0.279057803808786
0.253688634702793
0.23441165037999
0.215625439117144
0.223649413838682
0.216775692604044
0.237406186517639
0.238248138221497
0.247584163253176
0.224382975180919
0.247128322966897
0.246687045552712
0.246884444915946
0.246240065678439
0.251825577180444
0.244822946003635
0.248289556953141
0.252237799223154
0.26230319923115
0.248620092018914
0.303894734499875
0.299314523194748
0.343541823533316
0.294788463054275
0.273436708140067
0.279775470271514
0.321833411980893
0.271935739579617
0.290659262870225
0.29208886464867
0.306789920395506
0.299376819672526
0.302404282070391
0.294565187669263
0.314733684906956
0.294015783484044
0.32991838431659
0.328641227157426
0.325944987836772
0.312144767072719
0.328406652699652
0.309124106529021
0.32704919842842
0.330485049901025
0.338024057610617
0.343353366013067
0.333024500329313
0.322343439120026
0.358993938615421
0.336562407277489
0.345954083078558
0.348792918711935
0.366152010762083
0.343314747078868
0.350953456097222
0.345613901040008
0.37546831687978
0.364624351011669
0.364662671934342
0.34930856382315
0.388276191922395
0.371145751174177
0.38213128429751
0.374289097645183
0.392112915970836
0.371169760299947
0.408057555215687
0.385147083170006
0.407123802948125
0.393732038302897
0.439062621266095
0.40144783469207
0.422675513342337
0.42431068145793
0.428072349560513
0.416566633790522
0.425747634496443
0.419758954564193
0.418754657122451
0.419479497884049
0.468354121588712
0.43433412154225
0.458323120761094
0.449897949935457
0.463857769595666
0.411358727036112
0.458456543874446
0.438222278522651
0.465868830582396
0.460191731684283
0.475409808373575
0.46105503574477
0.49071934494103
0.482098636138194
0.514193402098448
0.475189199518319
0.485450592090645
0.484947800646491
0.528936672133786
0.502792387464065
0.535174975546774
0.489758359113403
0.479237559461299
0.500598405215706
0.54634907983296
0.513543026592862
0.544608699172651
0.50896755077275
0.555901956403815
0.548601207080056
0.546782856911634
0.506651607065396
0.547424274643816
0.532146857601826
0.542443658544669
0.550924233997119
0.558770061072118
0.52132159427465
0.576150735372087
0.581503124364441
0.590340970219943
0.555921710114099
0.590368484412657
0.560225765357008
0.566523022995041
0.580194182838286
0.572417460782256
0.584360865929719
0.624552979208916
0.586827521549911
0.643329355740788
0.587511899959449
0.636228197558273
0.576166228262352
0.626510783350563
0.604578858691975
0.633873159350157
0.606906698910324
0.61411771159824
0.601771859652588
0.673807886015454
0.630245427074163
0.648660754343119
0.633952680316266
0.666022608402646
0.621748300169807
0.656605418588088
0.625276470996016
0.681013110011353
0.638047719884747
0.718405234323242
0.693182157623306
0.691175854257279
0.656329209815439
0.738297264436033
0.68801273624282
0.681395171935681
0.676762482852249
0.732227307057497
0.677636852609184
0.693931809925694
0.697356567207503
0.724706274969602
0.670261100948225
0.730387447015066
0.719367120748531
0.738796004910686
0.689617575100841
0.745664832798593
0.742747173504676
0.734661695700166
0.676158592215474
0.769031582058234
0.731614866381767
0.746912533055621
0.691653331974515
0.767703911336881
0.709312000280205
0.762083933558358
0.699904076587389
0.809664926586735
0.731575021236351
0.810500530248744
0.739958572377293
0.761801903498395
0.761696003164302
0.774945191796131
0.758028587114878
0.79968710606374
0.754562328234085
0.777768489230617
0.775618995645136
0.798564736360126
0.757199582332288
0.803925950425891
0.770140156477167
0.851142768215699
0.769318174826529
0.813753062911607
0.744572572383071
0.819184661214351
0.79625818192019
0.866561565420444
0.815609194099099
0.86816943480703
0.803229592226018
0.845423617288753
0.796683376652604
0.874466473090873
0.803329414823895
0.885233227340133
0.815355220118418
0.857092173023313
0.865023149743038
0.855059726421362
0.805979409936261
0.832133386210086
0.816762126174052
0.921897237805825
0.819425812066663
0.877990368459466
0.867907722193488
0.893365961850381
0.823513623486505
0.878226238453356
0.885257103344337
0.871735878599835
0.879958392573921
0.874922221363349
0.870128517920161
0.886904928202231
0.855839528998015
0.872520557231528
0.830165171968292
0.940489809442319
0.846802897803464
0.918261235130852
0.881607262969011
0.963205469534539
0.877406997388994
0.903476707405744
0.867400472411352
0.876581944975653
0.89909438445604
0.958414136647849
0.830219433310769
0.961709023459376
0.940789812345063
0.916950228196892
0.892866489118242
0.949408275942719
0.900660354918128
0.923770422341603
0.896022551193418
0.920266003636373
0.857751682987389
0.924649522199271
0.936747187276407
0.958588261002298
0.891271510617378
0.931621837703462
0.831166182296417
0.930867791724417
0.909050328742722
0.968742691028441
0.912503036750485
0.89667649319441
0.892124189433054
0.93606939900244
0.924680146355668
1.06453796126601
1.00566869974692
0.946796774098947
0.982957982075455
0.954031477185924
0.927099431675002
1.00377205886181
0.89413672755734
0.944132430487821
0.888959766804739
0.964154333198503
0.933646086292294
1.02530600684147
0.966892242484819
0.966598480428352
0.927902651159371
0.977837824588587
0.912574942325064
0.949265518603317
0.963474024529484
0.932720495996056
0.940512655751244
0.988978858802825
0.932024211631189
0.947037971927572
0.921842105724852
0.954471782884737
0.906507677082046
0.93937048786395
0.92186494675796
1.0039892178895
0.93158698917726
0.892056232740243
0.922111152089721
0.947585072141129
0.924084270952919
0.940834506124097
0.925097420103071
0.973152519584114
0.92518994801713
0.97129161698077
0.952242403013142
0.924593746844976
0.896225609851246
0.937626318334816
0.893808885146503
0.948455785398382
0.857475239043949
0.964780000040887
0.898085103018932
0.931759394420252
0.919447215968705
0.995503404818222
0.937453703114301
0.961879477917116
0.95099940151779
0.999862501003958
0.980437059837771
0.960624473388825
0.924384347307179
0.917039814571584
0.890162006861426
0.954134696874465
0.910408999633956
1.0149856367432
0.896479444006933
0.958783182176715
0.978259897911954
0.945891396505175
0.872669731234098
0.943914957200431
0.918618900150314
0.965763123969294
0.894704651630264
0.938907831647856
0.86527100127309
0.934266799467454
0.892937913377377
0.965280758886899
0.956210886236374
0.884923783542605
0.879728790803129
0.951989949772045
0.914401199584947
0.923885166276559
0.892518119366012
0.896356139039642
0.878326700995164
0.972272760016491
0.896903986482023
0.939520340600821
0.865018075360168
0.92253205063779
0.894829750354064
0.933163009286239
0.918952913856498
0.904392233058847
0.873553860726862
0.899099603191283
0.876134518886942
0.927124158187101
0.863850377944733
0.927651291495876
0.872098300548277
0.918133991110979
0.847451337782536
0.927455535246372
0.837935655962072
0.84983849701323
0.861608766855798
0.930880616820428
0.901387529413393
0.877135951344892
0.864484436553145
0.917900109959626
0.844436916069757
0.853366322414805
0.849182789683397
0.882492560174649
0.872389432688243
0.873574814534235
0.840206258340344
0.837939420139891
0.809367719204543
0.856780207460275
0.833659446869656
0.858671567292976
0.855398129598496
0.854734147057592
0.821494397409154
0.83876932787276
0.81678917199439
0.90887603647974
0.817824219225886
0.846577264322022
0.826880119357254
0.839172086014113
0.818997695892168
0.840528618916688
0.814175384640185
0.824286425936824
0.790353418429836
0.827582750910892
0.80521399410622
0.808390016198981
0.77551365990227
0.797269920506054
0.787926870974358
0.79840599828168
0.768218490079422
0.806054933160491
0.7923951346647
0.795855826000196
0.771892990941714
0.797411405278704
0.776083856108306
0.789218917787154
0.741791902360578
0.75965294392746
0.739057430066746
0.793039174675285
0.755180830757646
0.766263539985889
0.753368417465188
0.779915229255694
0.706446921125017
0.76114119826332
0.723828974830037
0.751914444543252
0.736883256061549
0.743671522327647
0.722321566999127
0.737802616826367
0.717126383513452
0.728007106277609
0.694668103797978
0.73864766264557
0.701116292118504
0.718656519506036
0.687292627514572
0.713934218337367
0.67676745414216
0.718747045617659
0.673340801373693
0.705383075208689
0.667523046853662
0.703783874456819
0.668951027126911
0.706496285931893
0.649753598564731
0.681186585649884
0.678838236935524
0.672993324065501
0.642992094198376
0.667948931638576
0.630401767602374
0.654854747373479
0.631277425500983
0.651489978718119
0.639355230212232
0.643852814665527
0.627602306512519
0.647291578522219
0.627751622210625
0.619507606545615
0.633877623656566
0.607049916664245
0.624091412156356
0.626699729818958
0.59871175235109
0.605835365543032
0.597063301817024
0.610166557895308
0.591596131426909
0.589651857450212
0.587490407732317
0.604854597664276
0.575297375370849
0.594955951373904
0.568987405799363
0.587114517741394
0.572214741933878
0.586828353552354
0.554986906012555
0.574802438111602
0.550935770399938
0.563081578890053
0.540215138453944
0.561278360870218
0.545878112277268
0.547879893823638
0.534189489059118
0.552648306902974
0.536193012019459
0.553822466490069
0.531826233292961
0.545667689927978
0.526107251972695
0.535703925174571
0.520523566786528
0.539818127415405
0.508744296583535
0.51679395075031
0.513525170982698
0.512364578831998
0.513472963277468
0.514667571510465
0.508828567071744
0.511479787773164
0.509387458210834
0.492143451933698
0.482496061779902
0.501729564548174
0.482690901638419
0.497362151300828
0.484625268467342
0.496431468537636
0.47191120571068
0.491481271667165
0.460453900376548
0.482116890246463
0.462850290035725
0.473987889056689
0.454132473865829
0.470330071616739
0.471044901677789
0.476503579554777
0.45184550847989
0.467636854269685
0.452629121925335
0.449958547920746
0.442983091665227
0.457341443954879
0.437816686686901
0.436945373045668
0.433030351617451
0.444667622479598
0.429884832417119
0.454286696918358
0.42202117279382
0.426507771906846
0.42372776310427
0.436184210817399
0.419967146610186
0.42806575960582
0.421787009999636
0.420026303851152
0.413990377550196
0.421433606726847
0.404237216471731
0.413778254721008
0.399746242659918
0.416818679655732
0.402864425908214
0.41100647579431
0.391277318866572
0.407793146507736
0.391742800446922
0.402179584919064
0.386026251650485
0.395859028845965
0.38474000797266
0.394120054429563
0.383188520363327
0.400307739785402
0.376466663262718
0.380027953054501
0.378338682557918
0.392866541126976
0.371423159925535
0.387058253417141
0.374800897931834
0.380623521509587
0.373402757080174
0.370910874943818
0.376772131424217
0.378381684694827
0.364331918851617
0.375584056255916
0.360567024168463
0.375391271304368
0.359635456324422
0.37718969820644
0.353948338214123
0.363496040734581
0.362088789072692
0.370698615429927
0.356679924505596
0.356959122083226
0.342663119882426
0.354716843108169
0.346202199602728
0.346997925933617
0.345029561989194
0.35353583904384
0.331534334457546
0.34724739704502
0.338170290703401
0.34776519526117
0.338803707270818
0.33970213706943
0.336939135700489
0.338595769491389
0.331128404218698
0.343279320949523
0.324835873485984
0.336145764240101
0.328216970959243
0.337804454115035
0.336169070161267
0.344763277764584
0.319226656590828
0.329940433523945
0.323113184291153
0.33940514188384
0.331896103330379
0.326106777194792
0.319680098767508
0.325788941167712
0.32553421905508
0.321964188178949
0.315714707219546
0.326189502540579
0.322478161795891
0.328551598824453
0.31557730119108
0.325032532541568
0.328394875246639
0.324203389677906
0.324378770243606
0.324890781657566
0.319540212433111
0.321640305736223
0.320411975696993
0.327801286124452
0.317322728991231
0.32828622270461
0.325137984053838
0.336846141563073
0.321137232279838
0.334382427549036
0.324508342882978
0.337771920983333
0.319025371466522
0.326147738862344
0.329652105837474
0.336743597803437
0.332531432503972
0.343903104312115
0.341947672131383
0.343720460063971
0.338400796897744
0.345335988396739
0.334533679046894
0.34418126144673
0.342700576795592
0.353999390747347
0.342796887881131
0.345843687128215
0.336372670949001
0.360106473183294
0.337213957319281
0.354425447128231
0.344436030095732
0.35127654633888
0.34769685277297
0.369873122899844
0.345214197066751
0.370426466546525
0.369484028415459
0.373034449744032
0.370445848676522
0.37264203314073
0.375284828294779
0.372646105138216
0.375743859656933
0.385352167126179
0.381859429161596
0.384783286301667
0.377298749712968
0.400846692212356
0.394991538145192
0.404267078334979
0.396623420611839
0.40280750208903
0.408777626935704
0.405021778826974
0.395931485157185
0.420120885855267
0.409656230665877
0.41367330688457
0.408702933551288
0.424991867668053
0.413123775328451
0.430516594135055
0.41850455234496
0.439873464461247
0.427970380400114
0.414634310497354
0.425191293340528
0.439146429123836
0.414866105472121
0.424317489380194
0.430505360330156
0.438213219132069
0.421651384548645
0.43652471773774
0.419735877433035
0.434543411799747
0.410484289843344
0.434032637199086
0.405910907681687
0.426891978881247
0.410443953304587
0.435510096374414
0.403154518399642
0.42465632229118
0.411679969777562
0.424416440190814
0.412189700133115
0.419197385239855
0.416544105513434
0.420639537590428
0.421845545118704
0.427649691593712
0.415515214668431
0.42340137528589
0.417447288586868
0.426072642636621
0.409760204423771
0.425019682272267
0.41400147785167
0.420875212124372
0.416653630800305
0.418420583588448
0.412531839042149
0.426591007641413
0.421837836237981
0.423753751029257
0.414468495539915
0.423944017561409
0.417254617779722
0.431004670015522
0.412040421588075
0.423516269840619
0.419522632772044
0.417038691098253
0.416626623858673
0.41970178240877
0.410800811654368
0.416705954958031
0.411097564241694
0.421152417684424
0.407210286011807
0.413356831530818
0.406762451391907
0.404084596440983
0.397044011363968
0.409879176791131
0.403066189150745
0.399593989557675
0.403204140942519
0.404718930881859
0.393405562977273
0.398384217404933
0.397755039564187
0.398542099453648
0.385491320474607
0.394397699693801
0.378758708414908
0.37638965127612
0.368559170493737
0.381072535134499
0.36264444357185
0.376973970235754
0.362505298246379
0.366268279968035
0.357415186249928
0.363257939147595
0.344256217571087
0.353855864214878
0.345166176387035
0.349312429217669
0.333477824028799
0.350884220680219
0.344312969334366
0.340798997015822
0.344838409181451
0.358694896095029
0.337216408501987
0.340138615893369
0.329524778225826
0.327814790588132
0.326487288591064
0.327176257768575
0.322564242614989
0.32388833875627
0.318885462287253
0.322540940152562
0.317397856470233
0.317357522824922
0.312568773309696
0.315780062435845
0.304884044122185
0.318780146013958
0.307201508517394
0.309754326464125
0.303481236712497
0.309904858415987
0.306278877950928
0.302523327298482
0.303206016047239
0.306506654466592
0.298006675272997
0.301148887874412
0.28920288216559
0.297576430847532
0.292814990453776
0.303478972651549
0.290093550579364
0.2909019080069
0.29341887085176
0.28819927167326
0.285545839694418
0.283669995480855
0.27856687116089
0.284944124620875
0.280037195506748
0.286270771141791
0.278076585910923
0.274856644470899
0.276497365355178
0.276617538234161
0.26962726526127
0.276521078188442
0.27172375107192
0.268374330760632
0.262919409880222
0.272740598297902
0.261106781656249
0.264779830199451
0.259554376302993
0.265949949973584
0.256785578577131
0.264133392926009
0.259155871446676
0.267837255518878
0.254659994543037
0.263308515996697
0.257496372348075
0.264301142124545
0.251045771901938
0.259847959553362
0.255706372895218
0.258087623398844
0.254167130984363
0.255928016833914
0.25092288093788
0.256047359009276
0.248176934076193
0.256553655622696
0.249779325767834
0.249314790014674
0.245204884565024
0.252182300134996
0.251062656854277
0.248979017106298
0.239900343974274
0.242818604060722
0.243242470962854
0.247252564522618
0.245088791298438
0.244047387013676
0.235677961713296
0.247306227470347
0.239799323851478
0.244451191595095
0.23757773211457
0.242779877971555
0.234023457768489
0.244544066895542
0.233150307720018
0.235921547653222
0.232674828843522
0.235740474686625
0.227557544168103
0.239250949743573
0.231361007576868
0.233678349409145
0.231512778238865
0.237721687218334
0.235229696764008
0.234398268374579
0.224967151146035
0.231255094674015
0.228478797577792
0.226385718279171
0.228443483046736
0.232823338818943
0.226590338984866
0.225065692597731
0.224937101824445
0.229336960165288
0.224188326453141
0.230654500061359
0.220664936811349
0.225382138802151
0.224024067637423
0.22541651002688
0.221768574715494
0.228048579812853
0.220825547320483
0.22482259187762
0.223146773109927
0.228457130950524
0.224558855760596
0.225311543586447
0.218347291497418
0.220279377431612
0.22093159714929
0.218582907697603
0.216132328077184
0.224730608737956
0.215841519536844
0.223718570118725
0.218036524197853
0.222286051587367
0.210881887422277
0.221479513360809
0.218369398617797
0.219132158500884
0.214914111959728
0.218122695741541
0.215576280425594
0.220157704595634
0.213097826712959
0.217057202159744
0.213189656184098
0.21667067499715
0.21089353643392
0.213743081350568
0.207645862024235
0.215171207481944
0.206828092907171
0.21006223884151
0.205913891328987
0.211551141425145
0.206310077136659
0.21219443254784
0.203069979881558
0.211661105920588
0.208017636770916
0.209948177709881
0.201749178209389
0.202907941973839
0.202078831200297
0.204341107405543
0.200344294251321
0.20207062625942
0.197956022616527
0.203142096002603
0.200767897465696
0.20275411775337
0.192966254840302
0.199024391492469
0.194052935978971
0.197571204777838
0.197200228761199
0.195449206638045
0.191036531910028
0.197985005687002
0.194878873388519
0.195704874020902
0.191368910380297
0.194726742608215
0.187581362479096
0.193438995648742
0.191577629154853
0.190551579433419
0.188296824362178
0.191056839389124
0.190244097912884
0.187497040173913
0.188801968292499
0.187300441857128
0.178638996569044
0.186414113793777
0.186014776520606
0.186952959548618
0.182649028795413
0.184570196692874
0.178845502028291
0.18503747583462
0.179990623862411
0.180393002430872
0.175111749001298
0.179318793770626
0.179858849315393
0.175705411737357
0.172083963926288
0.179455104227032
0.176597708808806
0.178359470243796
0.172287551010089
0.177280121795289
0.172809013205725
0.171833735618786
0.166765398177745
0.17028935345197
0.165568449113292
0.169532201037542
0.163720783181172
0.16902541090945
0.163388137031936
0.163153323133794
0.158840851077522
0.166027545521384
0.162824276894565
0.162762578721232
0.161933777986545
0.167880591575399
0.158814618753351
0.162435144298279
0.156373843509586
0.158792590502132
0.153444261294676
0.157859201445714
0.154332548395537
0.155081810834831
0.155052702641397
0.156138000015839
0.151063586032702
0.15587968252713
0.150404700228775
0.155999028908021
0.152105409869805
0.152686118442678
0.148832738609551
0.154610675214823
0.146174712902677
0.15344371555611
0.147094226414072
0.149300658559434
0.144437629713069
0.152383500511394
0.149425994354521
0.146078840327795
0.147716151259681
0.144257716112402
0.146844487038583
0.146636374865229
0.14647954991094
0.148374335732044
0.145484787545369
0.146650866985075
0.142084928333272
0.141288291893662
0.141069573281294
0.137236621107022
0.140020005428412
0.140110488522806
0.137751874566053
0.138858551605971
0.141544316933502
0.139429834797984
0.134044064145866
0.138897981473042
0.137198944657492
0.138224267346845
0.134956052069029
0.133148128927974
0.135975974661977
0.136181513328482
0.13242202609719
0.13584294849082
0.131540126989762
0.131947181678823
0.134350664594133
0.136667280411542
0.131723681927705
0.132004150014804
0.130981364673675
0.12967287410048
0.129813883395058
0.132485408496921
0.124427964876611
0.130008748849015
0.12418084140016
0.127432088101075
0.125196818309385
0.12860202933358
0.125674480796067
0.129983638683197
0.12604192903322
0.129543140264877
0.126110217359746
0.130087795921481
0.123667957295906
0.127616561175213
0.126273699733139
0.126074359637942
0.125110902371603
0.128879519511225
0.127295687977838
0.127717128471272
0.124052807877688
0.126370716384777
0.129519330916897
0.124786265605984
0.121549895071647
0.124515013653048
0.123523217586719
0.126512197013382
0.121391939555806
0.12419636778288
0.12180898001368
0.123080586933149
0.119302150143452
0.120875306024925
0.123289451327191
0.125206393800386
0.118919838310143
0.12284482190478
0.117393850158713
0.118403657315544
0.115696541858394
0.120820020889434
0.120750067070912
0.120371434859268
0.116360088474532
0.120455689477334
0.116775699683507
0.117403008292626
0.117118188915409
0.117668406248146
0.115155405027959
0.114635287733274
0.112938644008238
0.112617189378192
0.113709528518369
0.115017238356355
0.112993288078819
0.111399606919143
0.109527103800355
0.112374524186726
0.111917791205141
0.115495099974431
0.112751673407362
0.114352108401353
0.113263002655795
0.113176751090842
0.11241270498913
0.108826126329634
0.108450523868424
0.114717902458617
0.107875179434114
0.111621851197521
0.109592211830866
0.11035705971965
0.108405061045511
0.111923841354899
0.11130510537606
0.112401446020957
0.107599912225045
0.111605362991645
0.108788966126685
0.11018497383935
0.105121782157198
0.109208186744843
0.104024912553922
0.114531821823582
0.105528378192206
0.107445502494259
0.106099434370416
0.105972612925555
0.106059126429379
0.10617717864472
0.104778354270698
0.109706904249002
0.103100896125639
0.103949711539146
0.102490983062921
0.105212790668491
0.103496766857341
0.101698412990655
0.101919788274703
0.102702521221693
0.0988447978529605
0.101010034560585
0.102421244269571
0.099634422442209
0.0983733012044867
0.0983527654938693
0.0941620832031855
0.098104585705824
0.0963533793822169
0.0995727875368138
0.096210113783218
0.0961535837684649
0.0959515468136663
0.0962421396850389
0.0947448252304685
0.0958453755864394
0.0925471210267769
0.0931319328550109
0.096157889947494
0.0969471707182324
0.0915006857469886
0.0904668576359646
0.0898469812111203
0.0913365362545896
0.0917031518185114
0.0894801103403867
0.0891764156677711
0.0890056941696741
0.0868771377447161
0.0885526173181336
0.0889008324868419
0.0889018498230299
0.0851043513616689
0.0879162108144101
0.0880656870089092
0.0903117625199686
0.0856925910914681
0.0905416679206496
0.0874712038267016
0.0882605116826618
0.0858014525767775
0.0865508954265965
0.0835705088029104
0.0893963573989392
0.0843356482998682
0.086862484483961
0.0846209957732626
0.0866894767261359
0.0831839315174837
0.085659617006897
0.0819004549828243
0.0853005113583946
0.0825164038777426
0.0817058446132122
0.0781765239958796
0.0805821210669651
0.0785459126327436
0.0828911494526422
0.0800460490030258
0.0815264948882017
0.079909291709272
0.080890406560416
0.0778796980976901
0.0815942145882493
0.0791037225038289
0.0784009965020401
0.0799051303742114
0.0802160952588444
0.0752903428828939
0.0771158196341172
0.0760723259497772
0.0773148770389887
0.0723940083140346
0.0756016608067897
0.0745615417737919
0.0760289535424933
0.0745800320503585
0.0761197825435703
0.0771081069569035
0.0753956336400625
0.0740055159395528
0.0753796077567435
0.0721539157627172
0.0729916093890614
0.0717041616834995
0.0747068725779254
0.0764353737342336
0.07206031903827
0.072014540520594
0.0729662088433782
0.0741978465546775
0.07312237972318
0.072139917003971
0.074974004892845
0.0749718836388744
0.075338470872789
0.0739317012066591
0.0744808354302959
0.074670046921658
0.0783017475910708
0.0788164659121905
0.0805017167856478
0.0776351332436295
0.0767317004567786
0.0787356524784861
0.0770439086015956
0.0725024896223753
0.0728840912839879
0.069956498384561
0.074559336726859
0.073497357321116
0.0843750325718856
0.0852655216492002
0.0816458988414588
0.0672452247900195
0.0666099739931213
0.0770185601528596
0.076932465721127
0.0634509358628701
0.0738938272231902
0.079367502719515
0.0695682631287612
0.0717800098355785
0.0699952070674672
0.0697339779011237
0.0767561325691994
0.0675501858752288
0.0700210147295786
0.067057357853984
0.0707023919591809
0.0751833239191489
0.070906546336355
0.0701363827249508
0.0677613424039005
0.0662618671050389
0.0726277135609243
0.06997623105828
0.0701069478510683
0.0671310859385707
0.0733717123455993
0.0623684559364925
0.0758794576390179
0.0624919468960603
0.0708888921298415
0.0580180316901401
0.0696290244307252
0.0598265122613874
0.0766199200188788
0.0604692436180604
0.0794499787995858
0.0607633093292903
0.0830109282212982
0.0491258338066683
0.0812964839853787
0.0481976118118083
0.0927230709050421
0.0492897053933047
0.0906937924335226
0.0359421141857405
0.102574414873739
0.0504333944753876
0.105495341607431
0.0280029695462446
0.102383693800267
0.0437609070456682
0.0992426727968743
0.0431009323048409
0.0951564825711124
0.0555076336756613
0.0828689250961538
0.0650506595909154
0.0743890659798644
0.0693572178268498
0.0713135623353419
0.0762903956311562
0.0606774694055926
0.0769548709012006
0.061562077992502
0.0690241397155025
0.0653306156859857
0.0702096395264829
0.069205052843986
0.0625964385949779
0.0700274209492958
0.0620187050222119
0.0683423029986967
0.06280482908621
0.0640373491074412
0.0610128898641404
0.0642438272580646
0.0615132322472685
0.0623039107537864
0.0651649210092215
0.0624463655086831
0.0603474293056029
0.064837687576008
0.0596549392384208
0.0623744435771196
0.0589298247710733
0.0599088069371431
0.0581508722021447
0.0606635429912551
0.0591883695464168
0.0610076572302597
0.0610416005937052
0.0605440998226824
0.0595293017396006
0.0641984623399491
0.0608552624368298
0.062233903326721
0.0580395604733928
0.0620686821415309
0.0612084861132245
0.0611793714182909
0.0604333811112749
0.062529411316119
0.061201604639356
0.0623595066209863
0.059175810852978
0.0602042837526297
0.0617614223344617
0.0606630635250782
0.0606115787926122
0.0598971846051025
0.0573409708049369
0.0628986275318767
0.0603811130110705
0.0611294628013698
0.0624012317614658
0.0629806918786786
0.0641088133804368
0.0622579980293265
0.0612437870536951
0.0628476110526527
0.060237746227815
0.062940723306242
0.0632271627168534
0.061039019911066
0.0612939665631716
0.0629471771197667
0.0649723648713423
0.060100679803936
0.0606964428813314
0.0617812652868619
0.0628171433902645
0.0563841089407392
0.0576054594999042
0.0623932057900408
0.0595113958192182
0.061170557799293
0.0608971836052283
0.0610078564028827
0.0587777724427645
0.0588271528617097
0.0610812104849666
0.0607244182021742
0.0595473408284275
0.0584647572849312
0.0611476027831358
0.0604915400658421
0.0600193942630433
0.0618399904303651
0.0618434964856265
0.0639614301675686
0.0602868442391773
0.0624173786994974
0.0635988584651031
0.0636635798557549
0.0620144531022073
0.0614062455205154
0.0623543232144288
0.0623795708528707
0.0601302679099685
0.0618394065420925
0.0592038651444403
0.0625518059669594
0.0618218259714341
0.0634280010050698
0.0639235460653933
0.0611233936371406
0.0595801021516154
0.062822670962787
0.0648131164366062
0.0632575377719822
0.0620986330232913
0.0661051454315224
0.0632704294424428
0.0631599691490835
0.0617583963838632
0.0628466171031602
0.0651426051961197
0.0649543678099012
0.0633207393748274
0.0639228452025747
0.0644907481404535
0.0652382040274107
0.0652400075598616
0.0629120668677776
0.0632972588150455
0.0661050793371888
0.0629503830023758
0.0652290235839714
0.0636107116849393
0.0651380514636425
0.0637149247516755
0.0633451571111275
0.062480689416796
0.0637294239046888
0.0666818969953167
0.0639492086458184
0.0641008490785923
0.0648208075733272
0.0631828978268737
0.0644575195602557
0.0649868470154391
0.0652532991958277
0.0639654633649907
0.0649560213973908
0.0658042396590037
0.0644016312378778
0.0636387781020925
0.0642847514679633
0.0657206381502933
0.0673360074970232
0.0681874925471192
0.066013860474729
0.0645462839145832
0.0654516554139044
0.0627685001378122
0.0654403318428312
0.0654417999622671
0.0655836812230712
0.0651419927339498
0.0690770509470545
0.0667067723933079
0.0666148987912167
0.0665506688369988
0.0691137780243412
0.0663964277555607
0.0682294340981199
0.0674757336961726
0.0677899140942789
0.0665717304429481
0.0686201466893615
0.068396018724954
0.0696518116805449
0.0678334777718916
0.0683640155858696
0.0664831987364551
0.0684286532419908
0.0674080109887533
0.0670644430893877
0.0668335281061679
0.0678520653133452
0.067109267845619
0.0670585738333166
0.0669828725647675
0.0667270456148698
0.0668344576818447
0.0650215744018022
0.0672552917872896
0.0687340482210435
0.0659483371209994
0.065552534759016
0.0666811902452399
0.0682506238214503
0.0643718083429506
0.0640377911700854
0.0647369935185135
0.0659440760044038
0.0667950836783257
0.062338581617205
0.0645143219873239
0.0639130989891843
0.063214842551452
0.0630211821284394
0.0639851118080724
0.063009155345787
0.0643943771708828
0.0640583898622667
0.0628995686644515
0.0637493298953935
0.0619841047725978
0.0642349496257451
0.0650113798197469
0.065530060053994
0.0628063270374465
0.0660312613267524
0.0671065181937667
0.0626640123710012
0.0640801952562255
0.0632563496907875
0.0641561429288152
0.0641074813175676
0.0617151711489661
0.0633372891327619
0.0620435861742712
0.063504308168557
0.0620720652741547
0.0620040569110057
0.0634012971095647
0.0639809439148539
0.060936294791632
0.0627299570461352
0.0636723644525814
0.0635238492652841
0.0614748878792499
0.0599521471853352
0.0617829491798279
0.0635871568929512
0.0628692622321605
0.0621733944761231
0.0640661242713372
0.0652591734200515
0.0617084586691726
0.0619933622605402
0.0625677113902085
0.0629811794913075
0.0609725342239806
0.062896418709521
0.0635576013503193
0.0624039118143578
0.063228531075277
0.0628980378636536
0.0631584703475671
0.0610863212537563
0.0626466976506973
0.0633804828962651
0.0628414943120072
0.0632343640335503
0.0617060790065714
0.0615093477993003
0.0618058906115862
0.0597129531702205
0.0612979812583252
0.0629205229214689
0.0645680474288007
0.0642955323396585
0.0634202102257319
0.0633238012880527
0.061844335457509
0.0608592351701669
0.0605869251989848
0.0614106740385591
0.0623751184877414
0.0583079636180054
0.0603535864925865
0.0582513269693727
0.0605138387181368
0.0587111382873436
0.0618389628612262
0.0608740235606285
0.0581973254924838
0.058951150023952
0.0607249295218118
0.0601955796389708
0.0617456979014309
0.059684662557101
0.0580749892006159
0.0606205331225684
0.0612763820215338
0.0580943671039173
0.0648119580529048
0.0637997153845815
0.0596777833802095
0.0589401590406822
0.0593380287444447
0.0580538734463366
0.0588174862774887
0.0589176066373716
0.0594154758625677
0.0584814411358484
0.0572287735390454
0.0570913554825127
0.0575241841152654
0.0593312334039981
0.059376060171871
0.0567220444970687
0.0568507324053483
0.0572074294930427
0.0582846184621389
0.0540191639571398
0.0565001448851396
0.0570938840247801
0.0552842342505231
0.0563248463851607
0.057825597848372
0.0575241598706506
0.0558513291090965
0.0612058393214786
0.0575185676097632
0.0563196386097447
0.0559589414575151
0.0517752614891681
0.0542737097720552
0.0540007239336251
0.0532898598762968
0.0518981704672163
0.0532096239568747
0.0527647104260566
0.0530052851629011
0.0514851312898255
0.0525429917575925
0.0541239729926667
0.0502450765786499
0.0516187047783942
0.0532592685591461
0.051048902452233
0.0510108712394378
0.050730439473034
0.0540241092042128
0.0518018088673899
0.0529031467384974
0.0523576111391172
0.0524904384727757
0.0616122238452906
0.0627769924921394
0.0518652481949573
0.0513338887093667
0.0538552807248544
0.0556391470768005
0.0524758711483007
0.0520582671680148
0.052074396510624
0.0517921627210369
0.0492337289138466
0.0519156565095588
0.0519714392856392
0.0514054867846688
0.0482045695493359
0.0526431287017489
0.0511966057444386
0.0481925696412691
0.0473326068658197
0.0497404971604513
0.0488855795297115
0.0505354246876102
0.0488563441647506
0.0494525170494234
0.0511083992164108
0.0490458975639017
0.0525558958786527
0.0596952658220556
0.0550808333756893
0.0501030899084065
0.0484864217538257
0.052137639320378
0.0485729010964921
0.0503121339488313
0.0505542092210991
0.0481854606278301
0.0480366709329898
0.0469188541812762
0.0456773092414579
0.0466816053587882
0.0488194415485276
0.0488917369018872
0.0490124624970841
0.0492287804730477
0.0464914153084786
0.0465832688449605
0.0471672570999035
0.0485292390506021
0.0481339147366079
0.0485679164262147
0.0498419491194666
0.0513969326969723
0.0447944319150097
0.0578326635638028
0.06475179287339
0.0557263118970785
0.0512109683056979
0.0491710238302855
0.047681184968931
0.0487498435264462
0.0462853009141878
0.0451360415820981
0.0457969948320278
0.0471695039623909
0.0485051862366417
0.0452381617511872
0.0474726075921431
0.0486666871019473
0.0465943364078519
0.0483745730581355
0.0475735477955687
0.0466483839009577
0.0470864392264077
0.0463351572599974
0.0543842053567676
0.0656130106105016
0.052910030605585
0.0510861466578314
0.0464315472752833
0.0507921315214088
0.0724333708700708
0.0556139459722625
0.050553504409233
0.0500137326539312
0.0468074191790229
0.0467045498615507
0.0462841083555774
0.04534948779722
0.0529132196902689
0.0542361975031905
0.0501206205874054
0.0505665723483957
0.0473296907064372
0.0493948608915201
0.0455320139254216
0.0462317277172864
0.0447796817885752
0.0454521496458025
0.0449800634006521
0.0428566501679399
0.0452114795237447
0.0438148042681164
0.045541961668735
0.0454139338718313
0.0524624959252894
0.0515250809550978
0.0470787687592208
0.0468439355083587
0.0470753141833465
0.042818205092091
0.05323017126025
0.0654325027978171
0.0476498708640696
0.0483154145230514
0.044916508490853
0.0460196420109067
0.0453694854041592
0.0487867410742982
0.0460153211070545
0.0472994981989346
0.0436821529764539
0.0482314150430081
0.0453700118515223
0.0467424331217552
0.0428682612182532
0.0480537491092815
0.0455515999582577
0.0474648900853086
0.046832911113146
0.0463764154112379
0.0483719298341673
0.0511874966503001
0.0680972034660753
0.0727123443035704
0.0684385277243232
0.0610268708691398
0.0532905421124664
0.0483852721420739
0.0487038598680714
0.0471100516083124
0.0472307665357854
0.0495943399035635
0.0468707301778425
0.0501755305650866
0.0475440442222722
0.0461391919186289
0.0455994376632295
0.0463491038206844
0.0445678082517878
0.0470865053217126
0.0431432155508524
0.0491350124385265
0.0430083735856955
0.0487334265326648
0.0431998231262609
0.0610103794824129
0.0510734791584756
0.054338830440711
0.0465017110418719
0.0974267383433579
0.0729368532058032
0.0568855395828906
0.0524186698520716
0.0456650329484321
0.0478521695812394
0.0454510864817815
0.0469461845339319
0.0544025730305834
0.0473863356208508
0.0468749935275536
0.0464470498866705
0.0489652064673178
0.0490359968033238
0.048385955794084
0.0702512412893731
0.088608329452049
0.0579754254856883
0.0535827022547313
0.0437695077994658
0.0722488521219383
0.0781389525556245
0.0524722774071582
0.0556063296614843
0.0468016296121189
0.0478398318226809
0.0482826761649341
0.0506363235012432
0.0496890746808709
0.0574142541671096
0.0501368886065944
0.0503754510011298
0.0490456485500839
0.0467689492064301
0.052930523180071
0.0529072225715456
0.0667815490713002
0.0616781129889564
0.0494919241545562
0.0593118887697087
0.0529625840043108
0.0491768955873626
0.0540485502300026
0.0512285709392943
0.0512535591810647
0.0654372994039952
0.0684380083623449
0.0593918112384913
0.0740652690364877
0.0642334223446546
0.0524151634419663
0.0570016418822226
0.0619142859462851
0.0652338388837437
0.0452744839326516
0.0808468891052904
0.0877617773462283
0.0786224656722107
0.080796166810083
0.049746778088763
0.0616215505070588
0.0493377521370618
0.0519115105161787
0.0513203108818428
0.085914175722171
0.0522610334960777
0.0657379106178939
0.0446353678860163
0.0789141813124659
0.0692324309691287
0.0653621881474977
0.0544698660026771
0.0546829022893227
0.0554309287144831
0.0828917758933834
0.0560040312732449
0.0637385579429879
0.0929820470492363
0.0956877551343717
0.096185537938091
0.0620894456439249
0.0618651918141751
0.101041462631526
0.0634859404504386
0.0653727803404283
0.0520719699326643
0.0624959942666398
0.0499655215916613
0.075953825055632
0.0982635907879063
0.0666347857696715
0.0643744320590674
0.0650227864652474
0.0636538687321317
0.0981662609559933
0.0678859480229725
0.0667552230601551
0.0608687576243478
0.0681900514071944
0.0580505890045581
0.146863290514241
0.074497256729158
0.0977436551347255
0.0994035579781528
0.0928324352959842
0.0884818268335086
0.0777663449725686
0.070794507409253
0.0938138644698956
0.0935138115192803
0.0744047785182765
0.0610233879683286
0.104727938303943
0.102468278992087
0.0737724052527367
0.0838468100810667
0.0709744405333691
0.0805572014611484
0.142085116965726
0.143507803803827
0.114277477361435
0.0848092754533677
0.0881123741337912
0.112987019309254
0.0822908404402205
0.0811459031530627
0.0810533796640238
0.078293504980362
0.0812826877315044
0.0785292222125871
0.0958035627611205
0.0810628361250092
0.0958407717837706
0.0794224364040075
0.0941537860748978
0.124475027061482
0.158987965734326
0.137656733615784
0.101091949952174
0.153090471709535
0.116457039162575
0.111718662061423
0.0925981356107912
0.0946105238696669
0.109633676939648
0.100747577165938
0.099776452263226
0.0995776821036013
0.137711533090858
0.123211429383897
0.134889071533571
0.12845413989169
0.105224295048149
0.120732774693652
0.126290777741882
0.33061804884642
0.12243518235912
0.148181024018723
0.116094480159502
0.163377940348607
0.19935475599263
0.133327108609846
0.120305106937956
0.121192487737931
0.11980041634329
0.142941659851095
0.139184122972661
0.142219614114625
0.150889862155428
0.146780528903557
0.133761086489262
0.189488737060903
0.261826499374615
0.227812846860507
0.174887776780899
0.156892468692023
0.185033654426176
0.180629095542291
0.15807420351457
0.172179026149722
0.159097466793443
0.209124205122254
0.245492022275148
0.178788956156993
0.187849028658368
0.183276655820075
0.232180341869067
0.17259391403823
0.295592106880648
0.216747731505304
0.216758072383863
0.197434365845716
0.216157295006186
0.205178589681874
0.207802293126511
0.26178334440225
0.240230328864097
0.225502357420902
0.224577046977772
0.224231701909944
0.230527975154244
0.230832645782433
0.243980515097376
0.235039493431197
0.303582122052556
0.284094298230241
0.482175037539198
0.265017266479987
0.256257250929828
0.239948407033239
0.254422619255678
0.3009287793165
0.270433457544867
0.321124237157177
0.282826337490338
0.247967886546325
0.256169586635953
0.247071466825181
0.251426943284347
0.243864210263415
0.266057328292466
0.233051088345779
0.310371749926597
0.241403245598021
0.345116338910696
0.336971222397469
0.260444869563707
0.252422018444167
0.249232052944605
0.240373050463197
0.242526508007583
0.236981904221202
0.258730978904798
0.275773786698117
0.237186359736516
0.25173612846408
0.225136547584796
0.284194297536229
0.273730255862809
0.232210770752377
0.242333580158567
0.22185728091992
0.246892498575876
0.213110371601676
0.279747445400993
0.298615422094612
0.227252146654886
0.235643498832541
0.219403167180066
0.223367826917735
0.219024117912296
0.220206855482874
0.221193865083666
0.217661755414205
0.210689146263687
0.2247620874282
0.207366161968113
0.211624871911206
0.201600674891496
0.220643225840709
0.207322505774047
0.214545142903836
0.203749586978253
0.204152264346164
0.207353875499623
0.204887338255125
0.205567380638156
0.197925521885798
0.206247018097129
0.203295939759354
0.194478023831312
0.202554706389337
0.190543976336787
0.198998355301105
0.196281225366811
0.192797745289861
0.189548625924851
0.191035974957692
0.193577331664464
0.189940591521869
0.193261996111043
0.190778234863212
0.193794946479915
0.184166441917355
0.186996482770344
0.177348453150596
0.198447639946757
0.171092370060413
0.284223164696818
0.20309094463325
0.192411366149798
0.184754705942677
0.176585634148247
0.180061373464994
0.167902235677082
0.253976811234727
0.198363867755218
0.178757063307157
0.168386049684445
0.164258374309739
0.199009096520143
0.181845618249916
0.153522765476333
0.179202390773498
0.140536282729154
0.268076906386192
0.229162953626223
0.292101660329873
0.255872637307401
0.186117832603569
0.154612922271432
0.199062111148892
0.210125305642691
0.145661995490143
0.164187994603713
0.136476539568782
0.22173419246769
0.164027894273275
0.152180451558108
0.146536503866822
0.138424584119963
0.187248105795962
0.195286206972305
0.162034560868377
0.195910137336306
0.202335306914796
0.171163349555711
0.232831212944308
0.24320239789545
0.175737958527302
0.139279892633752
0.152560871615497
0.140199141030789
0.157065497878323
0.22263021540015
0.144729026071216
0.169120283514095
0.132068595726182
0.139740226542568
0.144029165538267
0.172369315180037
0.151713074736458
0.153653280600737
0.199126600776819
0.118742244260935
0.187327241621791
0.153952939869357
0.224343700747039
0.208619048296766
0.157544820633671
0.125947642959121
0.206493753394485
0.190609550194276
0.154037479252666
0.168268660775958
0.125346410623831
0.151322900927755
0.171860384344938
0.13144664910575
0.175271239357309
0.170710659319827
0.190437509160828
0.241886280433542
0.232628620274059
0.221841327877599
0.155916476249617
0.134228643119745
0.140384464449091
0.137045962157115
0.151777667932793
0.122710513228334
0.205435364000061
0.149737353159012
0.148174058863592
0.213250226648042
0.148558457987114
0.149477207169586
0.151063765145446
0.142305325988006
0.164721743872749
0.197092918135629
0.226481029107947
0.174106639549896
0.188805019765537
0.200360835909342
0.16850350814836
0.173166513183973
0.168432474631237
0.177022521066258
0.172846570805374
0.199870518088144
0.185026656559734
0.190444288715613
0.194860106303106
0.19414334367107
0.236382671618495
0.24718150562723
0.194489709197266
0.287583950684047
0.229812771262699
0.319870802569843
0.237617416002911
0.236793287389983
0.231761884427149
0.232552039389237
0.248278769546058
0.241794894515152
0.268577915160967
0.312106315401906
0.247758512047639
0.280925384831489
0.252944249372139
0.280775731288926
0.261010813440228
0.342427807332161
0.283356338773765
0.410693164478027
0.338575277450459
0.32086974064252
0.299247978478857
0.283314894820925
0.311242033937563
0.288377738468327
0.291689519301345
0.282255140960237
0.292344037448374
0.338582726421764
0.291120500916196
0.302465689089263
0.285874891160431
0.307826573770902
0.301990535100127
0.304588316493959
0.303283980325655
0.303459427724078
0.310066147712799
0.315596896838034
0.313957738762692
0.438115328302347
0.323826786050604
0.339992169143673
0.324441074531792
0.339636658468333
0.3277834769111
0.331497085940571
0.365884056436446
0.346413694098308
0.336975817356092
0.346766751845971
0.333796454985637
0.349506707064451
0.349159325319618
0.39744991015563
0.333120988496025
0.380961872679397
0.326012342932284
0.431154249505676
0.419140766565362
0.374176959327871
0.391521131773776
0.371800700905773
0.37025825809267
0.36001735165684
0.368396912201993
0.363721165495638
0.371545984693498
0.361525719235591
0.37164875056468
0.364293415898716
0.367378878124776
0.356464688482028
0.369500948772469
0.401364482389018
0.363471134154777
0.365171201665853
0.354785169931887
0.367930983349898
0.350794598505391
0.403196431087993
0.378620920907726
0.372760003435264
0.362917291893673
0.374949936940325
0.399932523283647
0.380047649628213
0.34926632055949
0.362661165947349
0.347977063973589
0.365727758935509
0.346526257393214
0.384144578248167
0.402048577535662
0.373575246179749
0.376281741188663
0.363016181593016
0.372041429515453
0.376094228438072
0.375251828268219
0.38148213976076
0.391978422262991
0.386662775292649
0.396266614121638
0.387611126887361
0.398654243455771
0.411108596097013
0.420829377174634
0.421574387493477
0.396446938927643
0.401809390446094
0.392785300703764
0.396986145929254
0.404755276801113
0.395124539197806
0.393053434080868
0.390858671179497
0.383785454864055
0.392639416213317
0.43190091052428
0.385321528159652
0.411944546966861
0.380330367800851
0.379550884846299
0.379148127815909
0.37426765229783
0.364425777200738
0.371848997822932
0.373351047147067
0.361437008651888
0.36361279103972
0.356918572629088
0.358738012406557
0.362608113402077
0.359645502664552
0.357267916723783
0.356529994579826
0.359135632986223
0.356736574735552
0.353989543411565
0.353417874328763
0.353316320601386
0.351645118733974
0.380255622915848
0.379995642159179
0.382308844599494
0.363028810664314
0.367644418791032
0.363182870348091
0.348542181536641
0.354792961912333
0.345399809117123
0.358878858800915
0.351886523167775
0.357461045413549
0.351150888718296
0.354242307571965
0.346080364877762
0.354009245048118
0.349047160360994
0.35357501560956
0.344711446787008
0.351073687886635
0.341489867236596
0.350501469525512
0.341780265925031
0.356261334752157
0.346947450043866
0.350793835978127
0.34776022291768
0.343991878713994
0.34913979458693
0.342911295178015
0.349234484922745
0.343561771533457
0.341842700580061
0.339316058573523
0.338577303337046
0.343699789732566
0.338811595343849
0.342970841138917
0.335754274523161
0.340348301105906
0.34107568292482
0.331312490104812
0.331998508148096
0.335331070647619
0.329405222677059
0.323416812957786
0.316101584886534
0.323094880962353
0.317875962716823
0.315373632399296
0.309442387793327
0.304877550416148
0.304597910690524
0.307409736166571
0.304336400657842
0.29770743053947
0.296407674146587
0.295334577173803
0.291116861704879
0.292469281964331
0.289195361406753
0.290505567409191
0.287097948924466
0.28862800977043
0.290246554887251
0.289678029637459
0.283818956715749
0.286469284747446
0.287306605358847
0.285690016239015
0.286833532721757
0.287387794560044
0.288824875438276
0.291982962172996
0.293148740413631
0.294658290211579
0.296209776314729
0.298543626603811
0.294559587812126
0.300153183480807
0.299336013062004
0.296928122229202
0.299150283710694
0.301850167842792
0.30253633221733
0.30586790562958
0.307503103622236
0.307318581744249
0.305470074573707
0.308333743667971
0.310817767516689
0.306000688709901
0.307035914707251
0.30655460398627
0.302049470254388
0.30427582660991
0.305368748656423
0.301881055902921
0.302345194232434
0.304380829234841
0.303483011981722
0.303742496086503
0.298290228507331
0.299490541106371
0.299501491812211
0.299663594382747
0.296243241669526
0.298631410846783
0.294435569625776
0.293335708456837
0.292386867793975
0.291723097805383
0.292834630117569
0.292083135323886
0.289992752260452
0.292574640962096
0.290394570245024
0.288859149824684
0.286038428194225
0.290429538139748
0.28806982260785
0.284883536263015
0.285837048136318
0.287169521112066
0.2835917796762
0.279944794385745
0.281048398913984
0.284820197788378
0.277863277607821
0.273648297437785
0.271172286227291
0.275389786143791
0.27193671805627
0.269441344428234
0.26862089489337
0.268897846296203
0.266242263043346
0.264146847622908
0.264496937385629
0.262894695494644
0.259019381960221
0.260139595099771
0.2557076753843
0.253874458133061
0.255400297032267
0.253931661225809
0.253851659165162
0.256010576346963
0.253668678767001
0.251777606899375
0.251840833732535
0.252190993693319
0.250674088482498
0.247142409381901
0.246037898142269
0.244483547319376
0.241357743188467
0.241829340877123
0.235355246215966
0.232458012215751
0.229055725732885
0.227228921446665
0.223944253188398
0.219817884606978
0.217533369126778
0.214964941912487
0.214919435667976
0.215425941567383
0.215091098284429
0.216243331901387
0.218003962526134
0.224087159606454
0.227352231135236
0.232466865196581
0.238781586397763
0.246616826086968
0.253302630189871
0.263083592376133
0.273248748459363
0.281871856875078
0.29208787537784
0.302906511100931
0.311922450974171
0.323060739806949
0.334666400925132
0.345510463155238
0.357580176430035
0.368862152422333
0.381846406727945
0.391209936067434
0.405801460544831
0.419370304947172
0.428951504373429
0.437372328568109
0.449060580451353
0.460551134159265
0.471607035217802
0.481658352247665
0.49127234951104
0.500777334222225
0.508253725765576
0.517919228209151
0.529176219655812
0.52546930623065
0.533870624266251
0.537169363145962
0.533074011082683
0.538997888317216
0.534364592468771
0.541395054838135
0.539061406915417
0.539893509184741
0.53992881487987
0.536883501425804
0.541872565912415
0.537472780237944
0.535992707344884
0.534593333238659
0.532580303656595
0.530489533996247
0.531556001041702
0.536025373906712
0.53905590375751
0.533946199237011
0.539783967347242
0.548513455689163
0.548999932258704
0.556021168275488
0.55507329586675
0.564556965105793
0.571160080712741
0.573591229850418
0.580728251751493
0.590270742292081
0.59727195227312
0.609126033827648
0.615891387082805
0.622142267414286
0.629578453596592
0.631440972850794
0.631080145392308
0.635211542133958
0.644528002494358
0.642372323709643
0.643782350649824
0.644554163875876
0.646721224336089
0.647599892966734
0.648217672591318
0.643256201373001
0.641809159097156
0.641170036277161
0.639881823196202
0.643834984213926
0.647658161551264
0.662912544757448
0.660319786372998
0.667993402386207
0.676218638008497
0.674679859870157
0.683270611981823
0.694020165414923
0.70233438179514
0.711602235910839
0.713294051103486
0.725384144104455
0.735803771924671
0.748360667407002
0.751730228228019
0.76275205408782
0.776194097770326
0.786287685984209
0.791770163761785
0.810019908152184
0.825075592428902
0.839775231839033
0.867259077171507
0.879102026844546
0.898841003527806
0.913355749754847
0.938941967049881
0.961164128625668
0.970534180259999
0.979326002455244
0.984962542787311
0.983308623196911
1.00955668567663
1.02107913545211
1.05749537236424
1.04199499794403
1.06888572625485
1.07086589460991
1.07877685653347
1.09406597293446
1.09289347661378
1.07597103027
1.0871597709011
1.07081219362566
1.07516305629287
1.1047834672052
1.10818878802861
1.09505072316267
1.11253597170091
1.10649220814872
1.102824554852
1.11548284025268
1.12104116284287
1.12637855973583
1.1184894217254
1.15263436433751
1.16597288542759
1.13518562585538
1.16403088325644
1.16323222138518
1.20424155974522
1.18581490857808
1.19802666471643
1.21527785158194
1.22957876612906
1.24748024611833
1.26049924541745
1.22988595718184
1.24750977875499
1.27804458448149
1.29171546445663
1.30394858542505
1.29203810135501
1.29355902550335
1.34317917894894
1.35359931394876
1.47363732281404
1.39899911192721
1.40492535323332
1.40468559250469
1.4181436014907
1.3784346641927
1.38254952419746
1.41053056493357
1.42732237616349
1.39968622345121
1.46464042764342
1.47785902305852
1.42500143600773
1.52020498526105
1.51784752247598
1.51465340042825
1.54829721766727
1.50202885404716
1.50825764708112
1.49388035356162
1.55515901344722
1.52024091196159
1.45575034603653
1.51144872511196
1.4760908520811
1.4133770528447
1.45032168609429
1.43630319289232
1.34550106108963
1.30235830827255
1.3017989482083
1.24494966911274
1.23822789900771
1.20024039857493
1.17938129552709
1.13280563777265
1.1588998214063
1.13217359092874
1.14578478937697
1.10544484284663
1.07530811775831
1.09131713402583
1.07693142477894
1.04677942682132
1.04220275649695
1.01326877643709
1.03882167143026
0.986585013072095
0.966302131965095
0.965869441339611
0.938112230414256
0.894832429934572
0.880417328216815
0.86412060025611
0.823427385391769
0.780984799953377
0.751924600757622
0.714448043399629
0.685722870957931
0.665562078267301
0.630961103504234
0.601507199714018
0.566158878203282
0.538266564874692
0.514095118283785
0.483907460759267
0.462891837524481
0.440172205475545
0.41846753367407
0.409181323661143
0.392357902103936
0.370815812421664
0.358921999658255
0.352284093742987
0.339947304483647
0.327374207818611
0.321668913338276
0.3140361306205
0.309531377901074
0.304346100914482
0.299759233060925
0.297757552778686
0.294508562493384
0.291936825352153
0.293120587289361
0.290464087381221
0.29130018995165
0.290591171087289
0.29365787292068
0.295596602482618
0.294597848032804
0.297446716399912
0.304519043162287
0.303723835902197
0.300041031363646
0.30130882824288
0.304842917779576
0.301410563561167
0.302353592879369
0.3014304180907
0.304522349866491
0.305703059650152
0.304150600770244
0.29832532507413
0.299665217453315
0.300128203972833
0.295662793904453
0.293760074266707
0.300203121810701
0.298236482042773
0.298057732943835
0.301721727793307
0.305198138227099
0.308116504592143
0.305597820514497
0.303828828119551
0.306013380707225
0.303655055636174
0.305113159207402
0.311804688205706
0.310327162961067
0.307017667760231
0.315469148148335
0.312801607112276
0.313146823661407
0.315924036194504
0.314591994430685
0.306859879320008
0.311531179628839
0.310517726707472
0.310162899643688
0.30721814394262
0.319129310166604
0.319084937694692
0.313205999811784
0.313775520332319
0.318820368470187
0.324549814523041
0.32308848913055
0.325228150483244
0.331627315804451
0.336984296385839
0.346830522091231
0.351004887200299
0.366635431714191
0.365723708573919
0.38096068677674
0.383886005186608
0.391490816513468
0.402856887425994
0.395093925225141
0.396646795229249
0.394951484817183
0.394273887566699
0.384960057426457
0.374899966643274
0.382981636967811
0.373482959637012
0.358992213960949
0.356874077142948
0.351385585711783
0.350304383671206
0.349094012346171
0.342449134813071
0.337713797901519
0.345015647941081
0.352574950853408
0.346062324292535
0.344680160947514
0.353940880902592
0.356298564620485
0.350457363891506
0.351398217736023
0.341565906927723
0.337781019064124
0.333446414184628
0.333905193818365
0.326399552928166
0.326836915396429
0.322126435173509
0.326266124722859
0.325023989250317
0.325453852315342
0.316497168301204
0.316755039850077
0.31623290436971
0.319506186935566
0.308397935961287
0.312862415139676
0.306750889482967
0.302935022346496
0.303981775930636
0.317707543827672
0.307480675423286
0.295616699619093
0.295191796987885
0.290062326521929
0.287364755773809
0.298653510517791
0.293560405984358
0.29123836470696
0.297253713765611
0.300702514850751
0.292285896318961
0.290826415880854
0.287990899805195
0.287628112703136
0.283059556311277
0.284514895665544
0.280300240985821
0.269905388787474
0.260035205731389
0.267614892969906
0.265330537635335
0.270820572572073
0.262970034109827
0.258642190032329
0.267850037466979
0.262951316076303
0.262256523972427
0.262061440772292
0.260869508102089
0.267895039200275
0.270151224069616
0.267265744067997
0.250402463341702
0.256337453476203
0.259766471777462
0.277273384197118
0.273258528268424
0.276264036082938
0.276931692621104
0.259706535293771
0.26878927985846
0.274745398644488
0.281536320980778
0.270636861058618
0.271411545470335
0.286197934601812
0.290791763055426
0.290276607292971
0.285014406556121
0.28993749102535
0.294228120260912
0.288838996638193
0.301206105553917
0.296809029716662
0.303462139877708
0.320478887086997
0.308121446947195
0.318687725603834
0.332398034936177
0.339122085556009
0.341500421024092
0.368209929583008
0.355235182009524
0.350797785953868
0.372591347551648
0.397740407230673
0.399259033490238
0.416426054033012
0.436896649253449
0.429134285241625
0.414232891679261
0.454426716557907
0.448841034707511
0.474677898462232
0.477543733593586
0.452325641136573
0.470779128136477
0.477502969829274
0.47327152324377
0.466133704452225
0.447898765824425
0.475578443839956
0.454693723098028
0.448645659163476
0.433370558050315
0.464897163999847
0.465614148811446
0.438847753712999
0.453593970675599
0.475117565577698
0.46402190168305
0.471464665275369
0.449925215587948
0.449432758839635
0.456951162650751
0.439063847741698
0.414871785648616
0.437678597366364
0.454675476443635
0.448168239984962
0.468340067644838
0.448672644861695
0.421168736284861
0.432160977826986
0.427531511650361
0.416816615519757
0.436909958932315
0.433481245739056
0.432940889538737
0.429795622200965
0.403377264744477
0.384268371321607
0.415616218193897
0.417059200288101
0.425089632748355
0.404028480220519
0.41922044837232
0.438045905114338
0.432611266223271
0.398488709551422
0.413097351355773
0.431234798562761
0.418854584330465
0.423054738882182
0.436929387756033
0.456432325555932
0.427453146049146
0.395008559191556
0.453443242334217
0.455641053087447
0.392561742051669
0.397861158441561
0.42105062150114
0.464554647055328
0.404632676043667
0.425580178581108
0.438210612930241
0.397220954396615
0.444295839528013
0.463965945906149
0.484826579117218
0.474191180156484
0.462606544154713
0.477491959282101
0.478301236300153
0.488589345660881
0.434265042997571
0.494963338643917
0.534778779219158
0.52660241720327
0.506822433753208
0.522765875230895
0.499568695216877
0.493682606929847
0.531014510050249
0.541937681662323
0.535564574742338
0.534937923167484
0.614998926025475
0.606154909747244
0.567512108464385
0.610669353796137
0.589062130953295
0.543887836362104
0.59077012211736
0.612797748523661
0.62964171688182
0.618989598233555
0.561890753624485
0.564086388761258
0.615502150419047
0.542489923749112
0.526388079427403
0.517407061176845
0.551523045868058
0.662784151376678
0.675159339419238
0.505071688100765
0.544809867959588
0.553097524133514
0.557857095750523
0.538912570796297
0.571781281937515
0.555575786259372
0.738219315949262
0.651476750718544
0.583472202233646
0.63742379975793
0.559726264288462
0.579303584377285
0.92092125497417
0.561171972911356
0.435062108761298
0.641727246023652
0.536946611264833
0.593431581144472
0.696775308173145
0.471323588124243
0.504689803392458
0.507500992426419
0.420436524112488
0.483202092028397
0.640663017683197
0.497540631233709
0.443293504462443
0.469796652648165
0.572703586492584
0.765464832445277
0.891369177996326
0.559765118514229
0.431803734870434
0.526594617680981
0.657750831734387
0.828693054293371
0.759146324725811
0.546542569354845
0.349532089925936
0.575302873135443
0.754311879553383
