3596
4000.36533379555
650.420452594757
1
2
2
0.0988656618958893
0.112868485131309
0.0999312426101615
0.115115659051834
0.10880604899099
0.119451710369066
0.106869043243753
0.114615036700051
0.111169165382706
0.117283983028116
0.101370818573674
0.110559216098834
0.100834391496506
0.120517332639037
0.102997022997083
0.118823635420295
0.106043117385751
0.114721968925289
0.111293493021489
0.110279334034737
0.102487265580163
0.122487224158143
0.0992638669602748
0.112110666397147
0.103034502875206
0.124655512721987
0.115160338063175
0.111234535626867
0.111699904326138
0.121335196793306
0.0981588963750505
0.108681911075823
0.0999287757208625
0.110564587957721
0.10318083287117
0.109397200992659
0.110135555996083
0.113873857531164
0.106381399019112
0.125760011573241
0.115470338382797
0.119565840485333
0.114321005228451
0.110633453044641
0.103569097561572
0.117279765694092
0.108153241624287
0.110588946840717
0.0965320400565403
0.124542274820334
0.112649977692386
0.109286137691658
0.119781575262997
0.126872156284967
0.116315064521006
0.134541691063105
0.110995918163499
0.113033012923738
0.115826429138793
0.124823208206281
0.129439064976306
0.126810564992553
0.110737527800563
0.119399254782455
0.0993590237427912
0.121465664551004
0.105534935583343
0.117015957909455
0.0968417403164601
0.125489961144714
0.101540218677752
0.129495501771387
0.119984708192349
0.11963964512141
0.113213472967391
0.120606991123725
0.101383990676937
0.1061006701701
0.103048300842196
0.125577682098287
0.118308770441974
0.122452258653622
0.101963520825688
0.107951600921057
0.113263331998125
0.131329269603527
0.0991283332341183
0.126986178213064
0.126161659044901
0.127407136174916
0.101929157091663
0.102042041425469
0.0942925579668358
0.113291186008199
0.0960309069551828
0.103892493201691
0.0961994298201695
0.120123558093244
0.0979405887821767
0.126205587221832
0.122942853435166
0.14504409644699
0.155041552204471
0.114561085225009
0.177221309310384
0.126719436783885
0.12230853750558
0.166100433130582
0.117752203966818
0.125141674505498
0.100328506524635
0.116915064245254
0.106575850437209
0.127458551351756
0.100909556459182
0.150854774229389
0.14077020858965
0.116522159646783
0.0953852861851544
0.110340176907848
0.0989092226898322
0.166164010125082
0.140696986239946
0.106779161890642
0.119746595261272
0.117242493091022
0.111313606808338
0.163908392390342
0.140785866895754
0.105234630004612
0.0994083008647985
0.110662231211429
0.102627790350279
0.115964857337317
0.151610739242249
0.122597474790614
0.117243050897225
0.114053014228475
0.153767303477953
0.17869532113894
0.114908527877855
0.112801150747937
0.091594936019975
0.130346744271857
0.156767624023008
0.114025821564377
0.104668867445626
0.137740003567097
0.110625493882685
0.108958655297792
0.106882093903443
0.108298994045147
0.122833661737632
0.122370724068938
0.100274225044831
0.205073906756249
0.170657303215087
0.160104225692442
0.172362725645195
0.109195472219088
0.113178902973321
0.104894370851119
0.107525683547904
0.0981604585227761
0.102912970063504
0.103083808065444
0.12947953174876
0.136427214407504
0.113609515256691
0.140098460962494
0.149531517287445
0.127341220387779
0.121341171722455
0.191273213023666
0.114548791200958
0.117258888440046
0.143718059896482
0.116158826938776
0.102833212148271
0.13108214420218
0.132742083600083
0.107929495480191
0.107923171469884
0.104832596915419
0.114940629929867
0.129850675789693
0.107682548978731
0.109715007963795
0.107538690464317
0.101822912348021
0.156245040541275
0.175843157886008
0.134600335278404
0.115715852029583
0.10151385441998
0.0904830646092146
0.1653116381363
0.142303369071841
0.107183594688763
0.104881318949006
0.100015612270134
0.103063055319128
0.0958779163796996
0.109167006645641
0.0986905066720834
0.106297860688663
0.162661477321993
0.125665546046165
0.107143174010095
0.102437209651338
0.107341565800925
0.120552205129139
0.174339412365049
0.13641652877082
0.103620522530196
0.117525132905915
0.108853410283958
0.136382672990634
0.128438409913078
0.108054595130946
0.1040164106317
0.106955728422751
0.102880217086556
0.0982703238318891
0.0973231748124574
0.103611002189397
0.101876711167914
0.103220245144146
0.101030449846075
0.10915627857765
0.119318287846747
0.10909605355608
0.100905058257308
0.108300342317194
0.101205118042788
0.13827870806764
0.140448498815472
0.110018301658426
0.109153451712805
0.107540525486579
0.105594462876283
0.107064814801894
0.10686398417387
0.108246761024785
0.105082536822018
0.123705591269403
0.163404594848019
0.114761192942376
0.111018010898881
0.105041079593741
0.136976673370808
0.127921703263408
0.109788044611366
0.106764615317932
0.108583531038777
0.103369697901887
0.120954379993237
0.152264698025878
0.119560130801134
0.110748764645321
0.129864974027829
0.12255357554014
0.117637571299796
0.121693296034104
0.131452093199813
0.195538156419434
0.12840862897613
0.141617392639325
0.186763581143079
0.132349000597189
0.132977390719784
0.119706658837379
0.115213652056893
0.255475663279271
0.1734366139703
0.124608007129259
0.124903035895978
0.138628029976953
0.119016979235654
0.136385400758467
0.135835430375044
0.154809903289385
0.192388065558683
0.208658595131765
0.178662325466124
0.134555142815858
0.188156052155512
0.153441212667406
0.125954641558523
0.128695684631845
0.125045999716116
0.135936181203252
0.155058384344304
0.160122652028164
0.15632430043075
0.143093920273721
0.148220505220365
0.173359041817127
0.144579091023265
0.142217217486135
0.1527835069246
0.149642373680068
0.131444867302915
0.142006643893707
0.14091957765642
0.158156571580926
0.146479427241843
0.173919939635252
0.215895228220522
0.170518846729419
0.168909374448479
0.186271430387867
0.15191960130807
0.146939727664082
0.148250580891631
0.142077711286325
0.140226950879375
0.142557915740637
0.149944120104171
0.185091388530952
0.151716936887358
0.139893309115911
0.144406025457604
0.146032466052709
0.146747313351978
0.148169984226877
0.149832616888587
0.154445350223906
0.149075008118427
0.150721618464676
0.189767072912346
0.17544762447449
0.15303201378966
0.189008634523844
0.178579820282528
0.147564895694207
0.143065693286827
0.154131097905383
0.145402619540354
0.141753668690781
0.167879138604238
0.176096788528502
0.185507482276847
0.197583966012577
0.171645984729748
0.171348983674129
0.196164178994189
0.257780617028154
0.23561997691624
0.187212104326017
0.167103341253357
0.172149600192457
0.234189979260181
0.217397323011417
0.214634881290262
0.208056724650803
0.184989386525277
0.183777714447844
0.175717838192902
0.186360655764272
0.186669841526362
0.186551936944653
0.186447598533617
0.193521736730959
0.192499164596293
0.19600722049545
0.191506223183988
0.214048123807833
0.244963400122246
0.215329460191183
0.201626572262385
0.206759536117988
0.207513646967058
0.254151982296243
0.276189234047863
0.277698962009319
0.257527916579306
0.268037433630398
0.276001576477968
0.240769651043135
0.224180400886931
0.220365003712641
0.223403985453017
0.234178878494655
0.230957704118091
0.229329181614791
0.232827147547314
0.23960243462031
0.241339824832877
0.238049263326712
0.23653004249275
0.255041097625817
0.27853333105637
0.261957397550586
0.25190536484164
0.265667084031267
0.306413776463468
0.351543442717649
0.318519075519855
0.279805028236755
0.270964657409071
0.273304702315716
0.273849907678714
0.273595551423966
0.293387266458697
0.295414218144731
0.306465346044857
0.339133495300781
0.314934243273942
0.324195588940239
0.314711311431287
0.302843156478539
0.334072026116156
0.329556600424691
0.340559999130533
0.363295982940557
0.333936787395782
0.327473750744121
0.359101450058669
0.355528946075615
0.354692332597798
0.365477462375567
0.34761644132788
0.34351202974966
0.345482187651945
0.343931210710053
0.362176237459437
0.378175035987175
0.364512947873184
0.359665084673361
0.384532596416395
0.38200298062902
0.38010301790663
0.402012211193962
0.399752617462185
0.409840250927632
0.403564487589502
0.399438357745375
0.403794834377481
0.40873707458412
0.447130060390754
0.443157657850286
0.448528792884748
0.451102662465516
0.423249206789768
0.419943311078039
0.433063529042005
0.425224637246501
0.445688015476114
0.461210398800908
0.450367697736175
0.441233266137543
0.456558187592228
0.45536455202978
0.472286471996086
0.488400511892492
0.456442812131246
0.471507047201609
0.488781189460647
0.479516477555598
0.48291025204228
0.492820646799318
0.552524620169072
0.553293888913906
0.571185050636127
0.554855300248406
0.513081766648753
0.50655107087445
0.523319273817852
0.514186099246894
0.554695746356424
0.569350693429512
0.54259159139899
0.539694891379929
0.573863025870554
0.56175226676428
0.56179039138392
0.567214563040332
0.570412382100406
0.578760445406327
0.592853514046718
0.577164217018587
0.582108418807538
0.594205876852603
0.6085072079498
0.601723420509574
0.610142894898818
0.610005213256671
0.623141588445375
0.614128481911093
0.627417523658079
0.637680216188893
0.646733291507506
0.651780176799477
0.652900009992729
0.641474832676659
0.650654511844839
0.642333315826058
0.642884584314994
0.663184672762104
0.684592921488369
0.637103268912332
0.665712130614534
0.655775536001969
0.634378652078483
0.701301644440134
0.733799211124526
0.685689555459125
0.694084774930941
0.691357749551086
0.731048619596675
0.732242966617027
0.731295667569988
0.724004710495672
0.735641986360168
0.713677739494631
0.760747993445018
0.772981943888742
0.71317728429021
0.747050415223362
0.761772572615898
0.713361817243697
0.756825051617022
0.750364210668327
0.810445460651109
0.81351190943085
0.782893368419106
0.790099031478566
0.762485970288131
0.776647289730048
0.836824166476636
0.802510490395649
0.774050492170676
0.79631698953529
0.869281384915387
0.809119469032911
0.824144058004316
0.794202431490017
0.841343176409616
0.85080425809069
0.845521737041957
0.865408006639336
0.893306374363325
0.850614020739306
0.869583665132428
0.894208914263073
0.897227108598617
0.840242591146887
0.882547064957135
0.844447070630102
0.849805451109446
0.883065955745784
0.936136431152765
0.8879735348002
0.932258053077196
0.951672305283894
0.959228435069848
0.939009034479899
0.938151141913573
0.931623015220091
1.03352993659328
0.926415945996661
0.970764709703367
0.978552769427402
1.01299970997513
0.93449963989487
0.922315113615642
0.974927294973169
0.94933552319907
0.925763071716465
0.906025499660664
0.89716095900793
1.03572525118449
1.06626769622275
1.01994059653677
0.951970635630317
1.03936181164861
0.994404982378527
1.01500498429982
1.02295455185448
0.997591274708423
1.00530054159153
1.0790581114456
1.03066798076828
0.984171552917635
0.977227776600884
1.08498892250641
1.00676932101236
1.07105406368627
1.07349547269477
1.03473915715278
1.053289915
1.08903858489189
1.07480081153831
1.14263977516439
1.08054786970204
1.07082898641388
1.11064588705539
1.0876555578749
1.05895496673152
1.11064852462888
1.1264443437748
1.11867736679068
1.05920479852088
1.16373321197986
1.06560514217092
1.1740926540291
1.17000400552076
1.25640464472291
1.1597080699193
1.12473497478477
1.17106140920151
1.20632446541946
1.23613684980682
1.2529679830742
1.1492608734045
1.34611344476078
1.11458797203432
1.11791529561491
1.21066835478656
1.28291874493166
1.19330502009753
1.22782951065308
1.18959125720981
1.2328840327308
1.11399772225647
1.31377906809584
1.28824404715468
1.26733161230635
1.18408592943712
1.21695025194399
1.1592377945771
1.12079877823485
1.14504549701929
1.36874116870976
1.22528622486724
1.18172452197236
1.15595447251598
1.31730609702246
1.19039063668844
1.24891800261131
1.13846259429426
1.08445411447523
1.22922520520442
1.45572911610169
1.32234595652627
1.55113242735394
1.2145712319779
1.22046455539777
1.22350631843502
1.28387449763248
1.22186547667817
1.33957011212335
1.3071071591901
1.35589461013213
1.29305456800635
1.36545976885732
1.32731782454323
1.39056168743694
1.38233015353103
1.33935715453664
1.31428068780327
1.3144214449105
1.30871830428296
1.4214858082089
1.30839833299559
1.39638650453557
1.46610221506676
1.41385990938522
1.32904071433448
1.42275448350146
1.27562664221561
1.43180930354886
1.36882523092617
1.36297783013441
1.31026981781292
1.37398359098741
1.29230616632867
1.45065168618504
1.34092774833489
1.46674924564311
1.56007356289149
1.43429617424033
1.32770529032329
1.38093180355978
1.35242380340897
1.37325932285751
1.50428736968615
1.46979165822578
1.50283336762155
1.37430982078805
1.2781891797062
1.40178182738007
1.37231945707665
1.60084775958695
1.38624173840154
1.4298942858206
1.42396907628348
1.64408132449954
1.47938591126082
1.45520497664348
1.33798979684366
1.45639551748336
1.4991321623829
1.49690089495428
1.70318039085994
1.56342257815747
1.31188363158393
1.43609247503903
1.35884956240804
1.4794937166379
1.37115473199871
1.34550673583776
1.37866096704309
1.54636868061913
1.43854685687845
1.67314248150489
1.45346355287646
1.41200261487208
1.40803403829545
1.4172069609613
1.34622012028378
1.49050915594588
1.59868463615125
1.4943682203807
1.45659168642129
1.5714879676612
1.40642443912389
1.51071515843612
1.28991596475716
1.34379897473915
1.32503230533398
1.51074249981746
1.32543621872007
1.57719445133766
1.38281843857504
1.64252553115727
1.739192854302
1.35040360499285
1.25705776278794
1.657420507276
1.51798820808174
1.37747805991178
1.37987067367398
1.51554160810793
1.4040791054285
1.50665219437793
1.53679658154093
1.51985327897044
1.50650624319702
1.51294206492071
1.3261887504923
1.36277361237952
1.5011036056896
1.6510749305611
1.45464689046762
1.47044808686884
1.48867986576721
1.5430085573427
1.37057139615801
1.57486532379144
1.43792564281391
1.5489335457137
1.45181733366545
1.55939873906779
1.44214422746071
1.67711923011594
1.47387852512441
1.50693503373708
1.43507299477678
1.43492976992214
1.22121883939365
1.50465293554934
1.38826543023292
1.55713155441779
1.47359213934233
1.45853778040905
1.5603674383734
1.62023110423106
1.40938506119285
1.40948187968016
1.50698161326494
1.52702504334563
1.28847659856012
1.63278386401407
1.49421351172545
1.54301099192057
1.54614939984938
1.47005831521971
1.3057116717266
1.4015302486635
1.53462163093419
1.39617949535349
1.48492434054834
1.51865656972071
1.35080764747139
1.52366755421899
1.35769216920601
1.41870311836897
1.40822297146547
1.50538150456665
1.3503335406542
1.42320778497516
1.45475052876608
1.54967993302923
1.41253801029762
1.51132985970387
1.34710369226469
1.51376315971858
1.46384045725762
1.59442495860614
1.53104403547685
1.51063913419912
1.44945464148737
1.4439616234997
1.46461954716262
1.47095115612462
1.46021002023236
1.5461450109913
1.44277938253377
1.53557863410403
1.33510268654901
1.57053873021946
1.34065170772137
1.34146331159551
1.35624348654115
1.44770620598993
1.38202240954821
1.42910180447249
1.37101511631713
1.47517536306634
1.4138958905762
1.55345606369629
1.32238474796054
1.50836024462779
1.44300102864127
1.41098888153696
1.32760897658838
1.38303404734025
1.34627433394525
1.31460646338482
1.3571849971614
1.45781720763563
1.32454176849982
1.4910720654389
1.43149155849537
1.35456671969063
1.32050264331458
1.44113816651727
1.28602252695573
1.34794479433314
1.29663712540407
1.30702450499944
1.1986372848372
1.39100587512377
1.26040505966917
1.27797003885127
1.30522005487339
1.3626397607034
1.25018092597901
1.39164560458729
1.28597511705717
1.30427631716322
1.26248012929291
1.28082210861321
1.2665088609607
1.29314841592413
1.25038565668518
1.34468712303221
1.24518297446736
1.23343432157335
1.21846941085396
1.28420165471256
1.2286225494834
1.29758499753655
1.25499942372397
1.23848441039101
1.21867242592424
1.2563192896357
1.18245990947664
1.25341624415714
1.19135744020786
1.33378486553335
1.21034013952172
1.21451328681332
1.21842156903598
1.19016110339872
1.12469213014555
1.2444455208148
1.14873308446582
1.24147655203073
1.16346054325574
1.2017198329079
1.12314153416664
1.1058298117243
1.11060860421571
1.15790609172263
1.12379385812554
1.15709632995315
1.13941155476027
1.14682471592665
1.08774838339902
1.14814810921161
1.09503428757231
1.13110475587262
1.10622642547928
1.09720611665782
1.08731342579449
1.10619124413401
1.08282681673835
1.1125219854437
1.08323724845615
1.11549073721034
1.05341335059861
1.05214008669647
1.01337679984157
1.06142696996418
1.02325213653382
1.01586105330358
0.986314694085433
1.01150770801113
0.973383376641944
1.00934813951694
0.972791389094973
1.01747762965759
1.00119790028778
1.00780771625446
0.968031846113143
1.01633811518859
0.945407378476158
0.970336838695001
0.938769324089989
0.950418910722677
0.89398349157089
0.948993980189925
0.919888157979472
0.935090874526855
0.898370461407322
0.954541284619058
0.913287580249398
0.92083015241859
0.897258113956453
0.910204484069383
0.855629618896288
0.901069574968881
0.89014342025888
0.875343942931546
0.876504935310558
0.918817386772657
0.881368715252485
0.855934705023957
0.848717451445274
0.861924412903523
0.85192558391156
0.881693670465952
0.834406660034331
0.8652193318761
0.825411274702524
0.846286733427524
0.801783648083641
0.831021602148572
0.804743344659221
0.813344647215356
0.780996862794924
0.821227456152324
0.794865313477863
0.808086265406997
0.771619843821832
0.784194486938849
0.782287036097606
0.769884112085017
0.760757812389942
0.776471310257839
0.733020007985512
0.777884811689753
0.733364389756734
0.756063636335584
0.749601692567565
0.769983593100075
0.729602766323882
0.741420676941505
0.726691270015346
0.737333919945324
0.713404496328286
0.732968275231087
0.705899678704518
0.717775844329231
0.70175023395818
0.706626423995084
0.68118791308348
0.722628126244962
0.693749968744505
0.700383394890603
0.672613519094942
0.71335960961934
0.675295803602423
0.683154642889874
0.656238402183462
0.667040721020527
0.653755486631274
0.665004990695629
0.652271466182941
0.673350302594688
0.636285644916582
0.64354711253617
0.639428130448228
0.658249572940721
0.64941451172092
0.63821555164428
0.619226180238877
0.634489560138461
0.627622122235143
0.621562453056913
0.61134347154315
0.612160929355763
0.612409716923919
0.622502447902236
0.598297274411197
0.616389448495335
0.606362176972834
0.612713908278715
0.604952321133408
0.596265440529348
0.589202431478921
0.591488418947767
0.597105830449212
0.588293377104954
0.586270141600761
0.587594308865615
0.578830667428067
0.588522164582252
0.581043821154834
0.592075209346482
0.568081260159624
0.580345059724755
0.543708072461607
0.572405287112024
0.562284013077981
0.579607928787684
0.560112018964743
0.568830712235237
0.544398806006531
0.550840097563297
0.541064983248245
0.559923304745176
0.526341833288461
0.55262068122693
0.54414034013941
0.557536892991334
0.532563317166949
0.547858568643028
0.539000187538417
0.539547352219327
0.529128701935989
0.552183335219052
0.542018666734397
0.532281110637152
0.524039419683683
0.540881277678498
0.516022073169212
0.535293068835693
0.536483721528419
0.541596483566255
0.526752215538957
0.526380490753904
0.517295994969462
0.533389037488596
0.522814811245855
0.517885703079717
0.511074194679341
0.522071924237358
0.530194197847349
0.531040323401386
0.509354380132107
0.51559259817415
0.513121994332681
0.536439411770946
0.513308566656781
0.521838970465503
0.52314250698927
0.540197267367409
0.528243875601713
0.543067721961751
0.530878442670432
0.536245330992719
0.542839722975233
0.543870939243419
0.548544029131261
0.539201616926051
0.535929411766141
0.532139933463026
0.539478985810079
0.575958571974455
0.557160147794881
0.559414051503824
0.544526964750658
0.561598228775773
0.540812983524798
0.552079285736248
0.548347968160314
0.572150232005469
0.571399982696021
0.584585690262228
0.559649463289898
0.570490946027793
0.552026187005229
0.582220314268019
0.571245651239386
0.581003352955522
0.560849568598129
0.577634604039769
0.568364327051903
0.583773085429614
0.571244104927683
0.594270568865504
0.561102853427117
0.584303136658313
0.585833105480263
0.600373426849583
0.564628193893563
0.592703717379412
0.578719170335868
0.59970112602415
0.602046517015086
0.612493323462156
0.620900535184856
0.640964965996612
0.626153008481485
0.629217821369375
0.618669570857567
0.645915288963038
0.623735007637425
0.646093807770723
0.631534006974991
0.651860963552055
0.645868538112598
0.658657601200349
0.658964526186687
0.676787464957609
0.65303244370094
0.681700938265181
0.664675683622873
0.675470758928294
0.665744989584947
0.690928815147083
0.657970798723269
0.679485230433709
0.675228879689511
0.67238807197951
0.680236758434835
0.690325116632791
0.663096275268539
0.674431286950618
0.67729395577636
0.671403620772558
0.682096292389058
0.675232169712778
0.671428528119514
0.704997681576233
0.660032664788951
0.663586446724342
0.646935461148952
0.664013435483041
0.631435838712649
0.663840810145096
0.619230470304062
0.642309052372512
0.627770897523597
0.662020819460554
0.613687067685361
0.639556321429943
0.623777731919708
0.643495334355802
0.610949459665577
0.628386301543033
0.603886806820711
0.61889353368332
0.616755483679293
0.607912373545251
0.600050503195767
0.615352420468053
0.604231262669224
0.612668375718965
0.589992905011957
0.615896157243403
0.60119544583254
0.606073159631178
0.606701338378783
0.623174723241034
0.582177751065742
0.614245429026522
0.574980126230987
0.62741212317146
0.594653485318918
0.602015070465011
0.589091280806637
0.596050781046618
0.58329311233474
0.585774580311674
0.580423799661753
0.586318257308275
0.586231733198311
0.586548400761949
0.591780172695317
0.591431526680217
0.574969682086855
0.58951682503082
0.572057661444197
0.578358202498336
0.586294115073065
0.568355448259484
0.563047528822936
0.576180482782869
0.561751007495836
0.574008240513869
0.543330368401145
0.559869484884246
0.545443749717978
0.556494067612905
0.539003423964689
0.544991381775527
0.541638407606879
0.539841767293092
0.532686324307412
0.530459247493954
0.513874922798987
0.519667449145328
0.49699853363712
0.496749391021479
0.486623852118809
0.48666373027534
0.479950353829435
0.481454987565351
0.472824556084341
0.477014599407407
0.467926045214041
0.47842361921804
0.464678152583476
0.495244236669679
0.497092672109394
0.507778362167186
0.49277835042269
0.475085944654333
0.454636117526368
0.464841680921441
0.457937941910783
0.4575861122494
0.444844566696545
0.447858273531365
0.44050936536941
0.446242800422558
0.435608444149589
0.448703226906653
0.435172988222134
0.438713444588933
0.432123914288362
0.439237259346929
0.428273401960249
0.436911082165918
0.428097629669454
0.437712828243499
0.425768615302023
0.435159951285392
0.416801411929488
0.424382589579792
0.42111412035678
0.424172382667538
0.417582702675299
0.421208823989084
0.402493164582569
0.415242660891971
0.40204300587849
0.402524099596452
0.400187206437645
0.404726022830832
0.399213251559419
0.396978796348968
0.386156438290955
0.387045749873397
0.386730191294392
0.376316740006242
0.373432833455327
0.379723664638429
0.374269837398665
0.378101906806481
0.362917704801748
0.371163258060652
0.362792332856442
0.36225537807885
0.35653370638574
0.362613069239519
0.355869080381584
0.365210944283353
0.355685084956687
0.359905666011969
0.352901683679881
0.360640541641376
0.350388209771043
0.365084185766681
0.346592899594785
0.350877028038183
0.341768371982419
0.344724768895926
0.337969503790344
0.344887287090737
0.33902711820177
0.346020507387886
0.337003904536195
0.346785227190197
0.337683181051563
0.341127570062371
0.333737546352591
0.342127960180429
0.33071917553735
0.336640438443451
0.327529844776086
0.336002476429928
0.331076381883077
0.340147782672379
0.324909725037747
0.333042712888313
0.322255037877809
0.325632956620046
0.328345299859372
0.329667448360789
0.328859828539698
0.327194808440283
0.318586863611041
0.326494847058474
0.316600225707489
0.32124659166231
0.318837339637705
0.32409714520613
0.314622659663515
0.32574018675774
0.316387787433774
0.320386263365752
0.310865055700356
0.32668198707072
0.308407046698008
0.316216511762998
0.317988288468319
0.312836611468769
0.306763904350263
0.318781282305016
0.306169257753385
0.310541902243754
0.305408440521731
0.313207929513088
0.306116327678684
0.312246194827406
0.305885219095194
0.314812508942546
0.308115196383276
0.314075417936474
0.299368521907223
0.309783227694572
0.303147808988817
0.301556202197875
0.299809338902887
0.305541720526196
0.29869681777304
0.305364406803746
0.303284809342546
0.30832926952938
0.298098390114897
0.301438534895849
0.292592099775734
0.303995166020213
0.2998383090018
0.303591662222164
0.297909277799734
0.294500108307593
0.295757651798641
0.301997512551956
0.290399828543176
0.300050969598056
0.296198099118568
0.302959592075679
0.291174975945639
0.300128277098786
0.290314974500721
0.296109108176146
0.286375189064667
0.292939008844221
0.291284284800525
0.296357418397104
0.282828425752463
0.292087746026825
0.292728058931691
0.289506242792983
0.284018420594211
0.286807174105204
0.28215745430933
0.292051713079785
0.287044148234197
0.294900753242504
0.286644811779093
0.289928096949138
0.281962593105164
0.283780735747883
0.277937989572285
0.286733059376077
0.279222650954767
0.280358848316836
0.275873273964315
0.286164138319102
0.278281153290427
0.276423686446236
0.281200075937714
0.279333519820604
0.271568469825461
0.273995000090959
0.274607907234816
0.274100148108256
0.263840542073889
0.277899267273922
0.269324069553131
0.277722102688497
0.267719913514331
0.273762174065862
0.26556229984758
0.27122612103689
0.269436830384578
0.265686865823758
0.268642170879573
0.271298100472957
0.262570142288204
0.26668274915097
0.263229195780933
0.271823309515884
0.263446967242531
0.262730530653326
0.260447715840004
0.259561552249878
0.257394333639776
0.260168288299487
0.258614254842208
0.261143805677365
0.257744381430165
0.260617824243245
0.255831639726728
0.261592875851219
0.25304977170627
0.257496637545704
0.253324700156682
0.258264300949258
0.250191757846538
0.25467276027524
0.250698666795271
0.255238311484926
0.24679705134548
0.256180906429192
0.251772688301439
0.250068535862249
0.247414479364093
0.248987584180229
0.246614299608182
0.248235354872152
0.238467171668874
0.242836246981677
0.240423961765853
0.243870073960705
0.240146989008812
0.241434997599748
0.238146510123821
0.241746404152537
0.235589221109685
0.242504712595482
0.230727644589813
0.241891808412088
0.232546196738725
0.241360410860867
0.228037348556533
0.236463786457225
0.233984588619132
0.230096990444595
0.22484846688511
0.234154518073862
0.229701084261657
0.232413224517579
0.228423392901175
0.230025845830249
0.227760473163664
0.228529117126179
0.225708292399379
0.23182617703985
0.224683613230329
0.228390199589249
0.22501333182661
0.225276592708985
0.223205054998303
0.227509437686313
0.220304288707903
0.226522281109965
0.218511035645308
0.225740899998179
0.223552339685214
0.222597047751431
0.22320932571749
0.228417162476334
0.222218118917659
0.216730308503731
0.222508410062778
0.225268334457302
0.220044845513717
0.222631132698764
0.213253974166932
0.219082766170028
0.220594167506869
0.212950239568526
0.221057491782301
0.220344615188636
0.218930750990133
0.216752167672935
0.215147361519242
0.216858494713924
0.210098476882514
0.21547630377824
0.212945190350655
0.214795899239985
0.210355231746347
0.212139434850572
0.212142685857478
0.212901815328046
0.206368311924421
0.20993114748011
0.209156534292086
0.208222846744576
0.208375843990275
0.213061447954293
0.211329049265209
0.21104509795605
0.208514769283934
0.208952361426212
0.207136954148396
0.212350562946211
0.203918898867472
0.209828844964682
0.202544172376954
0.2061969281175
0.203322922486137
0.208985124897059
0.204621775833138
0.204539138149024
0.203837288477858
0.210948051700142
0.199736345330547
0.210539274749216
0.203740872530053
0.206674718028062
0.206834121566306
0.206211218492333
0.200944555426408
0.207519829781966
0.207229285549462
0.207206690674131
0.198195561191852
0.205853373321456
0.201773884467871
0.199873358549942
0.201069900907218
0.204767213252658
0.202620516981549
0.201926129974606
0.202206941694463
0.206631723326035
0.20408659256499
0.201760544949391
0.198191620117879
0.200421137599825
0.20169383636038
0.201657204010735
0.195117969739113
0.197642913787828
0.197996071356838
0.198495222885949
0.19268719377667
0.199947973420541
0.195481875248429
0.197136207897516
0.195748863761137
0.199197113120951
0.19243375288907
0.194445018931656
0.192059449528782
0.200476004098096
0.195730039272243
0.192307608812487
0.187231796099001
0.188448226879903
0.188115045658939
0.199260718343545
0.194835606502198
0.191476614721371
0.186815817162359
0.192276207598843
0.192637957545877
0.193712672448722
0.192206317079422
0.191800286183041
0.188943680841187
0.190671599141817
0.192572328932602
0.190294953389407
0.184355284381508
0.193848871395582
0.189743487872869
0.187118737627362
0.184734319001097
0.194502733970789
0.190695699328019
0.186980428795
0.189556606132467
0.191955521118392
0.183761182302853
0.190252019946629
0.189179613333466
0.193296403751009
0.182991570910908
0.192400134804989
0.186842928741173
0.191795006419868
0.186314332925484
0.189173986687712
0.187353694444816
0.185855861099453
0.185918698651586
0.185276724333916
0.183746934296997
0.186054997483114
0.183939792084519
0.186594122908337
0.184723254904303
0.185694300714602
0.180945273742638
0.182190480568567
0.181806733458498
0.185286542493068
0.180862512103303
0.185707964388604
0.182182841338842
0.180951716555044
0.181859807406937
0.180934824258597
0.177927337145051
0.179072409978432
0.175021805632833
0.179423408751913
0.17973116172249
0.179948996164949
0.178493951973556
0.178022831280175
0.174588961019311
0.175297433338369
0.172868994815119
0.175866215050333
0.176261718604736
0.177567990204756
0.177745813908605
0.172337926444412
0.175704300412786
0.175760394053131
0.175386074119896
0.172115400478297
0.172041586936414
0.175447518602535
0.170701972246891
0.170798163849186
0.168542864211942
0.169536431015009
0.170026850383302
0.170894278730737
0.17026248437671
0.175647846287598
0.170963788909174
0.175176064499691
0.168722149039275
0.170470150928146
0.168414255916876
0.171146008890957
0.164168621398761
0.168025243806086
0.167742372827802
0.16926863940575
0.164104912172339
0.167542492205178
0.167478026429049
0.168818350763411
0.165990434625745
0.168967354406905
0.162237912835324
0.162535252762571
0.160879965281481
0.164247701671713
0.16089817012459
0.164454003820824
0.165014791447824
0.162238608927993
0.160174195260472
0.163339407710714
0.159315816823537
0.162750499770232
0.160694765340247
0.160085306369017
0.162253767762801
0.160817725342489
0.159909548395422
0.161364239666124
0.158041358852869
0.160125188349655
0.157936826898745
0.160505648480228
0.156987735519835
0.159432367439808
0.15644826650114
0.155656705492828
0.158175417750236
0.156687908241624
0.157581413729906
0.155730550236933
0.15533128207583
0.156885031181544
0.156917117709189
0.158322787859069
0.16023908050113
0.157871559437538
0.154808606011046
0.156605692090547
0.156888515778621
0.154458487454377
0.155610057895241
0.15744178711717
0.156028546627924
0.158838947358174
0.157927187600181
0.158308162140086
0.160113907014522
0.162523495745544
0.16315962932654
0.161197543580194
0.15849798927207
0.157833303905454
0.163030910063014
0.165688351084258
0.157545032198542
0.153065337489688
0.156537287464998
0.156741842972503
0.154179627823142
0.16460850162557
0.165613078754276
0.161306516732373
0.156814925358328
0.148529957479593
0.156977077847441
0.155082250808042
0.146944724290913
0.151763428282229
0.159992236798178
0.147481409182385
0.155446942948139
0.150921414802296
0.147044644656701
0.154472061260401
0.150423430909859
0.14969302707882
0.150001469137037
0.148993958286662
0.161000434247552
0.152331854118391
0.151252170897808
0.146567801289881
0.153748986792674
0.152560387142049
0.157574895232828
0.153893705915221
0.150278419142786
0.145098165437579
0.14628563544921
0.154885987403312
0.145092363919125
0.148717325353181
0.142967174459667
0.145570281266183
0.144828747200823
0.14980812305131
0.141829496414155
0.151099796598589
0.147919687600636
0.15801284923019
0.136008122009977
0.158774522482824
0.129848224211773
0.169940397134255
0.134504722940279
0.171615901159103
0.119586187737625
0.181388587822198
0.126831886208811
0.184027242006935
0.104566272867349
0.187608969763481
0.118954241603412
0.190240032733626
0.115744825338665
0.187658660124676
0.127071725454451
0.177612837975968
0.136460129647254
0.164651001262667
0.142937372215993
0.158289964095933
0.152141404613222
0.144868465243059
0.155776245105815
0.146191176676587
0.149883010348335
0.146205840117094
0.15052430893166
0.151929955200142
0.141862230502753
0.154772229069513
0.143300606993625
0.150967971978878
0.140065616861405
0.150643723656928
0.141031841183732
0.145068891344341
0.142110016721028
0.146650272911511
0.14422369246741
0.14448437124244
0.140104197593957
0.146034860818413
0.142836010455383
0.147241265937993
0.137766960105169
0.143500089789524
0.138995200627223
0.142963928208262
0.142862914303398
0.14646747512646
0.140381960905666
0.144125526929169
0.141699147369205
0.146640660626974
0.140130343395244
0.145791131486098
0.140996375933681
0.147349123048136
0.144062449283025
0.147190021654906
0.143321475639676
0.145033222657505
0.142764305458745
0.146039367265127
0.140473311163374
0.14408150539067
0.144670235663588
0.146170950219351
0.142221971240961
0.146044663936297
0.140770342771188
0.14535798325592
0.143895551557766
0.14699481296395
0.146710235462497
0.14712134151875
0.143430019205332
0.148137801563119
0.14453597410777
0.14822973517536
0.142658628134367
0.146359911482467
0.144699766728001
0.142843034048855
0.141872747918318
0.147414611498912
0.147351763916902
0.145421300239296
0.143906360705119
0.146112839102784
0.146479379741339
0.14395590255624
0.143528048440779
0.147751938182134
0.143986248694014
0.14542674820614
0.144584172238485
0.146226861500988
0.142796006225674
0.145916710569156
0.145689402868881
0.14677202484036
0.144431268217166
0.143384512772567
0.143665505002411
0.144568673535254
0.143544920491992
0.146178145209426
0.144791276179723
0.149418022576213
0.14494324319367
0.148836861549189
0.148302671588758
0.149402907047837
0.147799091168731
0.14695767933139
0.148749672700625
0.151695666053149
0.145630071324692
0.147046408584107
0.144744992646073
0.15024895317716
0.147557563639149
0.150458755618693
0.148275662692135
0.148699252962807
0.145957855257883
0.149643108058102
0.152177794193443
0.149505414874725
0.147057468299738
0.152722589048215
0.148274211532978
0.150364867284322
0.149694166879003
0.151228800950499
0.150882937735302
0.151343441186895
0.151724979061228
0.154511820730761
0.151528054983714
0.151889655944598
0.152257747677848
0.15334042293459
0.151931050711302
0.151806632438449
0.149235762781221
0.153583157459163
0.152058571077566
0.154264460680795
0.15062487347042
0.154831035962295
0.15400804315656
0.153204066674063
0.150228290681316
0.152385580524873
0.150901979331145
0.15169525777628
0.153637616144317
0.154272591632411
0.152801605553493
0.152768087289955
0.150529215823875
0.153164155087065
0.157147520663152
0.156330263493069
0.152247531162964
0.154535697372892
0.1545967654569
0.157653000925674
0.157308317452021
0.157144676294602
0.15396623147867
0.156591497470793
0.154634382750748
0.157455918169313
0.156039015893754
0.158846234121321
0.154858013341549
0.157616508495503
0.158076438621195
0.158038517482425
0.156820940233739
0.159059786404454
0.158972930728016
0.161657574871827
0.158358417327343
0.160607274324152
0.158862361716914
0.161381024870889
0.159600034895767
0.161310381274698
0.156247665346286
0.159533969133212
0.159876709037299
0.158698363094738
0.15720361485565
0.161722466835467
0.158964239074523
0.160029454266134
0.159274644356498
0.158355452515421
0.158237470900089
0.159186964488255
0.157358653578475
0.154782604048081
0.158743105271163
0.16036073777592
0.156920261668397
0.158995451718229
0.156772537495178
0.158787630882261
0.157122400995515
0.157577476657099
0.156695983295884
0.157250120166368
0.156615947737627
0.156003599694031
0.158094897302334
0.156258692387844
0.155257192428661
0.156881619614775
0.160060452928231
0.156270298135401
0.154567718893509
0.154510032931947
0.153213384164703
0.156056887974946
0.154592979861714
0.155571199054424
0.15637666540712
0.157576645642554
0.156946176199676
0.158302458048629
0.155362335342151
0.155934282288701
0.156152740506833
0.154210113899438
0.155709541003263
0.157365740368782
0.153563856795405
0.155289866206863
0.154586356571428
0.155741965926998
0.155467840807766
0.156669650296259
0.154977703647541
0.154864681737505
0.152735729275584
0.156135519848836
0.156205042094224
0.154137535977254
0.153861043129301
0.153921270764799
0.153188588164598
0.155454174308287
0.155015573962739
0.156094501880459
0.153736942034599
0.155953333895844
0.155262252496961
0.155677601980009
0.156255964690949
0.157345422451351
0.155724016710276
0.155730838905189
0.156304987109832
0.156783081167046
0.157959176009241
0.156936636502407
0.155164640023134
0.15489066612297
0.156788612766637
0.157050014343964
0.153973170112189
0.155107500604267
0.153951347380496
0.153804447063214
0.152387347884549
0.152524348374396
0.153293478373536
0.152840581395178
0.152329700827687
0.154248558625113
0.154893776716839
0.152672542779103
0.15125564693139
0.150094292726879
0.147089859741389
0.149633679055276
0.148981172230471
0.147153834050507
0.14835016649821
0.148565736703688
0.151348271784826
0.150728176928448
0.15237583345455
0.152877690340053
0.147059523249582
0.146439847012443
0.149378029945947
0.147073669930615
0.146759682019095
0.14990766036213
0.147800324620769
0.148759979223778
0.147635955486682
0.14495560273314
0.149167442182022
0.15157049652753
0.147923191559378
0.144168384818612
0.145023581824964
0.146090609006279
0.143810789535771
0.1441317361728
0.143425326674621
0.142602059261319
0.142685550863594
0.143829557684783
0.141174623462718
0.143082722462062
0.141717687780961
0.14125725093111
0.141958852763815
0.141190673458357
0.140154809208492
0.139386691119459
0.138224564450649
0.138441133811909
0.135430016242626
0.138037848659994
0.139000227798722
0.138367001091883
0.138582453264098
0.144257276369438
0.139245608754078
0.135754635018305
0.137126635657075
0.133610423596019
0.13422931190862
0.130355646916064
0.130245796888255
0.131924030586069
0.131687048736756
0.13194975200685
0.131944937881498
0.129568502868107
0.130424775620658
0.130090049736609
0.127738787242737
0.127809611972019
0.129662360057722
0.127638875868196
0.127812436643615
0.125574484731663
0.127528008293694
0.126200785753575
0.128564891367805
0.126005592644199
0.126977104848699
0.137858603159203
0.140572831067523
0.12658141115352
0.125730853436556
0.130884281795186
0.132582223753218
0.127892931349045
0.125539552014325
0.125522076008972
0.125037768670184
0.124730882374323
0.124319280153787
0.124028389666506
0.124411835997858
0.123793892152275
0.12532901497109
0.122637995842718
0.122820763201261
0.121334304357332
0.122884800003461
0.121464971914626
0.1239616838376
0.123230377650999
0.120624349798034
0.123662241226414
0.119684611580519
0.125431554715512
0.131924729179011
0.126792314618369
0.122368458843439
0.121212737593882
0.120601381395204
0.121833100454624
0.120193092994012
0.118613551403623
0.120178346653905
0.121904496241631
0.12008381063487
0.117593510082679
0.117106071651069
0.120429704732097
0.119210978460039
0.11968404361408
0.118200564772409
0.117710991087891
0.115505764161793
0.116428452891276
0.118149878115674
0.117807121599399
0.117879275085792
0.121406908821106
0.118453285838343
0.115640718725531
0.130403227535709
0.1368725349688
0.125144861167273
0.117211376404516
0.118424459775709
0.116092588001811
0.11461801949633
0.112651624557353
0.11603283103256
0.114147380489938
0.114670546084073
0.117490970852052
0.116943967811901
0.116814575363677
0.116982823798212
0.11515109149181
0.115740881170178
0.114855571450096
0.115566546284701
0.11503887454847
0.115673178358646
0.126373934016801
0.134884371647902
0.12235951363255
0.115855021074131
0.111374520779653
0.12027817598916
0.140164513024073
0.123246270288961
0.111920874630948
0.118693893586417
0.112415323065897
0.112999722384995
0.110152452590574
0.109943746366744
0.119649211169059
0.119995964489468
0.117479692961355
0.116962167334795
0.112953065732612
0.111659246341573
0.111271266546089
0.111193745774929
0.110487806628271
0.108479620161148
0.107779057642656
0.108598217830404
0.108370406154715
0.109503567522086
0.110069537468932
0.109183124724162
0.117346841260311
0.116029566193932
0.111211521013746
0.109694216430493
0.109310213283513
0.107343373373086
0.118604505532232
0.127092807946977
0.112596300494559
0.109041180302868
0.108443928520349
0.112261271696121
0.107975825373573
0.109403116817535
0.110157951434504
0.109536348041038
0.10926542952205
0.111399989830843
0.107512354075757
0.110147576282304
0.108437590714659
0.109640410094441
0.108918399197363
0.109706150557362
0.107156073783317
0.110548674526119
0.110097679361956
0.11396919623746
0.133321361118841
0.1397494812255
0.13104235225162
0.121097814790718
0.114337831544252
0.109290316319988
0.110627002721917
0.108452014669055
0.110367571318595
0.112163157998763
0.109044312255911
0.111760372036118
0.110136525340467
0.107406437423694
0.106934150078673
0.108384089415929
0.106857113697498
0.10923356365559
0.107043484379536
0.107882721450208
0.108550995954297
0.110101227839553
0.10699993633258
0.120995738513613
0.114282529446355
0.110574962464267
0.11238378165166
0.155031630629306
0.134401655812374
0.115772333114982
0.11335386510544
0.105094266540851
0.105887772553628
0.105675440456199
0.107213082658418
0.11483884833381
0.106702186516701
0.105241103693781
0.106573073129692
0.107776398016661
0.107454859557147
0.107241519596783
0.135684221624747
0.152019020501035
0.118728158885205
0.114407936496249
0.105249636551353
0.132360883953669
0.140072658473293
0.111656670587396
0.113570060427185
0.109422861237005
0.108153051083895
0.109317921393426
0.108364305525121
0.10815314349383
0.116645557439142
0.111215998284806
0.109497567620025
0.110259390244273
0.10806134156268
0.115778388565367
0.11455319138467
0.128651857392022
0.122634245424482
0.109770508391729
0.11887571456491
0.113451623609504
0.109936088400328
0.116051856129058
0.109672246936386
0.108215037895018
0.126360551808677
0.130300584835834
0.122994150735868
0.139024637473723
0.123378015018144
0.112322129118131
0.117803860515816
0.125573845978047
0.124566200881054
0.108265487635527
0.143536171910682
0.147328779596043
0.141188622308163
0.13912665390083
0.1138311195776
0.119363501887199
0.114013782557787
0.111565364193491
0.117558646835906
0.14504091629363
0.117625633523676
0.121609550356039
0.109625673176412
0.138834285426569
0.133069051538932
0.125336668238923
0.119284784152708
0.116729206448058
0.121353900204822
0.143246503447707
0.120581817958149
0.133125998468421
0.159812846547611
0.164959540889667
0.158640868505104
0.125707098671083
0.127959965941919
0.166373139110409
0.130524831159654
0.12794156175864
0.119825589478812
0.128331036158274
0.113848254744529
0.145253486026351
0.168459911389338
0.133137967184597
0.131584936418097
0.133113500522308
0.131669702236843
0.163131527188999
0.135914315274896
0.132752273327954
0.128945424628622
0.134852085468956
0.135691697992681
0.21335906002189
0.149156396186892
0.169824673532996
0.170084620006566
0.168790600948756
0.155609400563621
0.148717658139522
0.141292508099509
0.169877184632674
0.169229114663168
0.146680057717811
0.136793042282658
0.182545622324406
0.174650667543321
0.155196991503166
0.155976515993164
0.146997067822625
0.160600470886103
0.226150281796341
0.227997672443172
0.197265771473984
0.162192710021303
0.172309148382398
0.19268705544431
0.167965666700009
0.164411735556463
0.162671779075357
0.165373760867394
0.16536427898294
0.168659188060726
0.183990520952784
0.173663697135023
0.181412467067123
0.168887619046322
0.185522387255231
0.222081242725503
0.265113067359421
0.232103402077814
0.198994611671062
0.240841950178237
0.218656849301095
0.209599359617154
0.191183321921931
0.197670019339201
0.212722250723774
0.203404100968873
0.201140021291755
0.204697088567808
0.244540757484584
0.228970826180926
0.251271476171515
0.240526291690436
0.222171143094788
0.232264437609646
0.26379921071189
0.454979939997769
0.25795702204988
0.265655805519085
0.240740350478976
0.293227320660114
0.332025290455679
0.26194829276949
0.249312729845858
0.247726094708325
0.24461726581535
0.268478463887092
0.273822027261467
0.280183035136386
0.288126425358618
0.286373177422316
0.27835816401565
0.321160363264412
0.413393658197181
0.386794879224945
0.324828280811725
0.307404892111344
0.336357277278482
0.337966383659282
0.311232990239088
0.329701089205446
0.313314490485081
0.35784904711978
0.408997818969761
0.343065929808493
0.352076932700938
0.359918211696055
0.40380462591162
0.347672339529969
0.470778886051138
0.402698326650565
0.393135777718088
0.376675786126472
0.397922769740193
0.386927260538285
0.39713918972163
0.448534317819398
0.43979716976166
0.414235872114068
0.420457326315061
0.423005895642069
0.425601306829518
0.440094573440569
0.450423489383487
0.444503815435256
0.512629868639738
0.494490585118472
0.746577190369176
0.4899751709388
0.470136221263773
0.456867432391801
0.469253106146059
0.519777959897979
0.496855130540834
0.553934744611377
0.502631543850876
0.474601715523445
0.4811997319341
0.464225820903005
0.47689954974185
0.471270002597602
0.492783719157987
0.452017669269912
0.522240199374239
0.464142950547854
0.581121078283144
0.562653570087863
0.48052376600767
0.467031793257401
0.465545928784671
0.453174432050548
0.467955858449818
0.435207206312134
0.477762859901482
0.477996122908148
0.441494462193886
0.449605717419154
0.419161867422412
0.480843880321732
0.456364146509397
0.408636536962775
0.416033328522911
0.396151553279261
0.423062402510726
0.37732591537396
0.450824741563152
0.468060991702229
0.389296160900829
0.386906637701791
0.374427721250204
0.365315204838765
0.364306896185686
0.352503198812545
0.365850531495599
0.354313370118777
0.343717951603652
0.353521548074735
0.335313236536251
0.329266404435634
0.321330654884766
0.329426965970649
0.322111460943608
0.320489829147493
0.313402144273908
0.304914066707303
0.307314730811463
0.293815264673708
0.310202698984903
0.294452050932556
0.291219461967609
0.293333607396186
0.278494129946347
0.285552395052325
0.273731492951838
0.283610446225819
0.273150820386419
0.267482667314543
0.26173532070381
0.266237875719345
0.267076828425383
0.259984680208763
0.259842578627796
0.256066945250933
0.25500347562138
0.247414066199552
0.250507413436403
0.247296719205957
0.258689675224881
0.240427713038667
0.362807088336115
0.265026347152338
0.247116974635088
0.240414440362924
0.240283238526991
0.240141527100543
0.232938509431408
0.314573401765484
0.267244283469756
0.240758033877276
0.230187605417882
0.232139272769182
0.26117008024743
0.247017773037105
0.222130390550629
0.240135104725752
0.211805696841367
0.34945174939092
0.313403771056595
0.377668488361682
0.328005540228351
0.257888531244877
0.218483661673221
0.280049671111342
0.275700455618899
0.220210472994322
0.232092070822934
0.204769121743844
0.287617269062893
0.237506169878735
0.219562180636809
0.212900969240894
0.210966229511062
0.25802659451522
0.270592451678144
0.231196147298409
0.268504647450429
0.267101053019347
0.260102485970829
0.315028476879656
0.319109947214121
0.252169375570853
0.211940778043539
0.222861004775179
0.215402169282297
0.233229305753799
0.299401620032175
0.221029334794313
0.246804310867497
0.204633380104586
0.220017882432192
0.223481373346478
0.257953950601229
0.229368983459011
0.248834285142636
0.283583723632691
0.200301836638763
0.262622968627825
0.248743174230127
0.307371492001657
0.294130652847574
0.241466000202264
0.211482664924343
0.295528703751874
0.279322432872133
0.243328442939947
0.256190568239321
0.208670555512558
0.239122758269711
0.260519699711748
0.224222523867008
0.270967851602683
0.263431245694839
0.283748518149187
0.329215089663519
0.338601912868587
0.317192158210627
0.245365677314485
0.229804311426199
0.23326280129165
0.234454330784447
0.245580081071274
0.218175365422529
0.31063640063296
0.246578204721802
0.252936760339717
0.319755490482041
0.25184086952137
0.250847355800671
0.253918302592571
0.245195011045257
0.268111974288115
0.302394391761969
0.335388283440011
0.280187256307871
0.296677144929266
0.312833673554722
0.285026456896941
0.286142438118876
0.282506594217492
0.29129701407368
0.289774875152293
0.318533760733583
0.304454051459273
0.313036463109348
0.318813289953939
0.318279439938265
0.372028346334162
0.376591514410539
0.331671053976435
0.420317869145906
0.367413913513825
0.474236564504391
0.380524749141132
0.387060544487521
0.381493966931421
0.381114494096196
0.400609255547658
0.398513359632817
0.432566492328514
0.475147240196726
0.425436867252815
0.448536470529785
0.428844775702269
0.457723519657939
0.437219551415129
0.523781462760841
0.465990024903416
0.615222263855169
0.52167254255932
0.52168827784358
0.497260252838296
0.476694582351929
0.495291499325459
0.477190286588786
0.475736450485096
0.464431856081886
0.47589863388538
0.520664068468096
0.471739647627768
0.482066987861597
0.469925688305633
0.483997842476254
0.488880976804096
0.488927028303385
0.487723302162863
0.487295499908098
0.501222223599001
0.50111808851195
0.499135529163009
0.630699969105165
0.511740762704279
0.525375633637762
0.509740593742586
0.52950086118254
0.514731177317793
0.524521509984173
0.55965991216603
0.54426268080569
0.529449021779953
0.535487763306368
0.527588263479836
0.536198246171192
0.552360574752595
0.588294074350648
0.5232335707215
0.572725587140294
0.511192674740598
0.644202277789099
0.611678447222534
0.585291914221572
0.582619569920615
0.558515805607359
0.559156023800462
0.545996036613326
0.551130223684215
0.551400662153084
0.56066358354751
0.548763234827996
0.554594793175507
0.543664914723186
0.546514628062275
0.540927649996245
0.544932625760401
0.591684992799146
0.544919137598909
0.548579356654752
0.532904688200152
0.539526738179998
0.518179062062115
0.588640806623787
0.545108876274191
0.53562857421008
0.529381382531534
0.537532259260504
0.568774620498028
0.542253465940091
0.514237779071311
0.531247666524094
0.510367318214595
0.532234278029623
0.511431432653578
0.552074039863301
0.573897205028495
0.545121615351024
0.540961409580426
0.534864990489257
0.545657907956537
0.552646174798111
0.556109653093276
0.553732471602699
0.575726744249872
0.576991613885327
0.596513800445969
0.578431284118888
0.587970120398944
0.605121725901657
0.623651620353349
0.629109820119684
0.603976556787912
0.619118309397039
0.600604539133974
0.616140373816049
0.632228069249841
0.624617340885766
0.610406206141515
0.62450754831367
0.61399261869948
0.611534720424545
0.670735008191103
0.614105691569462
0.653490986597564
0.618659849534825
0.618604157002257
0.616881966766991
0.619462805567398
0.610546304379133
0.606703589792565
0.618544456435678
0.609338133566155
0.6028571650085
0.607540689687505
0.60668061662161
0.605292839936579
0.603320447628114
0.601316355391174
0.606286383389655
0.605009540390325
0.616821903709278
0.588254108235498
0.583162564136885
0.594476753087587
0.589520257892912
0.617666072407776
0.622242242566716
0.623058903230923
0.59536702864653
0.600350270436769
0.597817307754961
0.582235205102758
0.594733160380325
0.582816275101947
0.597159422254754
0.591799532492197
0.586952672675296
0.578185229789183
0.582017699994312
0.575845322355449
0.579886083839141
0.570805399460844
0.571882560295313
0.565921265242113
0.56895326410126
0.562659228931595
0.56565017366427
0.554419030548785
0.562446122967597
0.553380977255891
0.551855610829283
0.549345399713557
0.545670588330384
0.54691084407615
0.535086243413081
0.548805884108376
0.535322266938468
0.530488645103559
0.537074763840742
0.534005185098942
0.532047565663337
0.530397267373346
0.53197997822688
0.519148181926252
0.53318412548632
0.526628326230555
0.525741404316879
0.509203104886027
0.514000634798262
0.509291253603446
0.505331494713948
0.495747888931302
0.502741922122221
0.497386966870591
0.497378674486715
0.49824747805074
0.493144332976716
0.483676996883846
0.483445778969563
0.479382453068052
0.474905838276785
0.469832997641297
0.4759986441241
0.467075760188576
0.46480615563188
0.467957180961253
0.468315545069641
0.466141933859573
0.462707823399644
0.460091145801061
0.458832483496794
0.459347916971328
0.463283542935618
0.457841048386637
0.462298933753569
0.457752548649284
0.457818745368264
0.460094383930614
0.460893906390678
0.463731149842822
0.464984926518616
0.467720631825732
0.474135694249291
0.470049077016879
0.467947313295716
0.468739820236616
0.471243776486387
0.468307077047881
0.469667235864766
0.475435901829221
0.473927591262034
0.480438668698549
0.478321418443489
0.473969117828157
0.480413000285852
0.478467984723066
0.479487994770274
0.476432917106679
0.47757229940537
0.472895118577256
0.479933436292606
0.476968159222979
0.476932557443412
0.475186921961872
0.473774136727979
0.479202523151153
0.475857114429076
0.470664366611609
0.475973967755704
0.46956492874514
0.470992518807556
0.46777009003996
0.472553373704194
0.471407130976568
0.471316363778866
0.471481830107181
0.468281081931951
0.462185901692511
0.46198980852333
0.463714504009536
0.465351950446877
0.463295797817752
0.457128870380771
0.4513824134443
0.453954052350043
0.453121983386306
0.450223823936027
0.447812954401386
0.446773338737837
0.446552126418046
0.435215121431788
0.430599358105106
0.430674008569822
0.426612744810596
0.427108870280403
0.41887970919467
0.418730768366714
0.416400222367467
0.412856475634807
0.415243405944369
0.414677694226077
0.410513085565483
0.414145265645567
0.414249811530977
0.40887203293886
0.410084533659873
0.412761118231015
0.412080920948034
0.412213827722517
0.407848103548369
0.412079190595878
0.412092752692985
0.407101182600131
0.41169325731226
0.411427014100843
0.409462229960985
0.407530458748369
0.40345511815469
0.398725578013055
0.396579047510163
0.392660263285474
0.386492035777679
0.382033599910985
0.374793820027143
0.367534406161235
0.367690302055292
0.358059060019107
0.354186712462819
0.350226580429682
0.346126317987951
0.343082538522178
0.342055446545439
0.341801361064618
0.339027236656239
0.338108384962972
0.338696326135622
0.339610484268485
0.343305064562069
0.349767514488585
0.354753725078414
0.359416333615841
0.366875768332093
0.375089584550487
0.384053266905522
0.397449718973875
0.405936895965499
0.426357614871244
0.435532480017285
0.451758531122262
0.468778842068362
0.491147965813224
0.504534405809536
0.531678053396965
0.55636255093438
0.583734146967654
0.603896540563359
0.639848627219883
0.673514928781536
0.697914604189245
0.727554810236619
0.753959115894924
0.785497662052385
0.817889327422387
0.832854536083561
0.857005525075287
0.882675187882819
0.905047971916005
0.926856644085855
0.931767876522318
0.951590595566673
0.957645611828965
0.967017753668084
0.968908811192297
0.958365921105033
0.969055978342911
0.94934375763575
0.945196429912144
0.932771610698764
0.935712208920057
0.911871746091212
0.89969270427175
0.883717778117398
0.874586478428907
0.868024502288548
0.847723270799599
0.844994174326476
0.839380605442669
0.831919617010625
0.828155869878827
0.8258073026051
0.828945360446562
0.833767896753534
0.84182232484022
0.827288342632133
0.834462039850464
0.856940297699637
0.862318877888766
0.871632282115676
0.871527918196273
0.888688992122479
0.880012277705059
0.88457740408788
0.893039193109007
0.903806437803215
0.911985909977768
0.917139868425481
0.922490462693638
0.932820542808103
0.932696336712586
0.935897769065098
0.948052593116271
0.956870197615742
0.958132934341209
0.967877145335064
0.9896694041081
0.986973489826243
0.974991191802501
0.990451988975618
0.985931158550963
0.99350845333547
1.00308120254675
0.991608537338834
1.00762232644014
1.00571378356347
1.00955090125652
1.00461936374307
0.999972635689955
0.999791029594543
0.998631486830097
1.0116596752152
1.03340280741895
1.01355786261381
1.04028281901214
1.0520673840544
1.04439094156687
1.07573301836828
1.09005424763602
1.09675781091911
1.11822734713022
1.19741545657159
1.19202479187487
1.24401512640098
1.26239263712048
1.32426818213494
1.37594347055281
1.39862681731601
1.41719369340802
1.44580288539536
1.46166359500986
1.48201143846883
1.47481703381685
1.43448143320386
1.52693973232338
1.50979581746785
1.42600764837527
1.5182699606762
1.51304841882076
1.58138168010942
1.49702994806154
1.51767700067092
1.47269016578308
1.52067101216736
1.47611711601091
1.52722581926392
1.56634862069086
1.55522059260462
1.53089506725992
1.56226703448377
1.60195903899643
1.694907910648
1.70282331264721
1.77701081856311
1.64742386854433
1.71619146711054
1.65310016327382
1.69674499801728
1.67140133973223
1.78115224056075
1.7780087396319
1.83895828981537
1.77008112203594
1.7874104701669
1.76291352507415
1.69701336073487
1.84658317909322
1.9632268934097
1.85057286085842
1.80529066085503
1.8286733457621
2.07163663276405
2.00098362668047
1.85243311183032
1.98545392814225
1.98088230663325
2.07424869917608
2.48022727378398
2.34235861318391
2.38987966614411
2.15132302880967
2.15052800104295
1.95356835630642
2.63656788847628
2.22065386329006
2.74149489193721
2.5126325246036
2.90558103540415
2.79301960460266
2.87624713777799
5
2.3022989614953
2.20711876260505
5
2.40921645487538
2.3292870739044
2.33580289422426
2.65477585145571
2.37660275286283
2.7045849363118
1.98722761041261
2.27760265824342
2.86675482966921
2.21561585824667
2.47025975280541
5
2.42919849061458
2.09161039543784
2.33456034427027
2.31500414010532
2.03791122292853
2.19454168374623
2.02190970516138
1.98024781695733
2.3822093985285
2.40863228305384
2.08838599656501
2.07694787176815
2.20271430157095
2.39828212124787
1.9432163841071
2.03002601517893
1.97936271375666
2.10861627142499
1.92715207735963
1.91014129881279
1.88139306874228
1.97795615711919
1.68488230616404
1.64375636315027
1.68728064431173
1.64877511467286
1.51382398378699
1.57186703114123
1.48517618160731
1.48742033731598
1.43399764602724
1.3562222085038
1.34868293615267
1.33858576774381
1.21312490600545
1.21298269127794
1.15906722790632
1.12648867890161
1.08352311803824
1.0867877622857
1.04405026126594
1.0058630142525
0.977205973000921
0.933689688593455
0.916798111469511
0.90381603455691
0.862412754492464
0.847568311614335
0.827151557981084
0.80865928107707
0.79395277261927
0.77723057867042
0.757324782408703
0.772027153404697
0.745980577913843
0.732651467787219
0.721294526717321
0.707839150629949
0.710595294973
0.714104119696024
0.708784409471645
0.707317068640016
0.706351176589203
0.713620087476418
0.718466728150249
0.729550125382818
0.722023480420519
0.735675710922264
0.751816989012866
0.745840350807977
0.755737798711113
0.77625773841227
0.768522087945027
0.783499181048345
0.779621174695468
0.788789550874832
0.801179563525334
0.792134132513524
0.799635607725213
0.806020834886624
0.794364457505448
0.815889454960038
0.812946790430533
0.805571108938666
0.815730470847238
0.815846213135584
0.800125123663613
0.814616103005533
0.799090288229419
0.806425548251006
0.802293154148381
0.804716057090222
0.788345342005645
0.794099936737885
0.786621666031587
0.794319899023954
0.776797125875071
0.778840259816916
0.759951503027702
0.741164551876279
0.739444449479559
0.745486221254765
0.736193025044139
0.752757095341149
0.7253106106599
0.717783314753418
0.73372589724365
0.726011650645668
0.717630844254547
0.719219033848585
0.719377217941845
0.733962650006587
0.726020976388845
0.733811140055262
0.734904909799347
0.758686009263561
0.756489919686024
0.742998430645078
0.741049919785459
0.754665152376116
0.746200455204398
0.732805379420837
0.742371066942274
0.743202162997401
0.734026448575129
0.737017993638586
0.721175416740511
0.728546381507987
0.712088507153166
0.694501574362772
0.705060413621269
0.713808317698048
0.678715150780741
0.670923286970495
0.666293868075777
0.681811006147407
0.673988985757974
0.674037427341293
0.680502056327258
0.685264704683652
0.683615498367921
0.693386511411591
0.701943689273579
0.70023600215536
0.68842811232502
0.704169003909519
0.704108166082875
0.719261591270152
0.710463559001773
0.720299764850582
0.710801672899317
0.734375279641581
0.7195724652987
0.7423130099394
0.748176151221689
0.744008043596979
0.750416350740773
0.756382843114466
0.742333927750302
0.782619210224235
0.763216545069771
0.750708549187501
0.758477470381647
0.776385549977505
0.756779745885372
0.747396594226983
0.776390528994665
0.790917663481212
0.757533000387259
0.760493811373842
0.755110028402515
0.776180565622902
0.772317222127922
0.774139973338798
0.777002830868968
0.798845449159807
0.795494928578032
0.790882047977531
0.762967077534012
0.773416850879513
0.73709710472131
0.726863893267977
0.756652765772061
0.759548604805624
0.714610995680119
0.748853898720711
0.751137097830436
0.744621980982622
0.732770593914606
0.741037443372772
0.72789405206108
0.734301967993965
0.750418299474486
0.748793030459294
0.712635798277299
0.724049261330875
0.7250256661879
0.724741688427872
0.743385897540169
0.734312105857488
0.715411349020639
0.746743113202071
0.717495702436343
0.716756897921972
0.762509264217373
0.786574931445857
0.756046594863467
0.732470706021967
0.748498262694442
0.750592834712234
0.72602470074062
0.738322593977618
0.761717860655265
0.785883170015942
0.771937895017856
0.766943037514314
0.778147432869107
0.820058621368052
0.784047969428572
0.75723905254609
0.784498872248086
0.808329450840901
0.804472987103887
0.813062981491218
0.790802773741496
0.868803438013251
0.854585471379796
0.816011440637411
0.902956877886725
0.861315666099621
0.845672802684675
0.910508772513641
0.886048097294295
0.936611610001553
0.91904989964852
0.958226407666425
0.86247644013024
0.863494415640919
0.988534791588236
0.993219445021358
0.951512786687
1.01247589025666
0.919358081762869
0.931248336195
0.969905431366673
1.02943563289616
0.973391873097371
1.02022422990622
1.05647638026173
1.0134257405452
1.06777528856708
1.08258142160927
1.08219015845322
1.00360191105654
0.944340357760268
1.12231251285188
1.04865492595916
1.07173595066204
1.07659536904385
1.04239552454461
1.08546779400054
1.15749482330944
1.07563858890154
1.08477878800751
1.04697745376956
1.05216639466924
1.03592022731508
1.11014428578541
1.09011189871371
1.0367727421927
1.11894202544205
1.08440569826416
1.10889654263423
1.09885012502626
1.15628083232593
1.14662400819034
1.08725309898252
1.06237211862925
0.989751659717065
0.962110082327273
1.02795957932204
1.12771036033778
1.08207988218989
1.15872293047955
1.03435377570169
0.955335146233652
1.0588354277501
1.10936666883899
1.0580982137676
0.977994286974425
1.04495416017744
0.994195174319638
0.968136581512459
1.184055207092
1.23701784038474
1.0773728357385
1.15380743974468
1.1605436388968
0.989914831632092
1.04448802465415
1.1227560408175
1.10288677907531
1.01705601664286
1.14209042027673
1.17411114341113
1.21968533452493
1.22140959971592
1.09465563667788
1.16537519854398
1.24383319819115
1.26756430392697
1.36231710270619
1.1135490490679
1.01178746613858
1.08331469582433
1.18338674017468
1.1052353463762
1.18927632153557
1.29784597609588
1.48399630881572
1.17361180593566
1.1162454307147
1.11598784646883
1.28053968800611
1.32887209144903
1.31373881247267
1.56432211350133
1.65394331717445
1.30344586640364
1.24184426937598
1.48719462811967
1.22919301813565
1.12888565455738
1.14063673650472
1.27056749324127
0.952499331333504
1.2355914222242
2.12213857999454
1.18233587509736
1.06003158020967
1.23399117591277
1.46814478971711
1.42713292808136
1.18159491536683
1.29107556484102
1.30589931777712
1.35862238390028
1.505783001639
2.00609320062669
1.83891146636044
1.41011745581008
1.49385944691725
1.20041972886874
1.39561306601741
5
5
1.41572519099985
5
5
1.10155027429003
1.52818912808322
2.06425934167782
0.604417488131509
0.495521434298455
1.27308658348132
5
1.22283045800594
1.38747180890869
5
0.959674396756685
1.21945734033232
5
0.910050897547776
1.08852060747769
5
1.10806297368834
0.671743032763111
1.64816084062729
5
1.9098799574465
0.834965623823593
1.25076551503514
0.923440339080481
