3596
4000.36533379555
650.420452594757
1
2
2
0.0153944199510288
0.0173545025939858
0.0194179145972105
0.0204479496622643
0.0213950062824952
0.0317583022492965
0.0220171942194789
0.0286749532388653
0.0192484458856092
0.0127066480463942
0.0134430259416471
0.0363691462068132
0.0248477604745635
0.0321021864681864
0.0219169132673149
0.0193343050161537
0.025181098290493
0.0136941172825347
0.0193906414951911
0.0118387797164869
0.0172896486279743
0.0232104693731684
0.0161052863017981
0.0208124465439898
0.0246813392750608
0.0219259733635322
0.0220659325617258
0.0194274227915
0.0255446211594223
0.0197276998809562
0.0212557186254202
0.0192176908296245
0.0231119321025853
0.0226675939030047
0.0232275109693276
0.0254212277764409
0.0138994511570933
0.0194368847574983
0.0207435411014082
0.026768842859213
0.0296299214339798
0.0120940877200146
0.015248196989543
0.023818012084784
0.0209494346499253
0.0283147096112228
0.0224943545442103
0.0224998270747976
0.0155017940029614
0.0261508515978274
0.0151889150798243
0.0210428811576576
0.018549285945226
0.0208967920882901
0.0251396169681371
0.0245985409940584
0.0195875176230764
0.0213807771219914
0.0234184809334946
0.015849005934943
0.0243695666556535
0.014165497747038
0.0215569616359529
0.0217098369897939
0.0126932378113339
0.0156909259396823
0.0184946125856853
0.0187115812509825
0.0226788391436212
0.0161452736857723
0.0307442537311304
0.0213380366406218
0.0265017225628787
0.0255923622012394
0.020455401402191
0.0222826028315231
0.0130064754386372
0.0180667456339768
0.0179814326528209
0.0199112599278948
0.0209035302570881
0.0208403184763583
0.0115895074975527
0.022375082591253
0.0169722821659635
0.0186763499461533
0.0164421536739547
0.022920059125077
0.0183079769655778
0.0185168288955378
0.0156276389224187
0.0227719124930829
0.0127162851858432
0.0212388610436038
0.0174599487927615
0.0161075223579952
0.00832832673666119
0.0121665608634998
0.0230038616437641
0.0106257371833145
0.0186868716927806
0.0236006330193109
0.0153059497985948
0.0187736178780999
0.0126980240792069
0.0142681072166476
0.024175026261814
0.0258201977035599
0.0139660349790834
0.0187857528661211
0.0129993975140362
0.0152161336740728
0.0141251406157736
0.0182266670855397
0.0225161089947916
0.0154796890412056
0.00831982160982093
0.0214846989282958
0.0129915002492014
0.0172604459625452
0.00917768500483917
0.0207073286606584
0.0221112296275677
0.0158424502182528
0.0157754739297292
0.0146272342502188
0.010143855107258
0.0135486472447015
0.016840841097339
0.0111725276948565
0.0134610488940107
0.0174774838851999
0.0141394768837044
0.0100091617745049
0.0160033855462366
0.0124738573117678
0.020057344131768
0.0182884280094244
0.0163402270839534
0.00139932497087316
0.015997079650953
0.0151549533275174
0.0133145318044059
0.021794817994939
0.0104349333163378
0.0185870149007593
0.0243754964439855
0.00881587989133375
0.0144695694902554
0.0162408511664944
0.0255501382851129
0.0140407850209237
0.0153274704526839
0.0102395640137663
0.0120763359448744
0.0192730815300318
0.0161857880114509
0.0184798066044396
0.0147739724673603
0.014514208351482
0.0184883288298946
0.0108918794966156
0.015078841956748
0.0153013853560615
0.0225618989520159
0.0153423614458692
0.014727065556307
0.0158135474416637
0.0147325320138946
0.0159726443316057
0.0120979081289982
0.0171288314202797
0.0169378643869316
0.0146629329297951
0.0169599737410767
0.0262169449363394
0.0180605988207983
0.0189079600030317
0.0117803709806136
0.0108534579926202
0.00947497969646632
0.0182495181604946
0.0168270764991407
0.0130366765802413
0.0198046966519587
0.0121890276758322
0.008916670598579
0.0104413846025785
0.00533327432091945
0.0205585686194765
0.00536309498991618
0.00594877761836523
0.0212913168097749
0.0194819888422154
0.016831942589603
0.0168966541678099
0.0173457875059265
0.017118217528148
0.0140361149580975
0.0111853379905143
0.0135179172051134
0.0155012819609189
0.0148358427359736
0.018469132258509
0.0191756015057873
0.0037520599957672
0.020336446848715
0.011686130536766
0.0105354842215891
0.0214175718870244
0.0179551680184104
0.0143173243358551
0.0240721004383661
0.0157978892995456
0.0146613966789682
0.0205590348498335
0.0126030796257469
0.0078034106434692
0.014818083145566
0.0110549855569142
0.0163605325191659
0.0112288144539239
0.0122555439317588
0.0156627779420294
0.022051496132165
0.0169167575082397
0.0132202355816973
0.0131090935883615
0.0130510539274557
0.019122206383367
0.0178388571166982
0.0227882497456926
0.0112613686898875
0.0180397201073104
0.0195565288673019
0.0106652607795359
-0.000446112577917082
0.0179289854216979
0.0233917489880334
0.0176003906059518
0.0125077547712648
0.0139609713911114
0.0169571146655312
0.0164012585540052
0.0165453522302952
0.0152031993872516
0.0251201230849337
0.0168066812012693
0.0172398560989178
0.0191393627346208
0.0188526052039133
0.00706802346378765
0.0202699119074711
0.0244011992308471
0.0176197627351898
0.0222371474897131
0.0110348844970516
0.016366895507167
0.0196105130076507
0.0162296804061306
0.0226374816542572
0.0260748143927461
0.0220365166507112
0.0220149414046041
0.0274250192704943
0.0108328285709399
0.00943244759611466
0.0193149856683637
0.020438758251966
0.00885506799245182
0.0254823208780504
0.0183685209203883
0.0083414525740299
0.0176322532018262
0.0134394234600357
0.00383189009218452
0.0252645764017612
0.0203822497758836
0.0139103986647566
0.0207987105844916
0.00812233570339628
0.0133730470885598
0.0336592048269348
0.0248384363489482
0.0319030777976095
0.0239211032221634
0.0198366359893033
0.0103314615718317
0.0237608958118821
0.0222687370028709
0.0136360310735692
0.0210894411639399
0.0205367728488718
0.00783315463133009
0.013848911244774
0.0250213149843336
0.0272163687221708
0.0171953054172985
0.0231082063792524
0.0207944414098042
0.0231887583836891
0.0278389776455814
0.0224766222287825
0.0265012715812318
0.0245005131133795
0.0186478750809469
0.0206800566805285
0.0235274090700743
0.0227610376850563
0.0331201515905234
0.0216879420984621
0.01850521248195
0.0229566213816217
0.030776569169607
0.0220171960549231
0.0191668693983718
0.0292365312476184
0.0314426638268008
0.0266663583768986
0.0265750682934614
0.0167019685919897
0.0227056421690528
0.023459719249
0.0212133771994881
0.0263729912479076
0.0278517378517863
0.0224673197951196
0.0267720578786401
0.0315631625888904
0.0300296870678532
0.0267146424295519
0.0345615177775148
0.0308199869510559
0.0377968744818347
0.0328468931943635
0.0256085708964738
0.0305749794655577
0.0332746021531945
0.0306727754071455
0.032121417353185
0.027726453462174
0.0282299501809458
0.0312294183973672
0.0280068019213318
0.0343279359240541
0.0379552729638116
0.0365874801408224
0.0442825607382916
0.0274658357499747
0.030553100675826
0.038283941971253
0.0383655895036729
0.0505037692099322
0.0473667034371931
0.0363462600227288
0.0331494409682505
0.041276906499423
0.0469782397555338
0.04498509295823
0.0430604226982956
0.0482611391896947
0.0453079009299569
0.0537133937648244
0.05311295829362
0.0487161771702169
0.0539657757261924
0.0577171303485466
0.0619270775656217
0.0567438032056943
0.059136338711835
0.0572768752885218
0.0643214604883726
0.0586023827977429
0.0618584600983838
0.0616540266417472
0.0630725571511132
0.0621073048488462
0.0633678960486346
0.0624139338970963
0.0671306687452974
0.0713662819026533
0.0799955263977882
0.0780155854725604
0.074872072778057
0.0777567722299591
0.0776676766377846
0.075578460207311
0.0795312168678264
0.0963303869715768
0.0903377697646919
0.085950935621324
0.0811989670158436
0.0924557936065536
0.0877197435443269
0.0880438093221217
0.0936964181310433
0.111624019476208
0.0968379898609994
0.0947912086629862
0.0943628340227293
0.1060792445687
0.0951009571960588
0.110696828177605
0.117781514064258
0.110813074848855
0.118835289168373
0.124517713557703
0.112629874755723
0.119591096824143
0.113849463537425
0.117401383666892
0.129610438463912
0.125865050418141
0.126666594174967
0.14033114563567
0.125547547368219
0.127268761571044
0.135471031997501
0.152921332411049
0.141460077955662
0.14770323519892
0.127446329710926
0.143445409951039
0.15014567156455
0.145459819874262
0.150110827282951
0.162700832267745
0.165614462285537
0.163647787248723
0.151992243164864
0.160898417968525
0.176364412354417
0.173254133117044
0.170000009057814
0.179826772217926
0.183774641645612
0.171157108431817
0.167781537151534
0.190962103386282
0.177546812716081
0.197066585609949
0.180401294739904
0.190958726143768
0.188060957813634
0.180690628442487
0.198496749350844
0.198272865883841
0.199779937313491
0.206707661874394
0.213305571711629
0.210494588294536
0.217018366018338
0.223858736462832
0.214126220755568
0.222422612573934
0.233122695062311
0.233868130870644
0.228787458903001
0.251634906197302
0.244664247074711
0.245018879079468
0.244319052729272
0.253004106179872
0.241648127374006
0.254098612113449
0.230193029199848
0.246665631024537
0.246331318876059
0.254039366691817
0.265533962667133
0.269874941876858
0.269764820178471
0.277847486690431
0.275168035913986
0.283235754977015
0.272764890890061
0.279350657915761
0.302211683908708
0.309839676761027
0.300400022298981
0.301895849427127
0.29853187537944
0.325211203826641
0.313208176490721
0.315204498701827
0.309376343093185
0.321004142331544
0.335352590306738
0.336069669734695
0.322938549034824
0.317855622494138
0.339664385312383
0.347740813294688
0.347794050711199
0.355140175640852
0.340833651219523
0.363435147034125
0.364547776356975
0.350028865359047
0.357786207089265
0.387450630180167
0.371907684556347
0.389446509053269
0.388495322065403
0.379628138760414
0.396282065788082
0.393688283258597
0.383775114654853
0.398079105346769
0.394028851663618
0.435154150596342
0.431519446484646
0.39603667621481
0.410637216650722
0.429629147746656
0.416621864721443
0.414591461835133
0.447859811370563
0.448033286723415
0.430487073628263
0.458614913554023
0.442883672982585
0.454072384236904
0.469788015682863
0.480243494952993
0.47952957386005
0.477944662799273
0.477658704866156
0.493971895158145
0.48234832700396
0.477706982808012
0.483758667489675
0.481081779008522
0.48210572308426
0.492913886664977
0.477559902935932
0.500433140244237
0.521283157755553
0.524750433196356
0.541289216582468
0.546043552985831
0.538070874696221
0.553278201682902
0.534850551469605
0.543641271807814
0.543815740426593
0.562967971631516
0.569432327241953
0.547397720703907
0.529737127402476
0.572312121891008
0.579866190927389
0.570872254740404
0.558106284406352
0.588402348075142
0.598185075671596
0.578462471664311
0.582049477949104
0.603721983078625
0.610400317561107
0.605834356968018
0.61378180913319
0.629180510127262
0.6402484233026
0.620790014079655
0.607068059635399
0.641001814536043
0.602187312541837
0.605823672791773
0.618473507902027
0.612168762455784
0.637882343026771
0.669504490391503
0.653524797781317
0.684066391646407
0.68369463907722
0.647974185317967
0.673986049013777
0.661419777306756
0.646865851279724
0.713006716565512
0.689729003545852
0.694776447802862
0.726715078592842
0.710559413926836
0.679737395752059
0.685284853224278
0.730707780145322
0.72530730875992
0.739061723546482
0.741335361343001
0.729558899182878
0.72489797186267
0.765344652730588
0.748489303679164
0.72964206456215
0.757973745882878
0.743736854069289
0.727827864299116
0.761414859177742
0.739319965810075
0.732059934343843
0.74061683923395
0.745352324814087
0.77268378953707
0.778556176647347
0.764235990234587
0.795142120518343
0.794827403030352
0.775867340757605
0.778160621161748
0.778772179913446
0.803711472968493
0.803330658218101
0.804794123775003
0.825296255656942
0.822823118771917
0.850696075723482
0.798101190172015
0.808781342096053
0.837193835172817
0.79405455191162
0.818813422674222
0.839416290486815
0.825827050756013
0.830332964434273
0.854695099302822
0.834165307785738
0.815413145676177
0.855644202637421
0.850210068233981
0.849601001621902
0.826091607895834
0.900021297065974
0.871479089945999
0.882437940688516
0.894243513235807
0.89099820841328
0.868398723881956
0.846135958660448
0.855552797287296
0.85540600272512
0.830945475821789
0.861893313357884
0.897710894500105
0.914248727580542
0.893705285487824
0.912143220811207
0.882488594547431
0.891776013112552
0.881735945852545
0.886921664678742
0.892405304701524
0.899727281482115
0.92386674152925
0.949799060515192
0.927845521269878
0.921243286368583
0.932829371261766
0.9452575086388
0.916573384395356
0.962249692450856
0.912205484070703
0.9386105268331
0.90861447778299
0.941132633749075
0.980667321692575
0.971312453393097
0.959422446889267
0.968623403615492
0.9372907983093
0.929322233370932
0.960263843585078
1.02379355203985
0.916038393936403
0.934414314435684
0.945999027435993
0.98662390496901
1.03039240687484
1.01823001631419
0.918568911410735
0.984985912399285
1.02352140639205
0.994232834784236
1.00868108202633
0.987926281308447
0.945125353506527
0.978443425583127
1.00873110528831
0.995883148770668
0.942484376959375
1.01295067562778
0.996454232483117
0.986884041106981
0.927017856460391
0.96397261613007
1.03017258010505
0.995474953385686
0.994140953633376
0.996010652194557
0.96652308634427
0.999089953295682
0.981470501038456
1.02099247424907
1.02723818235166
1.01758436009901
1.01005678432919
0.996213455899353
0.982086940557379
1.00447775095447
0.980055174289607
1.02825566724423
0.992186597321395
1.06791864066666
1.01821362853038
1.02177068011784
0.983671155190737
1.04200775656732
0.984359609625234
1.01118364853112
0.941565150711149
0.992983404685475
0.978792854826837
1.00336074619593
1.02853102588937
1.01335918354086
1.02664454302762
1.09404646156894
0.993436403595615
1.04353806529794
1.02934377346749
1.05099344567303
1.01427164930248
1.02251122290023
0.98008347949068
1.02142970431005
0.976276844296472
1.01293917379571
1.01900150739214
1.0499158290519
0.98183331495112
1.014807657318
0.99062597576572
1.02803898183132
0.979819488956423
1.00175747269029
1.0193525636925
1.04365077596467
0.995195167126481
0.991609357523406
1.01493244305822
1.04428382607051
1.02003207906377
1.03412758235392
0.950795113032804
1.04355509608544
0.985613265624692
1.00251187807658
0.960539252483604
1.02527345513635
0.999666074300004
1.02583687851883
1.00536111483123
0.985248345158211
0.964746806188252
1.01459182229891
1.00960961799574
1.00509586398664
0.976595382969926
1.01507292151058
0.981630743230007
1.01208682378123
0.976142673986043
1.03789190949357
0.977518732418649
1.01107446398639
0.990878158163051
1.00720679192681
1.03212512098843
1.04010374722925
0.967295162575333
0.980569163947542
0.961114347042489
0.997674058905157
0.994563197876051
1.0280673741723
0.975822033945979
1.02062032142811
0.94234337779048
0.981643897613908
0.995835718940701
1.02950565524323
0.980816397040614
0.968885571487193
0.95283974699497
0.97412755893005
0.925006923562095
0.994789988127244
0.943875240959924
0.953740465394336
0.962764794675833
0.954021582063805
0.925558807418223
1.0006513952113
0.945228418647526
0.976319698801259
0.944942158533875
1.03877259857553
0.969935640446368
0.977043697042586
0.955757617239557
0.967466942906826
0.936165916025363
0.982569903282161
0.881042210266266
0.936400004773986
0.937262118898033
0.978940049582597
0.912801400834901
0.921211833313729
0.920792023285011
0.919044013261769
0.907485670347415
0.905792183059525
0.928943409849275
0.955968275200418
0.93116616338295
0.907731683138008
0.871077598818811
0.931619584043317
0.919328726327877
0.940216757585587
0.888828152546907
0.926300767647496
0.906045421983734
0.912757800597066
0.874075879667878
0.902074167017315
0.883438238534247
0.903776420246802
0.875484567134659
0.90204459986739
0.893292948623245
0.87135542485899
0.847552519598059
0.875304069100171
0.86409941953855
0.875952258251577
0.837884443715517
0.859934459759198
0.830397848011212
0.850414349694042
0.824562315343671
0.862030080148643
0.839313782154982
0.852916526106122
0.841666642989417
0.856924932304947
0.818240460275646
0.836344111780024
0.812902521369794
0.848484448033598
0.812344451070066
0.824041570641213
0.801248799963839
0.826144624522032
0.821909667435305
0.806274889017279
0.792295993438145
0.81508015997616
0.801780455136468
0.801586957316873
0.765180943450654
0.828277716874514
0.7730912074035
0.79400608796231
0.781386189573411
0.775683143770191
0.765981238473677
0.778809239025982
0.759094380839417
0.775261501106005
0.746583867543232
0.774872934099068
0.743713415422798
0.766621483017879
0.742803412631611
0.755053662350641
0.733431397445459
0.752668329835099
0.735850374525078
0.720264220197797
0.716811047643353
0.763092770676992
0.735782575515378
0.732148492813272
0.705326353863387
0.721025773629734
0.690062060576791
0.702104962783675
0.683993651894607
0.690288967483306
0.684322745185887
0.687989816679872
0.687542458845217
0.695481944905496
0.681363288648927
0.687999387219705
0.661560943560794
0.67336901949863
0.681586434320502
0.68109439316846
0.650571548540687
0.662120804417988
0.663378195053621
0.659163264019382
0.637437639776958
0.641402964784052
0.638923485156643
0.647262378608623
0.63286339713042
0.643420182968184
0.636047447015644
0.655484763207885
0.613400107543951
0.627315620410983
0.596675427622701
0.620317091746841
0.610301958079313
0.628111586272862
0.599319880818264
0.612821131554858
0.594515692443522
0.61413052197657
0.597009854805038
0.602054399661153
0.590974638307538
0.588806695291904
0.575222531252052
0.586056623877584
0.562707658917948
0.575431042358304
0.568506661281694
0.576466806327006
0.557122223819648
0.580039586778486
0.567901643049661
0.563192675778561
0.545034512753299
0.563048967537909
0.544765460442104
0.559616479645822
0.55413457152722
0.555019853670532
0.530609817822953
0.533265462455415
0.540858312689741
0.546699399230167
0.529688349679302
0.530216137398341
0.521720806115446
0.532586305129243
0.507284720275323
0.515545283391466
0.517940285350887
0.52168238497852
0.508700590497205
0.516755541585592
0.501430238713884
0.506429981995952
0.505371549700581
0.499185218540003
0.48982619207045
0.483813451395714
0.490327085429651
0.488861476619064
0.475557258475917
0.494035958223296
0.483441822311966
0.477219774385082
0.482450750477274
0.4780363330865
0.462783916223524
0.479921121242893
0.463633088631592
0.46360552319732
0.451272910436073
0.467712788955705
0.453335209168808
0.469432096248042
0.446511722758836
0.453230054234196
0.448839158336245
0.454149249412712
0.444172067115234
0.445383489632731
0.430731939623376
0.438330844924558
0.428118632966619
0.431822290200164
0.43006394153052
0.435459572091777
0.419990365676146
0.44113935279179
0.417450802064158
0.439230857397868
0.407028431450458
0.429750440334493
0.420120230627429
0.422430576005339
0.40207443112029
0.418883953515128
0.404283543978431
0.412044573705006
0.401782313173606
0.402981147909862
0.39182037263491
0.38927976745672
0.391590499853046
0.39331325634334
0.387558626946148
0.388774441993623
0.384436038865638
0.391385305297038
0.376918500737625
0.393433477259066
0.373532534392439
0.383913617881498
0.376314601330698
0.380836370676243
0.373364448784442
0.381408428568447
0.366041864206332
0.363405006618427
0.355905854092772
0.373400678553247
0.360925304992731
0.36655965944815
0.35462179738691
0.361998779593885
0.3546440200779
0.353867667076626
0.342986162443362
0.351607286849135
0.344829913892842
0.351020446978374
0.337914851551268
0.349046107782594
0.344726621887434
0.351029012561498
0.335457675010159
0.341769467317405
0.33751638031679
0.342231518264389
0.337622135885724
0.333530933788612
0.339705525272911
0.325701796778759
0.325780999500849
0.333067147650397
0.31247480262014
0.326707401606738
0.33285776412373
0.331730849919806
0.327970361794382
0.327207767105101
0.318760453789355
0.318448577571612
0.318790882179142
0.319771639331131
0.31356278497089
0.313540957170452
0.317178530318219
0.311312562153721
0.321261310834785
0.317486544125131
0.311136211505889
0.316789856815805
0.309322943551299
0.318597289508946
0.308558561926168
0.311284894933305
0.318315330750334
0.317298742452738
0.312213040458935
0.313950716185911
0.310038358671085
0.315723635134981
0.309941696665163
0.316651211896363
0.31587432915264
0.320969023774677
0.317873179169564
0.320942168586115
0.311520518747557
0.320856045823779
0.311013805902595
0.32910392919537
0.324795735297768
0.325570356545653
0.323310071578341
0.3310745426084
0.324764182541054
0.333065756974173
0.329973086030888
0.328116538744114
0.333385277976117
0.336429307955952
0.334015303782635
0.342745998605099
0.335814224961651
0.343840709911752
0.344283846361971
0.34021251420688
0.342093441793189
0.352704727964253
0.339115774845768
0.366519771589529
0.346696210885265
0.35028717941721
0.356640955556559
0.359928760256399
0.356564533686037
0.36348101224268
0.360132807415877
0.376185481825887
0.358775871555136
0.381183236913153
0.371410959271849
0.377507662641829
0.3805355156624
0.382557152306543
0.384253167548064
0.392007747387066
0.382021111291657
0.396551509553603
0.398881556887524
0.405599133337945
0.394397276957243
0.407370572804117
0.400221603569908
0.415511586568849
0.40578794244216
0.418928076108973
0.407946951176126
0.420570698054184
0.418671646438779
0.421091774542451
0.421528663686791
0.421838971816573
0.419261604962778
0.425699504990948
0.422522311284008
0.43800795416125
0.420648454911195
0.441471963482554
0.419462918105331
0.436688671792921
0.42027028596106
0.424802690206169
0.429947213870548
0.427613333401415
0.419609771349175
0.433334951576131
0.420348522454938
0.432007803523668
0.426369211236573
0.428436999129199
0.421075664483345
0.436146666585596
0.429657333659206
0.431600913046912
0.417324661525769
0.432297285923366
0.418632433053265
0.428167062372717
0.421105971211089
0.428232984340785
0.425568026562514
0.437733582117337
0.426086881731192
0.436163203436718
0.435038098943941
0.427829175450013
0.433564227813342
0.434973850745313
0.426397628304077
0.43661759271835
0.431227861686268
0.431142715846365
0.427386011898703
0.421891504932087
0.422049209842403
0.430957823973617
0.426997635461622
0.433442700221399
0.42603825172059
0.423369250197105
0.420490194731177
0.427538797145131
0.4252173754686
0.437391440374116
0.422245024890607
0.420931507424785
0.423199411730819
0.427054001504424
0.420085331952342
0.42775717047957
0.412150848717434
0.413360947670093
0.410481557735173
0.412710492890759
0.409719617932309
0.419049539509828
0.399530585757266
0.406798926055067
0.396194273750307
0.401552454429191
0.389118455024774
0.395002866983456
0.384741094201043
0.390078083361844
0.386533459652595
0.382243774876982
0.384409940470731
0.380835092018796
0.369518250324225
0.381318237875359
0.365600871642821
0.374447698258493
0.36378018791246
0.36409221922864
0.359431384719277
0.364331242362718
0.345466103761042
0.358552233762502
0.346272097844281
0.345035544682078
0.342145583015126
0.3433344926767
0.340062873914155
0.333445484813842
0.334786016280108
0.34022235798641
0.338879088659221
0.333250670593795
0.322352514105974
0.328519057202304
0.316856179835452
0.322237356060227
0.321927265791615
0.318394261379247
0.309291107039843
0.312487906782335
0.319606656575901
0.318661292680197
0.304724626053454
0.297818347477825
0.303460076203483
0.303043179757599
0.299625306065463
0.298918106271831
0.293323461009792
0.306074264245149
0.300391356319817
0.302235524848025
0.296384865617174
0.29658033038269
0.290499570369578
0.295936466171679
0.286740054226491
0.290368802633708
0.291027873048514
0.289667504757615
0.27897595856309
0.286468584171601
0.279689834655408
0.279538144351015
0.280798667980471
0.285440915768541
0.275064591180495
0.271479424096561
0.274562475262389
0.276924150694818
0.271228414805363
0.27777583201098
0.273357362349389
0.276569574578861
0.273551800782589
0.265158877806498
0.26495095832748
0.270381126060865
0.266895685593866
0.268941492229185
0.257194712185728
0.264405903751243
0.263220850101803
0.261227494859424
0.259660405171152
0.258300886729324
0.256126956362788
0.257868758928269
0.262222342016465
0.2597435869471
0.256769955674976
0.25781365002203
0.252079883113859
0.259741791026098
0.25541725155768
0.253135805352166
0.254121793574256
0.247899247530829
0.244007306137708
0.24836540929728
0.24424882439887
0.252415563307902
0.249244819190619
0.252181221487996
0.245953866793674
0.248611075689631
0.239769636570054
0.2431749705575
0.24240441534252
0.245991380882521
0.245288898170303
0.244251625674779
0.244045366209853
0.239651438453301
0.237298838359472
0.239558953418031
0.237095498849219
0.241577132219142
0.235074953990066
0.233290926325598
0.23309843115262
0.243264482199146
0.235479470016394
0.236553437397862
0.230666214696084
0.2362870665872
0.230625898311529
0.23216321057406
0.230961969669797
0.231928957214398
0.231730012072699
0.229131583050626
0.226969823523483
0.230301539433867
0.228214603857714
0.229292610982231
0.224145319266453
0.221205601612478
0.225166580163927
0.232265948172468
0.229169684626884
0.230447173493514
0.226762198528076
0.222810296885765
0.222862997137261
0.228918214466872
0.22813919618684
0.224927862336809
0.228029836791347
0.225147166775984
0.224390298904649
0.2226500103172
0.219969140394128
0.220967098021072
0.219746259458886
0.221724056591033
0.216595603522318
0.222883850898346
0.2179989359526
0.22256226428606
0.217146228501211
0.215607302373525
0.218766129865755
0.221151825985628
0.21628916783957
0.217902061049294
0.217439733330612
0.215970863173937
0.210950049439799
0.21473094844457
0.211511969593877
0.215259479168239
0.214418458277495
0.216407386353731
0.212057978100375
0.212953026370556
0.212147480684547
0.208754935007224
0.211883975518365
0.210813832751666
0.205104193663308
0.210330517175911
0.205410718333228
0.206823517287291
0.206466146570974
0.209126063960328
0.209563146523
0.207678826428772
0.205278587057875
0.205096771422395
0.201837501475841
0.205329661795546
0.197994342713899
0.196708404131067
0.20080567624764
0.200917092582345
0.201207668220499
0.199894506592268
0.202595284746643
0.200058314872966
0.198677689688571
0.196465039805436
0.197599247439665
0.199146652920619
0.196131706174242
0.19583665086666
0.192328353148788
0.195900234399066
0.193512122555599
0.19201849850477
0.192571760409528
0.189781030754279
0.18719278336825
0.192115128083201
0.192577766228351
0.192145163755406
0.187317382487596
0.189756357114843
0.185545283153216
0.189133068052809
0.185836451393953
0.188416930552076
0.186027150368604
0.184264736330735
0.182093139004821
0.181971581882966
0.180288392441365
0.183070879347628
0.183758096021719
0.180902288282384
0.178974676721563
0.179208840437077
0.179716549575271
0.175578228853116
0.175705493497867
0.174063156231815
0.171062560162844
0.176595513240213
0.170580592828472
0.167469230153163
0.172135618597007
0.171947108786525
0.167597281551177
0.170155127260523
0.17096554023096
0.168547220963496
0.163580752946623
0.16520857038756
0.166078580343998
0.166489378026349
0.16321259650174
0.161791522173173
0.161167963641912
0.166399158085456
0.160639596727645
0.161256371543214
0.159522910359099
0.160589375898413
0.159833998638769
0.159617891279819
0.158493934592769
0.154950484907438
0.155460746010029
0.152204851136953
0.15331148668718
0.152907853450395
0.151576427427221
0.153034509329654
0.155409107629207
0.153657829846541
0.150390804502193
0.152646674968849
0.148451704050636
0.148005324430074
0.15294626591515
0.15048867755729
0.148191022753302
0.146821673954465
0.145224407277457
0.145180363087291
0.142896116381198
0.14441227513918
0.146089872494649
0.14669344114829
0.141713421454437
0.141879439452648
0.141906007684985
0.139288385312287
0.138779493520755
0.139191245703794
0.13975959758302
0.139994647348032
0.136651543862015
0.142733519271719
0.137483025560359
0.13471263688315
0.132069516317723
0.135564857041514
0.135081107384441
0.134040465683044
0.134081450507116
0.134674379182507
0.137524385355563
0.133470205401763
0.130974009649539
0.133807696143924
0.131138526825852
0.134343468692185
0.13356474312129
0.130243994485376
0.131197273558045
0.133089871233326
0.127406969059359
0.125510590354545
0.129478604607748
0.130518829680516
0.127439890881698
0.128966475044434
0.129337900673284
0.131089126436427
0.127574487124686
0.128296838935652
0.126834361500833
0.125608270160494
0.127645423062224
0.125709714143329
0.125600379888921
0.122110754453389
0.12312464250563
0.12420249569769
0.122459988677335
0.123433764521322
0.124032029659142
0.122584059846229
0.120968964016118
0.122414648633443
0.120089087952219
0.122237459856119
0.124278254838273
0.122537243215659
0.121401264288864
0.120932549273802
0.118789166896676
0.120869176187353
0.122575131799031
0.122768967394819
0.117960050210135
0.11639472871898
0.117313906986358
0.118858995222535
0.120140238071597
0.118573424274124
0.115401557440268
0.116884216543338
0.117167286103126
0.116391665621327
0.116369928669687
0.115155077893328
0.112802084787004
0.11538038656829
0.113512687449132
0.117633232615309
0.116464364242019
0.111753803927033
0.115803810715968
0.110417347288385
0.108496186844453
0.115821795847175
0.114207482746657
0.112965908202125
0.113759577489802
0.112657619890101
0.112347826232341
0.112999352520313
0.110429839607448
0.112692535692681
0.11044544615589
0.108767229949022
0.110338049058949
0.108816883324052
0.105630273321635
0.106900743569297
0.107894316452096
0.108671418286356
0.108791948815497
0.109092251091432
0.105483643901394
0.106063502516205
0.104425175317463
0.105899695433485
0.106766708831863
0.107243275275544
0.108746707067338
0.107319730861667
0.107595451662156
0.106400304959194
0.10446833722805
0.104333576141613
0.101552481418139
0.103316229660713
0.103849879906327
0.102845130869935
0.102365618791244
0.103413617141506
0.104817236714389
0.103776046940745
0.100859476018151
0.102362750089586
0.102551283151046
0.100361156845734
0.099027606253943
0.100413438422051
0.10005565866571
0.0986509422012128
0.0983740277495259
0.0976570136700131
0.0954757002452243
0.0967813766450877
0.0970261056156063
0.0965114646274562
0.0956012773886852
0.0955315293930968
0.0922668537030321
0.0934441076011653
0.0955145830233875
0.0951112667824182
0.0936899902050181
0.0943346022036792
0.091675730141203
0.0908235606977355
0.0919223006434491
0.0931299576903461
0.0933517662349949
0.0895859630147625
0.0915891408244129
0.0924630314286352
0.0910527328465942
0.0912918083968006
0.0880322516025254
0.0861104639617989
0.0869092706558715
0.0899780199167557
0.0896357473690533
0.0877556938891688
0.0870699167838567
0.0861607592405465
0.0844209817369213
0.0854461944748093
0.0844551486738376
0.0853206398011202
0.0826614523920651
0.0840743339947937
0.0845911338723755
0.0837303392605235
0.0830339458470965
0.0827335528875508
0.0828919892040066
0.0821972079335033
0.0842806751984985
0.0826917209617754
0.0816173655709533
0.0815179672881227
0.0803463062971096
0.0786331583246386
0.0760282201377524
0.0778315554606411
0.0771590681034054
0.0784814685696265
0.0778730383145458
0.0800243008045841
0.0771250156868947
0.0745408720981696
0.077611964210297
0.0778498211734472
0.0784051434695768
0.0761706644896569
0.0743153983369584
0.0757367586587774
0.0751648299932958
0.075467768326593
0.0737405643860021
0.0719810727235175
0.0742623820812044
0.0750910186303555
0.0744719903649844
0.0723848152807292
0.0726171836571338
0.0745947050111225
0.0720744283747597
0.073771544122089
0.0725754100666147
0.0707638869578396
0.0732125158560368
0.072922456767343
0.0696381224784045
0.0711352818078023
0.0719876217492375
0.0698111374314521
0.0671327791097705
0.0684886474521679
0.0682361266338191
0.0670228699025046
0.0676472588617559
0.0685736865897558
0.0671260302639438
0.068231793341597
0.0672876801559097
0.0654159924930587
0.0651084954378697
0.066127148120487
0.0684813655361482
0.0675833332284935
0.0666691177455426
0.0667640342418785
0.0674633133062229
0.0673498127115969
0.0640131991803865
0.0661823642823234
0.0684210320765153
0.0656083009812315
0.0647840439517602
0.0660276651696647
0.0648953358541705
0.0668558093780995
0.066074322922529
0.0640346780364919
0.0631859136369647
0.0623932927744038
0.0673173505954459
0.0616357369467182
0.0608583975994433
0.0645246807351513
0.0623341929299621
0.0631600538249704
0.0652212127735055
0.0630137818493698
0.0598494261846775
0.0619635847479093
0.0604276898805931
0.0614111011103954
0.0599989035322513
0.0591479444421148
0.0581524357924727
0.0603429689269324
0.0648972963767643
0.0576842140831517
0.0586874736122563
0.0639082305838622
0.0623682647058623
0.0649730813189762
0.0599393537099894
0.0620988148712725
0.0571049548342514
0.0592578150534203
0.0598484843366346
0.0575582066641422
0.0578553045564539
0.0574689274500485
0.0581784431819542
0.0590199686120657
0.05496367386623
0.0593011885296205
0.0594812678546154
0.0586764776576231
0.0601154773086633
0.0550376988904978
0.0594213582210271
0.0628653974663863
0.0635904906547659
0.0604392501506925
0.0563555712406389
0.0585177126185889
0.0595322706028179
0.0537295607673181
0.0572760949729585
0.0582835260062577
0.0585599431492025
0.0561642639899809
0.0560512794492549
0.0568142218835175
0.0593181678299539
0.0513601702438301
0.05440098931621
0.0543839179215974
0.0556705921528933
0.053241835392124
0.0612456909510142
0.0485309490533529
0.059559651245504
0.0529847665295775
0.0536078265847338
0.0547591786582301
0.0572889523200207
0.0550224124135734
0.0546768308557007
0.0558634280636945
0.0557312094764882
0.0555627443420477
0.0545993269667768
0.0543256202626298
0.0520365936414395
0.05467115455605
0.0546246376962362
0.0560344066902684
0.0539562980877069
0.0555729855760477
0.0553570587545963
0.0540369655131397
0.0533897949438074
0.0527212395651742
0.0513580197267998
0.0507775415949822
0.0524824675085352
0.0544917050475648
0.0539937121860798
0.0514030545302571
0.0524542503976592
0.0516121868671355
0.0531157645175487
0.0564786175370525
0.0569086268779819
0.054682611596433
0.0553164348093049
0.0535954172496197
0.0540055294613916
0.0549032140732385
0.0529675722680275
0.052847581914941
0.0508661158857926
0.0536236473534505
0.055680080279319
0.0544667771633989
0.0536181079561984
0.0534482883155882
0.0532107596174646
0.0542106658491394
0.0545852625848419
0.052688929388067
0.0517178000033386
0.0511281561901546
0.0530027292996878
0.0549260533721753
0.0530962772360782
0.0562630883534915
0.0544258069444324
0.0524754605697606
0.0532072556204492
0.0540037105101651
0.0520870650769014
0.0529948778832813
0.0543874511945054
0.0532554374387631
0.053384383430441
0.0543826000978731
0.0535381752593447
0.0544577648604596
0.0532907013835942
0.0548575568172528
0.052413418978861
0.0523998084117957
0.0519063793285165
0.0528137431933158
0.054334660196888
0.0546529270269626
0.053964810043636
0.0538934986969716
0.054447129673001
0.0546229447285035
0.0546016667431124
0.0533337649564535
0.0516958741123517
0.0518152738775763
0.0530310479632083
0.0547104562464651
0.0540107009838543
0.0542950923384677
0.0553742740751724
0.0532065163634593
0.0517023064228687
0.0570235805494469
0.0532932275575775
0.0527884547055341
0.0541521554554799
0.0557537806387578
0.0549021071395572
0.0525009619086694
0.0537690090818646
0.0531966304440365
0.0550410493175076
0.0525434926730761
0.0555831932582278
0.0552908584863671
0.0548873360172211
0.0538496541534075
0.0514036613247375
0.055690479947837
0.0541569904720306
0.0555582106115089
0.0516217711155623
0.0562992571398994
0.0552994436964997
0.0541929494096049
0.0570705368693449
0.0551448511451086
0.0557938716322885
0.0542115283074714
0.0549230161513233
0.0551339671708772
0.057228446214229
0.0519754307528691
0.0569590965576409
0.0557882525269973
0.0529306991546468
0.0566042420241942
0.0575215852551637
0.0580527059572186
0.0559283575912306
0.0542881261560814
0.0567375728237428
0.0582866455406476
0.0576081988155894
0.0556877815960081
0.0565353802315977
0.0572817621310895
0.0581512545850757
0.0534848524171665
0.0566369742012495
0.0577808121323316
0.0574589152734963
0.055772151153509
0.0579025972708351
0.0577566081225236
0.0599343124381562
0.0572559424201129
0.0582405820995134
0.0561455232752511
0.0567164513345819
0.0589603186232106
0.0579539683709846
0.0587330878513193
0.0572636232502665
0.0589174491863266
0.0576356957430837
0.0555146597893122
0.0569514167344146
0.0585499536653839
0.0605332791106309
0.0575507615793798
0.0602252532939823
0.0587498858234389
0.0600101279778776
0.058808778144847
0.0579387714401966
0.0586006966804951
0.0597241121640825
0.0604982004298557
0.058881210586172
0.0593160269226836
0.0573910633546053
0.0588491756961533
0.0610875032308543
0.0584922796388658
0.0593622160780801
0.0624255035139493
0.0611991460971536
0.0620136424292223
0.0607846325216731
0.0586994899061694
0.0604997849781003
0.0634750281209527
0.0574377517618197
0.060820168554304
0.0620030210201739
0.0612217700381438
0.0594988382194521
0.0596834168491362
0.0597787484852336
0.0600146698899904
0.0584345036001577
0.0581911760384817
0.0596511417079719
0.0593238742116952
0.0590872072561906
0.0604654518125543
0.0595829817332155
0.0588601525899799
0.0592505649634212
0.0605170316413347
0.0577914620377844
0.0582637911521154
0.0569584941486984
0.0597212960539548
0.0575665141773322
0.0596739118046025
0.0608618318812028
0.0596956331694843
0.0584833655246149
0.0565801156180559
0.0588220266065028
0.0569946795540184
0.0567216872042049
0.0565354141528327
0.0590320655913351
0.0574298458790112
0.0560885598081636
0.0572512761151833
0.0577286715824397
0.0608576416495855
0.0573253620002931
0.0571363469003087
0.0559666119340764
0.0563018943242755
0.057643692877037
0.0579948245938202
0.0525819326438028
0.0559742789626798
0.0572184191467535
0.0555406467471791
0.0587271840160549
0.0580968426945788
0.0550853470645162
0.0550975970396429
0.0546015752703922
0.0562454811909661
0.0551701665263638
0.0546334878231544
0.0572486040386357
0.0576511743478538
0.0529037486705926
0.0536987344273803
0.05722319150848
0.056220238429278
0.0546855316728826
0.054688800058725
0.0558573057986633
0.0556484312071331
0.0549367225991271
0.0544069893533162
0.0551372257440392
0.055781090505697
0.0543875297672037
0.0549328238909393
0.0552627188863968
0.055492340137084
0.0552810219565286
0.0519855156453795
0.0545102545636924
0.05434841561456
0.0542234457653732
0.055713088719411
0.0521777858711451
0.0551886480561666
0.0543059610818731
0.0534760710736904
0.0522482873382076
0.0539145199692746
0.0556939611544133
0.0551233961267883
0.0554773007587363
0.0570203310849061
0.0554433414681186
0.0543084132932853
0.0546301741534461
0.0541948398064196
0.0560709324547637
0.0555364757299875
0.0534737379689994
0.0529303212965191
0.0555663172329807
0.053569515799402
0.0560114445860457
0.0542936929566303
0.0545646500216733
0.0543657191255684
0.0552566158447651
0.0532756791903592
0.0522804403914132
0.0515633875287652
0.0531377579437973
0.0538290447604487
0.0501545496536981
0.0509226916589086
0.0535524497471344
0.0529067587760006
0.0526759358154205
0.0535584255091593
0.0530671011239535
0.0531197221231572
0.0525101847690501
0.0539605360964022
0.0529301204579641
0.0520599758229676
0.0503859753430046
0.0512222806549149
0.0545154578348987
0.0513602893398885
0.052431083529354
0.0519822403765627
0.0495168395766314
0.0520099220553068
0.0534251182051132
0.0502616991658501
0.0513499569307663
0.0501569432018465
0.0503673329206965
0.0490337524495447
0.0505333435361123
0.0480905318553173
0.0504177276989108
0.04958560979605
0.0499510332085137
0.0496062499623591
0.0514668686620817
0.0487129433611493
0.0468432121833591
0.0471933188967618
0.0464210228740036
0.0496612263184522
0.0461004490422244
0.0493938435885269
0.0502627505789496
0.0481429294243311
0.0461963323141256
0.0492471578931971
0.045704393275258
0.0476387535259762
0.047764691673863
0.0473728955448557
0.0439697334860805
0.0479082316565673
0.0470263320923903
0.0445297880114989
0.0442706647758024
0.0448299916058384
0.0456869798948314
0.0450233264948765
0.0460739264421226
0.0471961880661227
0.0459433007143839
0.0457182027025894
0.0426648566965634
0.0443712706833376
0.04603664092678
0.0440695502189452
0.0457619557600798
0.0439986239109695
0.0448978117411165
0.0436662315740437
0.0462804172250054
0.0441068526609348
0.0461639608413077
0.0462902946592261
0.0455485207122797
0.0448081597406063
0.042937433024656
0.0434212139292337
0.0438358243285661
0.0448425750268729
0.0429560123699337
0.0436047837537849
0.0457855668722834
0.0441374375774101
0.0442022080791447
0.045401687171785
0.0440478941231706
0.0443581704692071
0.0407646591271026
0.0410735215011549
0.0432323840375416
0.044271974786982
0.0444495993441608
0.0409883368687166
0.0435063391247513
0.0438440224063367
0.0410138890710692
0.043526912337203
0.0390839273454031
0.0433078393897938
0.0432839153117806
0.0425696338274969
0.0421089027302303
0.0407975472837545
0.0408374904928072
0.0429926966057819
0.0427799783739079
0.0433856416406338
0.0429305435189894
0.0403410800243103
0.0413587492723864
0.04205688100193
0.0420759131137489
0.0413811174926795
0.0384866779043692
0.0417729856171143
0.0414055785156115
0.0398655862625977
0.0392246510415516
0.0408869148812165
0.0399179545926679
0.0414196723111079
0.0390962984948014
0.0397766420446355
0.0411267589691372
0.0428162184978946
0.0399594752490831
0.0389724315090001
0.0407344324238896
0.0389698518978596
0.0417095699323107
0.040133007160783
0.0395193276618021
0.0394430363191322
0.039894894628459
0.0394346958651981
0.0396609345584131
0.0410462494520896
0.0389686965679606
0.0421497430787019
0.03796197687657
0.04168561102216
0.0417469511953396
0.0397446053675542
0.0385460589335075
0.0379095652865709
0.0385465985998021
0.0422887026901523
0.0412318153747456
0.0407332687369763
0.0420303343019249
0.0385574595582571
0.0410853155444974
0.0396497129187517
0.0376079227691724
0.0416013226804134
0.0408140306013594
0.0409408982569502
0.0407026289553406
0.0394499393825702
0.0370246893605509
0.0381954593499041
0.0380626291448962
0.0403606164635082
0.0434230739258736
0.0404498837657144
0.0399252584764187
0.0386566551549431
0.039857940223795
0.0418184403811197
0.0406507475710649
0.0394991943562724
0.0400460944868708
0.0377892558135341
0.0405705810115278
0.0396765419161014
0.0414362683484155
0.041640175470735
0.0401499212671754
0.0390599479405956
0.0414309275300737
0.0407238878177847
0.0377301415156572
0.0393771124788572
0.0389607126802184
0.0390304194467841
0.0386251704386064
0.0386850004847664
0.0402553946118827
0.0385755075962845
0.0384207331326922
0.0403630451323058
0.0388379660184703
0.0401700874069013
0.0418977780682045
0.037373807527337
0.0411332984696946
0.037725551175977
0.0417214638834715
0.0376655332534514
0.0407981728596771
0.0393918273956827
0.0397547755075987
0.0410570958578771
0.0419257983033519
0.0386577130790025
0.0400431616435222
0.0393641771894865
0.0374744561437634
0.0411591238619393
0.0381154487463933
0.0387969705921164
0.0398245324658463
0.039743661121624
0.0379585355261017
0.0406371807052471
0.0415137173478437
0.0388941081395792
0.0382856709292026
0.0420925490100323
0.0392530823016763
0.0421878874772354
0.0396312902086567
0.0405843957125036
0.0403725440014667
0.0416539802869681
0.0399482878426805
0.0418760477636862
0.0428404843823229
0.0420395559492013
0.0439192009764357
0.0411676296494538
0.0412994658565562
0.0394961431550476
0.0411811787491549
0.0407582667850497
0.0422014275805592
0.0401729946570173
0.0418075166077006
0.0419256938685106
0.0395166145337752
0.0411973729625258
0.0422611692357921
0.0423126287766106
0.0435245397407931
0.0415305498670619
0.0407615726583168
0.0421634067683356
0.0425268203705329
0.0423550035537599
0.0402077054951491
0.0437312336207554
0.0425287909802751
0.0421242479092141
0.0401470876594219
0.0443143133151189
0.0424332155643836
0.0432589221043572
0.046734769729605
0.0447379109447212
0.0421984919367841
0.0427858177863706
0.0431455276671752
0.0416283185063671
0.0454685220794404
0.0451780484459041
0.0451200413355562
0.0444168567404397
0.0444861303817802
0.0450914016779403
0.0435073832714024
0.0441678707213965
0.0453299884709949
0.0439934709095438
0.0476364943902638
0.0422153792872806
0.0456775941930517
0.0490061603452491
0.046653014268332
0.044651199402902
0.0451320744940701
0.0486850268575649
0.0449993043501096
0.0446890354088134
0.0490471239721651
0.0476473661405448
0.0463048087128893
0.0476733993150786
0.0475103718348024
0.0491960850454705
0.0487007329427199
0.0504004951315899
0.0494164447836692
0.0473681700984061
0.0469912239296866
0.0508794200333546
0.0475940206490779
0.0486221519652796
0.0484162836483558
0.0512308302467531
0.0500022905371137
0.0496289167052476
0.0506364871797449
0.0523717171076512
0.0506965239196677
0.0506502557168553
0.0492631804865109
0.0507378666041501
0.0495398280601538
0.051762671876293
0.0547475512078681
0.0542671212620215
0.0541004623216583
0.054051158579614
0.0510732860058699
0.0539100685669185
0.0519654716226471
0.0550123115502357
0.0561739289778895
0.0566767245286419
0.0539650663728499
0.0602894663364346
0.054554610700634
0.0573002688954842
0.0592882330045096
0.0572989741210072
0.0597633763570293
0.0619713883732517
0.060869013326564
0.0601813013314502
0.0596562586629644
0.0624795528077662
0.064530828938438
0.0659057573891828
0.0644557571743087
0.0647448043509365
0.0680030316224754
0.0670938250389103
0.0691471147342499
0.0678815978248242
0.0738109636216384
0.070387306827899
0.0711204254375988
0.0738502129681591
0.0756205849279634
0.0730425740108636
0.0757913062763841
0.0730899979584971
0.0793966419623982
0.0803955779989583
0.076659962887453
0.0789328194471322
0.0831199806354461
0.079327125790056
0.0818380075299628
0.0859521160112059
0.0834949893833747
0.0824105011735522
0.0897334150224725
0.0829113879009308
0.0878241135619946
0.0911534110419336
0.0892643912774244
0.0917423807145851
0.0917337252150322
0.0941341139780581
0.0937274676556808
0.0973905400705705
0.0959376046558367
0.0977037082710953
0.0993065758529516
0.0995721015986345
0.104241318217544
0.103606443827075
0.102251377538287
0.110724994267442
0.130218129217656
0.105272608894753
0.115918423566557
0.116911829901434
0.113537615776252
0.125784996968563
0.125283621202631
0.130958165602166
0.132699678264377
0.132684655851226
0.137230004081172
0.139569197654948
0.146853902038184
0.150493421874614
0.154597594830442
0.158185926233638
0.164455165401796
0.161983139623902
0.176065595972229
0.178212110321606
0.173916098682004
0.185511712231015
0.191129896498521
0.192659376387571
0.201422267625372
0.202696206328971
0.205131896790313
0.218614832444866
0.215064255898535
0.223767669598837
0.226427646695598
0.238000761846841
0.237746963646726
0.252742614629553
0.24968630229845
0.250620260953269
0.2593954614145
0.260721786675358
0.271531039134152
0.270245530768812
0.277961461056719
0.277925747109343
0.282307624068096
0.28785464658449
0.290889090289582
0.292656560123736
0.299988235837249
0.299685358994524
0.299794484698497
0.298748210301653
0.310784983093645
0.332803265993621
0.322786680969142
0.306838703917778
0.315517322327192
0.311796253171082
0.321844337850427
0.309193052534431
0.323753273721152
0.31811100711738
0.315652411659147
0.318536121536605
0.327275731729976
0.321130320504543
0.320090289688428
0.323219527571336
0.32269296544912
0.331467013809061
0.325740321810012
0.327600920228429
0.34095798867191
0.319532405260613
0.325998440851522
0.320266021794191
0.318873622657505
0.322099500865122
0.319658697951735
0.31667197294427
0.317315449284567
0.322101167587043
0.318915974924845
0.313672979986526
0.321515949464649
0.315408483767304
0.306617070750334
0.303379187719977
0.304807245783807
0.303761364874852
0.30169127088048
0.304185632787366
0.30963338980769
0.293159082241395
0.29263201980363
0.294312281730102
0.290180252976075
0.292912007321499
0.293138301547647
0.285455518340298
0.284855107061993
0.280318667188613
0.283492166832103
0.280360664787632
0.27985714996423
0.274009268217015
0.280134280676511
0.277092901485342
0.281681274413773
0.280598953196856
0.27083298902909
0.272007797862639
0.275122675366363
0.271112053391662
0.271334701572195
0.265273294200475
0.268393177375641
0.271776971832978
0.271890833220951
0.267209574493109
0.267269187599676
0.265545219379294
0.267138810560144
0.267406852684262
0.265963115025423
0.263260666079776
0.261627056395405
0.264722501904287
0.26236621918428
0.261521039382282
0.262249402627053
0.256880216390068
0.255441810835793
0.259944308924817
0.257467263654201
0.265811289948076
0.264691230623676
0.252433414185556
0.255510714857279
0.254559829742153
0.248656497756717
0.242094265875694
0.248479292495425
0.245982096604857
0.237645771977403
0.23362154086291
0.235263363728152
0.236630071982493
0.233883530523417
0.229177595166408
0.232488308001357
0.22698370285452
0.231495295283978
0.243606519124936
0.24040884157472
0.23351815208285
0.218666578361239
0.215897097193595
0.222255226979457
0.222921339477749
0.213067404209395
0.213791381656846
0.211212868317857
0.210222283983371
0.210079505088439
0.209829778594951
0.209126595888082
0.20710527299783
0.20381935743651
0.203192557476649
0.201169418628126
0.19389151959694
0.205943138755418
0.205511352412994
0.202851329985783
0.201515882211303
0.194973941002644
0.192718663197694
0.195429438977209
0.191017239920262
0.190574449640308
0.191820075359223
0.188974827361235
0.188530108119235
0.185158931206021
0.184146379391518
0.185220419793285
0.18153103130692
0.179414161047774
0.181160046913098
0.186227622726569
0.175892668478711
0.177756347303859
0.172377503161121
0.176671314558989
0.182482122444165
0.177638913167085
0.172895072887512
0.171849265264379
0.174694051276624
0.170081396396637
0.17380527042933
0.170343628058536
0.16714582329805
0.170462711856998
0.164271817620099
0.164970487431231
0.165180876260712
0.160049440065069
0.166629111702614
0.174716320774931
0.173351838681136
0.164938725940881
0.165376981819921
0.166643823552357
0.161854703215498
0.165685938297568
0.165075536236239
0.166750317796495
0.166709023336729
0.168030492381793
0.180912509941891
0.175152132454372
0.177309105257064
0.178145508391929
0.176788764158979
0.18170495534926
0.186676952578669
0.183863380002411
0.187293912485862
0.187025015961913
0.189144886739084
0.193438616351283
0.196271861523812
0.196580076069366
0.203465061108453
0.208472978898615
0.211666369643169
0.213536934061046
0.217175215928897
0.223710567988747
0.230549892351798
0.234750556685699
0.239818496591334
0.23604178721363
0.248958322603488
0.253971024377189
0.257919546388723
0.266477244340615
0.268081580842169
0.272774745555819
0.277120886579563
0.281245380311404
0.285404172394256
0.289004413262115
0.296212373348496
0.296503724422046
0.302049893734334
0.304315440184314
0.304744343620267
0.304847686415358
0.311508559802547
0.318518664785579
0.328662655818815
0.32345654676377
0.321953843661636
0.324150395384977
0.326796107243857
0.334605619180135
0.336649156968746
0.334453945683186
0.333577082886435
0.341536757489805
0.347364821786013
0.341184863052096
0.346543863380814
0.345844228507953
0.349229608746087
0.350455343455936
0.350327412157851
0.354978190489235
0.358376549328917
0.358467151275716
0.359347013332665
0.3634438776092
0.379612921368847
0.372672901028404
0.369756519222989
0.378624779204721
0.383436419684491
0.386839542305154
0.388211940782032
0.386471506202078
0.394632928918728
0.39561113033392
0.398752229034587
0.400136526635058
0.399083997158136
0.403087592909753
0.412212019617409
0.406061986830542
0.409382323791439
0.40826247986621
0.417652897775483
0.430052706562603
0.420189787784699
0.425715661605198
0.42673859400896
0.426379934764719
0.430715137169191
0.425599760648082
0.427147944471173
0.429024550908734
0.430845293977421
0.434339534365362
0.435735264250193
0.432676662505032
0.428932131586066
0.431679316057365
0.432634286540898
0.43212020423332
0.434760006351987
0.430673782035671
0.429197256450026
0.424208767315113
0.435881830896304
0.434860526247768
0.42765067264825
0.426782651251309
0.425930081937795
0.431947247239272
0.429474736444788
0.426133381891026
0.431310885665787
0.428195712913654
0.431172082545391
0.43043789982311
0.43392078672504
0.442426976883654
0.437136345622989
0.436741064413748
0.442730109216994
0.443740369879593
0.444709056450282
0.450592271144719
0.453807352227337
0.449180685632248
0.450052747446701
0.454958689821077
0.457272246206053
0.457116306563507
0.463758138226691
0.458003005580043
0.458046990064686
0.455586355904414
0.455190500037398
0.454720175227986
0.458901918128721
0.459201661367806
0.455121150083826
0.45151085956492
0.444338792028535
0.43975354189827
0.439131616772579
0.440524415734744
0.432312622791173
0.426399588941117
0.426987146910674
0.421386228381879
0.418124597217452
0.419433461506631
0.419870273629683
0.415767123481846
0.416339625526724
0.41219856642856
0.412464851707499
0.408198882967564
0.408788829154925
0.401709325865024
0.408222577059291
0.407427593436058
0.405374897207644
0.402598914187353
0.399658491074473
0.400559119998688
0.403345129351902
0.397631467489155
0.400094376443505
0.39808193152299
0.394447607005798
0.3989903435792
0.405849986686569
0.402235496177823
0.399203082380231
0.395893400719652
0.398314307091412
0.396315490459332
0.397556870268451
0.396971053472754
0.399380130930182
0.399896535928644
0.399122819523029
0.396263359612799
0.396625181185471
0.394297011906963
0.393074953183347
0.395248027856688
0.395502395917161
0.390584702145404
0.392211288081698
0.391264084539956
0.391699633515014
0.391025022635687
0.394694277374234
0.394185212346397
0.39393260482146
0.391755507301775
0.393651200890481
0.39299784406173
0.393862673910127
0.390947440817871
0.393573245952719
0.393469164078056
0.390583846696377
0.391632599558795
0.39195862408395
0.388126536683598
0.391084933373339
0.38741938070052
0.379890971285474
0.380290620346161
0.380962147377372
0.373208727073845
0.374307564452078
0.368896095086533
0.364287478318462
0.367323792934862
0.361872095888711
0.359715932122903
0.357207922550044
0.352484299039643
0.35075713117579
0.347738863052177
0.344809859753163
0.344346523192704
0.344607086232776
0.339446589125872
0.340585128576916
0.33614024973935
0.33640276424618
0.33456216637423
0.33557848392653
0.336617852372083
0.332762681897423
0.333634510738726
0.337066997452895
0.337761327868722
0.336750543141717
0.336855001666082
0.340594434098121
0.340889072258394
0.338655257797785
0.339590956150206
0.340872957543196
0.341631579119373
0.345194266311663
0.344985267185775
0.349576294739774
0.350712228726047
0.353030008233423
0.350991164499995
0.353406494495023
0.35224664392647
0.356119358577299
0.356169091206439
0.354039388628095
0.360691820118976
0.35722774914476
0.356227236724843
0.358439118539337
0.358497387719677
0.358000335285212
0.359025169541486
0.355799969386779
0.3584053992156
0.356040507392165
0.35264810479874
0.34780676055231
0.347883406905628
0.349800956037768
0.351893267079351
0.350525717839882
0.349431891859869
0.346632882666401
0.346563602010691
0.3460113796595
0.340663034601332
0.342712919268422
0.341163377150121
0.339893806306263
0.340550864291995
0.337655611605482
0.338136737897502
0.340519140481292
0.33453527022731
0.334005289200522
0.334333794090855
0.332014831420031
0.330761633240212
0.328922856965698
0.328588027267079
0.330623090361992
0.329468397381956
0.328006420042992
0.325466087928988
0.32712155331663
0.324368742140857
0.322934306651553
0.32111156132248
0.319785104318804
0.314420947870756
0.313201165869802
0.316040433278129
0.31381222303339
0.311383368557392
0.309153215394833
0.304988211866229
0.305099427703387
0.30051582266334
0.299821762490045
0.297607834681808
0.296892353774848
0.293835060473085
0.293115002609308
0.29392336128616
0.293428203131129
0.290460531227659
0.288974421402405
0.289490190871383
0.289023977976937
0.289868262976995
0.287107387746082
0.285501625437714
0.28218038380804
0.282317648454629
0.277821742917174
0.27288581700885
0.270039576589327
0.267473710430114
0.263044109560811
0.263614198889669
0.259202278328511
0.255558778459103
0.253879922412452
0.254408565822109
0.253817568155553
0.256205974330844
0.258991501452927
0.263764292508786
0.270149364290197
0.271194479666125
0.28007281922754
0.286070576412816
0.295536729641822
0.307442466992665
0.321268904853748
0.329568298308415
0.343652133198395
0.351474225872911
0.366661049770948
0.38236350495389
0.391964592142149
0.404548228301435
0.417555681820252
0.427782098430253
0.441214904263712
0.452687255010118
0.464225433725091
0.477830266889314
0.489089733654979
0.49866332974373
0.508791454385064
0.518900653934442
0.529863168932292
0.540744934140867
0.543610381577278
0.552138276658083
0.56414007463602
0.57135019442017
0.578634889219191
0.581314672652787
0.58359117689823
0.58793718195138
0.588648440084077
0.593220016504733
0.591059590664648
0.594420428994897
0.590469372481331
0.595428217141923
0.596714366632732
0.596381345987366
0.599182483350309
0.595705367854614
0.600724652170204
0.600781135322742
0.599466340353427
0.607610261652445
0.604076980778674
0.605421006070962
0.609197455494681
0.615119089470602
0.626992684694692
0.626056685505038
0.629721684032622
0.63141419118638
0.639107411854997
0.646228637803279
0.65222320527869
0.664087177708466
0.674618976639313
0.679332440041075
0.691141019140178
0.698902939578589
0.703360649439524
0.713400899694548
0.720657242638685
0.729962123232055
0.743370932384949
0.733026297713513
0.741187109546292
0.750976014242288
0.754923645286968
0.750388362829939
0.745185955796347
0.748391001538875
0.755650598692163
0.738680484938927
0.74326507538338
0.746279226634373
0.734265466997693
0.747015640697981
0.735725699050345
0.74529824753361
0.756747383316478
0.757742571093267
0.768256749660082
0.773572173704737
0.784383532242382
0.798970458529647
0.81629802109118
0.829468999119989
0.829522686653822
0.848308288155524
0.843799729276179
0.866990733652321
0.883991092393275
0.88908121189912
0.891950568948645
0.920617015569904
0.923842233557772
0.937775377171944
0.948562638491009
0.967990723453946
0.990728748133021
1.00638597262028
1.01864696768533
1.05419364800011
1.04989652321751
1.07879780789509
1.07539157085815
1.11849680730679
1.11869190521662
1.14049145996947
1.15126346702507
1.18232763253885
1.17657388160328
1.19005885438436
1.22775289772269
1.21201104438083
1.2061639090352
1.24534713409633
1.25573883438074
1.22308380517716
1.21801503694946
1.27112480268075
1.25356740792636
1.27426725375851
1.27368153038541
1.23021503604256
1.23038921332205
1.22918585649655
1.21862311881572
1.26879296843255
1.25870199500475
1.25188754902552
1.24347656588389
1.29418336133502
1.254721878292
1.28155330776123
1.28204072019244
1.34530350974511
1.32733735045095
1.34821440927501
1.31771991260531
1.33389775442424
1.33738233919263
1.35733067370766
1.37766373524881
1.38864145497996
1.38251954245644
1.4135633333852
1.48008605707559
1.46407383150578
1.42017377651013
1.46819337765668
1.44978526832901
1.48453804849686
1.504413808806
1.50031220789955
1.47903537507917
1.56277123979608
1.49498273584816
1.54943578918456
1.44718508358442
1.58228139294549
1.59120601461067
1.54023737451345
1.60637371235831
1.54754109938954
1.5513861938957
1.56630242555711
1.58715747117082
1.62263286834642
1.5714041758753
1.62064932066704
1.56455328670296
1.58244248029052
1.56828846766447
1.56029829462556
1.47985248973613
1.58756960966797
1.48186212984534
1.45781237134705
1.41916217495597
1.40885946293165
1.33093935636764
1.36222963933911
1.25855668141582
1.27205564717842
1.23176516949652
1.22247178128067
1.15101567244124
1.15216821704002
1.10989566111082
1.11536963076124
1.10231901406617
1.11156819877186
1.07585204924726
1.07500762544797
1.05942699454464
1.07252958609051
1.02296133873338
1.03391361250928
1.02080762228677
1.01104697636662
0.996845794050751
0.98691898381037
0.956406465629093
0.946382245924773
0.914223370787537
0.907524258495999
0.884637329335762
0.859332962064049
0.818605962045332
0.803072168190246
0.770007053662513
0.76062205201019
0.715401123684803
0.692705436712886
0.652342247103491
0.615886086880297
0.590041620300164
0.575527952568252
0.534751755450385
0.514695200007947
0.492309017942772
0.472435128479251
0.45930174535676
0.434038687774969
0.418810710358145
0.401343177859661
0.386296113068898
0.37375212537856
0.370348816100681
0.356236849041228
0.354654356360959
0.344441083283463
0.339274614662843
0.33655087229979
0.331506746146249
0.329719189210834
0.322543072814321
0.327520251448887
0.324891673569474
0.318833160257674
0.326817786843105
0.328424952325615
0.331070684169067
0.328215596170842
0.332043278613539
0.327318887856054
0.330693011305661
0.333478529797427
0.333628081938749
0.332270093753178
0.329924379376525
0.32713085031535
0.320156410966745
0.32102604899515
0.321234841112939
0.317262263827614
0.309945248819394
0.317072886733743
0.305152149678105
0.30841366387772
0.310543877292382
0.305723277857844
0.30498687103225
0.308470956514863
0.308754554961974
0.311822775029418
0.318845606631786
0.31691897029091
0.318071233266733
0.315386453892287
0.321369902805194
0.320794170063258
0.32571946674997
0.332683078470653
0.327992838220484
0.329243173175487
0.335036384527933
0.339144013030885
0.336355167453509
0.336376393208853
0.336508614111058
0.339709525529958
0.337107760953164
0.336328993777202
0.341819653608161
0.340617164098773
0.343445950981754
0.342249614850818
0.343699786086474
0.347354227054664
0.354197763625389
0.351058032292693
0.358945012925745
0.366974678625142
0.375657234505205
0.385145814523996
0.389009895095298
0.411770739441816
0.414295320921708
0.432627197513591
0.443035000713175
0.448178432918079
0.443650555382696
0.450136780982924
0.456802369711227
0.457689121307473
0.450872965059026
0.446814848953616
0.43985255673196
0.428370118719046
0.416801648197883
0.417998365227431
0.42122329134292
0.395726469360106
0.406283361213984
0.397438743244572
0.400408248969578
0.398784587055616
0.39595735274957
0.401428512646271
0.392326245342106
0.400056289370153
0.394860142408926
0.3976400545091
0.394066267879305
0.39400129415713
0.388707866022611
0.386735068681005
0.387818450021834
0.375301422583638
0.377146617840343
0.376077924234062
0.374824809051781
0.372325241075834
0.361497561141621
0.352735567811555
0.35494415766856
0.349813336986455
0.342626992620946
0.348308018902615
0.352707017585308
0.352339904659511
0.347726490874968
0.335663215257914
0.337400617223087
0.350936892451771
0.325750090430516
0.32743625746007
0.332424049254957
0.320258021932322
0.324704661763158
0.32123590729081
0.321423040938185
0.31730710516288
0.308867436968936
0.318346945722178
0.301826149333307
0.313498850957946
0.31497741999017
0.304341014244399
0.303204652808668
0.301128955496031
0.297829379899203
0.294215588891643
0.294356155767353
0.302048670504035
0.29150627633402
0.297542071853528
0.290964912174796
0.287521168532646
0.289423300280134
0.294945290965789
0.288151557918639
0.286415955353729
0.288442852620806
0.300998049055838
0.281607281202535
0.283687880408933
0.278144811676571
0.290911872421271
0.288259342471599
0.299357566193721
0.29650676405009
0.287271781838606
0.29166697178985
0.305518726120025
0.295505901522677
0.300298748116526
0.311824311364183
0.306549520117274
0.303115943324692
0.310439003724361
0.30592738838201
0.312286803717776
0.31452185408076
0.332359616155782
0.328956719060689
0.321605823925184
0.323550114376199
0.325921534204972
0.325918389114212
0.346648810469212
0.339517186068711
0.343245347095092
0.360039724695418
0.363892013657257
0.384199350263624
0.392139104487199
0.405274584820737
0.409199011520063
0.418118136613113
0.446227008627833
0.438785273099848
0.477781151250087
0.48153397402079
0.49151156727829
0.486211863669386
0.514551119073126
0.498847031101941
0.507991842174272
0.523126084632204
0.510187333017095
0.521938632386638
0.526172265831948
0.504133106943637
0.541274088664254
0.521000145994895
0.52290134232008
0.505902696432047
0.523042104506124
0.519366896263157
0.540118401900985
0.518067466576432
0.530062800354943
0.525862972796066
0.527844972572109
0.508858204677347
0.521891732827764
0.511758654684945
0.518565360632861
0.481443610836352
0.494293966989636
0.477301236860722
0.488557840964425
0.489478450255897
0.475812635078069
0.465628006870116
0.475878472289251
0.439496614407887
0.45703886565482
0.441462556226131
0.466957647139022
0.487989914535135
0.48575239496291
0.442608147372142
0.444660878286723
0.424034989335607
0.443806993648595
0.447745016903527
0.451231093062494
0.443560741689418
0.473325810789023
0.448973155993071
0.440096309064484
0.471562041164958
0.475276664119567
0.469730294561279
0.458034938727488
0.433276898964866
0.44851262329623
0.464114421228508
0.484106113790675
0.449645038301145
0.487975428863922
0.466136388303068
0.483318375879631
0.489490003546333
0.464296715685416
0.483717160430418
0.495308000207674
0.495602253713765
0.493732961761992
0.470964670478533
0.517474082923315
0.497918799681773
0.490692370897443
0.480724136352158
0.464287064175676
0.464845321413421
0.548645882076815
0.512177252485635
0.549237673900615
0.518601795800611
0.557511241004302
0.575519976958029
0.570816851375105
0.571722417345034
0.586546574763167
0.613301405118643
0.654365041577637
0.609835750140649
0.644528838563958
0.575558052793147
0.55146217009728
0.62643274022797
0.657231551091235
0.73185080630488
0.714163949493002
0.583570373485655
0.644626138156125
0.676785255366118
0.688572611057152
0.590821967573507
0.630064984846043
0.686107372576578
0.612241042540998
0.546188397759536
0.609377911246947
0.561697670897432
0.46503072875481
0.52867647932955
0.642510347436375
0.599659905966537
0.55015538532003
0.633963767669322
0.57152615548022
0.55547958903665
0.597616411577034
0.588421485620024
0.617359983748373
0.584877957546907
0.560271311927564
0.604107979767837
0.696583649987148
0.581479496829751
0.699247615083334
0.639516443307111
0.604836508693458
0.619142384989504
0.600653932705308
0.550815999406832
0.739963063398771
0.743683119907631
0.748310861342502
0.617210732029878
0.674978584895683
0.566545241671137
0.712295464307811
0.480829920883311
0.632555455027259
0.638501873770638
1.09118028236554
0.59329169901555
0.650175176406688
0.585001198866317
0.697084787502954
0.557813389691873
1.7489299781769
0.790018921970733
0.520285756909306
0.814917734043442
0.724538128432339
0.675299985543288
0.674718429570556
0.836030231718781
