3596
4000.36533379555
650.420452594757
1
2
2
0.0106445068334249
0.0177771373442081
0.00656562532928118
0.00182045707088156
0.0134266629011347
0.0163106364224934
0.013845246288744
0.0144720058232135
0.0085730939869931
0.00654548313279662
0.0026542615339304
0.0146402333499699
0.0103236445918
0.0106438054701658
0.00896469142864989
0.00600240430350283
0.0128022354194975
0.00400300743351768
-0.000373143302390582
0.00806680506897187
0.00490618985301162
0.00932807514749931
0.00985483846011308
0.0214342545850099
0.0138145606988649
0.0158129893840946
0.00287031092552429
0.0100683268760997
0.00723223582115475
0.0207481906995185
0.00298781934584357
0.00859243552603778
0.00611809249977101
0.0103480505344799
0.00710184836201362
0.0121091977813863
0.00465221609578295
0.0142080650124961
0.0117590321545281
0.00840076388854349
0.0126739951454553
0.00417948323069394
0.00571153539004983
0.0067246731247
0.00590638605398487
0.0118118022417767
0.00908391509883829
0.0111321746706671
0.0133937849487318
0.0113820984294078
0.00790122983314184
0.00548014267608173
0.00985593425551063
0.00597923548064684
0.00592540104548935
0.0122154616018385
0.00602485198227016
0.00380379416703292
0.00757862593147019
0.0115188732211281
0.0143033602715722
0.00973711719894744
0.0165868993387774
0.0148412178452713
0.00914739337836429
0.00495162271965085
0.00310090765125358
0.00285770544396845
0.00468712553508018
0.0115794217901556
0.0188866909337414
0.00254303487401302
0.00985534248849479
0.0102005169293961
0.00829134631036558
0.00965948671624868
0.00462308553666896
0.0172792425690486
0.00974216997332758
0.00365226869321194
0.00983571832131186
0.0155886191312924
0.00862967681871275
0.0208288364100072
0.00898003391164968
0.0107632483553868
0.0104588327207472
0.00736583496825744
0.00233809006061923
0.0133240637755193
0.00134939031025539
0.00388537280794959
0.00739135568729935
0.00876780958161821
0.0118907179633702
0.00730143251297133
0.00279553616949993
0.00758970646726485
0.0170086324876658
0.00645828819820838
0.00227067366494554
0.0112388665153975
0.0063990432322723
0.0080244726826608
0.000589904547107589
0.0125405875096506
0.00794685637139562
0.0229863146361182
0.000505624254324371
0.00481400260602902
0.00352471332939716
0.0122021233384591
0.00726072012827257
0.00373430086354602
0.00834549402256218
0.00550562334647946
-0.00483310135320922
0.0135204287817627
0.00405267205537702
0.00812479109141774
0.0145554396915629
0.0180677245417372
0.0186264804886665
0.00435585780142594
0.000521772303939219
0.00720063290768192
-0.00104870570596619
-0.00132409117740269
0.00482055861063026
0.00404916928037442
0.00547456285240394
0.0104475256874025
0.0109948565684631
0.0168369342617901
-0.00111234136522099
-0.00123036329339183
0.00891767209218102
0.00319818549372893
0.0086423895829316
-0.013390780483905
0.00564012788662524
0.0106380283306236
0.00607660804793963
0.00441668179519375
0.0123851704900765
0.00364647292542132
0.0168051739732887
-0.000574397542815101
0.0139423858872201
0.00799264747076291
0.0100498551864264
0.0098751760625692
0.00300235271575723
0.00958198082342639
0.00776022717835158
0.00956901820765026
-0.0131433962190849
0.00931492143045909
0.0126617800833438
0.00221329050455251
0.000602585343451944
0.0106552007682695
0.00408162522929695
0.0121079489950271
0.00971886103164351
0.00881197623283554
0.0102612983761442
0.00230256422752446
0.00133480226465408
0.0079015559309588
0.00294566023066743
0.0136307961260556
0.00811989159287775
0.000373835547932149
0.00628886081386335
0.0140946603272385
0.00564397135488539
0.00906546182329692
0.00654852339281654
0.00183867748377106
0.00223806231195161
0.0177675628867708
0.0107911421221537
0.000306040802685261
0.00412661628585438
0.00221983470418196
0.00447150877851644
0.00375460068457052
0.00518691088430962
0.00971755553814638
0.00847713141299107
-0.00397881438670723
-0.0067818361166339
0.0127849166654044
0.00240372376087836
0.00154904255399323
0.0159947578677923
-0.00224818760607844
0.0074167318008989
0.012066009737011
-0.000816253760192217
0.00741592038035665
0.0115502619776425
0.00962649017696825
0.0125575221684064
0.00228499186053108
0.00884999498347052
0.00238349102889613
-0.000181434217071434
0.0128661985058674
0.0101681161342556
0.00544259504897864
0.0185858108731471
0.0002042020727887
-0.00123409408910753
0.00346110297281251
0.00865613839861322
0.00945318275462887
-0.00177053487041379
0.00663188738623465
0.000597939040051677
0.0140341365085044
0.0116207255325537
0.0106905539105387
0.0122520701104029
0.00839550204266943
0.0108822343442355
0.00836675985470671
0.00214728328425982
0.0147267110229122
0.00650729656729522
0.0165309443704726
0.0135899192232247
0.00426419954574212
0.0088253251056863
0.000316862177681449
0.00262336793026888
0.00686756868373107
0.0117277623618279
0.01047861404078
0.00843290304287361
0.00023922717968538
0.0104657359573622
0.0120800513589203
0.0138337573229698
0.0146261359817007
0.00367650341731132
0.00906737130722233
0.00626303457596934
0.0140220668829134
0.0113061074645363
0.00469474961264508
0.0108058380016089
0.017141571225012
0.000538721648881535
0.0122753295773554
0.00766065073691863
0.00421484767604709
0.0126741265822579
0.0102200262017195
0.0133465693717149
0.0164266865565325
0.0146446936814884
0.0149596591963442
0.014766531713336
-0.00654792795389619
0.00291996217165796
0.00976144701921639
0.0112551499380275
-5.13967284993629E-05
0.00686447877522215
0.017202806334043
0.0117930134993254
-0.00655607179166813
0.00446754458882515
0.00441581393333104
0.0140560127192297
0.0088407570936617
0.00460177934817734
0.0103644763277957
4.04296436377108E-05
-0.00329404139481264
0.024277850276711
0.0113253851808498
0.0113011381568118
0.00972698641224894
-0.00506152927809278
0.0105703562261057
0.0156769935035359
0.0148105624178167
0.00656555307218216
0.012330520570723
0.0112556783789086
0.00501554371844461
0.00543871829246447
0.0120142542534956
0.0153846258114314
0.00816189363747214
0.0151818626718259
0.0153737361223281
0.00741093021449938
0.0139055565759885
0.00919450032328864
0.0126714968339069
0.0182424719611813
0.0133475091584737
0.0144128296541103
0.0137887152669566
0.0114757192692281
0.0145162544975483
0.00323952897642521
0.00772061246424613
0.0134253848312317
0.0159045198995769
0.0154530688026706
0.0104355114218877
0.0134268227995926
0.0142475030299465
0.0130187228637522
0.00843206841338895
0.00829410881978731
0.0136045635110224
0.0095735532455819
0.0109899837778302
0.0131105796530178
0.0155476419690865
0.0158600209329516
0.0145657496840713
0.0159753818738476
0.0161556053834615
0.00391180086487963
0.0139769759502842
0.0211645386829317
0.0208191664951259
0.0127287985534712
0.0152835294072931
0.0159788724690393
0.0200541958689292
0.0186736375913411
0.022754649438756
0.0145840869687429
0.0220322896201681
0.0227345013446841
0.0175246412908496
0.0166832198320692
0.0205819102577194
0.0196555170313764
0.022691565563912
0.0148784008673339
0.0203217907845236
0.0225469193631038
0.0253457532904116
0.0260945782650165
0.0178642363266056
0.0203922233950232
0.0175208401268655
0.0270439288490177
0.0304779594101803
0.0252571938572961
0.02718515279197
0.0356022263931311
0.0316247751139961
0.0335672022853403
0.0375523973403753
0.0359418667315809
0.0387305526315877
0.0390020772241587
0.0457389580230339
0.0377158862990119
0.0371353197326805
0.0362114464076255
0.0402923579210449
0.0429026745696805
0.0369275632000703
0.0353658875526948
0.0491762079872243
0.0436989464835951
0.0405561597151915
0.0398657845089252
0.0426568842031893
0.0421304164516768
0.0480396448414479
0.0504963987006572
0.051608525958128
0.0594447772270586
0.0511669975369852
0.0484002696320522
0.0498487696030809
0.0560470862714712
0.0622999694779458
0.0573037002800256
0.0596763709856551
0.0678924949259684
0.0709427108017757
0.0715094725645458
0.0732212776516021
0.0833063794344238
0.0605007095352493
0.0542524691593109
0.0691425508221817
0.0749416679971145
0.0620794496969989
0.0774842834474094
0.0833117199285777
0.082675284860013
0.0823878753712224
0.0864748326104184
0.0800772511057662
0.0837022334682679
0.0882422570915441
0.0831207324144427
0.097929559732688
0.0937004336161553
0.0906969003827997
0.100695214796011
0.0892595272902462
0.0996616364373531
0.113831763732401
0.110967531129186
0.102738819841631
0.110314084779199
0.109348248421256
0.107849427101172
0.102726466652618
0.110238621875349
0.110672885576145
0.120871786348332
0.117905621519913
0.114825759098818
0.11647424404573
0.120768680730492
0.130037195558
0.126307405065248
0.138904493231396
0.139759429310729
0.135363452515812
0.128313950173282
0.130662235552463
0.140443826962402
0.1372770100358
0.153151989634668
0.141164491376642
0.144210016261851
0.131848455874009
0.129382918026659
0.158781136918148
0.167445901631053
0.157041275442106
0.156582347172705
0.162830922565087
0.163528714084857
0.16597650848305
0.17865378779711
0.173874463064764
0.161171406224449
0.173900647726766
0.173103982749703
0.172170960746368
0.179672331292352
0.190717967251974
0.190085033333824
0.189591165943459
0.205136728538612
0.200560207324666
0.195254826081968
0.192884039289624
0.196533738449591
0.20058780575212
0.213943290214829
0.198749429330129
0.214036067943793
0.219633484257697
0.216223836962618
0.219603429391524
0.227878302255037
0.232768446904487
0.229900457537618
0.23333490421168
0.239078091855723
0.245423459151082
0.2461031975325
0.245237497277274
0.255808195697987
0.259156499724213
0.249307554213246
0.236674796900224
0.261403207620482
0.26454978670591
0.275579136858286
0.266139762808062
0.260887852557404
0.272593001381374
0.267911973661872
0.276111506415337
0.289704360081714
0.276260713157786
0.286590965053294
0.285436464086295
0.293071496896045
0.308712924569782
0.299388585840846
0.303334407757434
0.315660151198515
0.300055196518034
0.31836176793614
0.329635352395862
0.324199298317678
0.317351052954981
0.336187720511564
0.338841319365001
0.350976029711623
0.344140861313014
0.321320967348651
0.346404856962734
0.349603995882818
0.346882939847948
0.383594028910128
0.364561793930491
0.357376810245699
0.36377947438531
0.357845808268756
0.369168770348625
0.384440844862842
0.381642468723405
0.39268187171774
0.382992239825036
0.363732994454357
0.381542542264238
0.389615718302765
0.382519775144435
0.393472455900639
0.397599758185415
0.395254300628356
0.400816546113002
0.428091229943915
0.441825938379654
0.430846098733307
0.398502834057361
0.405816869437679
0.435030680914971
0.456384617525551
0.437326797016992
0.446097898764601
0.461319562030645
0.45149402735357
0.461132580244001
0.466990914280253
0.470644576136979
0.469753108548827
0.481312543965461
0.467347863369232
0.471886759737614
0.47936825410331
0.476146799364885
0.485145552171745
0.490739129124863
0.488915582362353
0.480894911241804
0.483996568338749
0.50003679621063
0.510762052719323
0.538796998665484
0.519172967562355
0.528578688810754
0.517381127762084
0.523897679666907
0.525848536442853
0.495529993606377
0.522792789134859
0.546339649773538
0.550440349504819
0.553761102334892
0.557870801562587
0.554812577483661
0.550913677531804
0.584209812985751
0.560046598818751
0.544196771554433
0.58832607620318
0.601564162336897
0.581690931633757
0.579901501948625
0.586139397538744
0.577815163055878
0.586321337688692
0.614511559507867
0.608228410300061
0.622700861579826
0.602900223866242
0.58605137474209
0.60044374287989
0.61529398242692
0.604023571892703
0.61495896428949
0.621339282257562
0.632326617552388
0.643113819609864
0.639950669101338
0.643859468545121
0.668678980899851
0.649733506430929
0.658762312108757
0.669740257562532
0.655663857768493
0.653460157038656
0.664191675357799
0.665151735871822
0.659268476215647
0.654687987611011
0.66653791556141
0.658659936551528
0.704418678444122
0.69471838786519
0.679599024188144
0.70183027565991
0.722180529619975
0.706114765719379
0.704355168760226
0.715898864692453
0.71553989530937
0.657319215057527
0.708687158160574
0.727405899061948
0.702646998045948
0.719740692244585
0.741013269482487
0.725462643083044
0.748717452120684
0.7229800025574
0.745054698984301
0.719872575548602
0.726417936981185
0.741908062179574
0.705719753010233
0.72257131905281
0.78857595936991
0.747158412453848
0.750702321473115
0.72794057674338
0.748930811804519
0.745235207142318
0.752180954255434
0.759908919783428
0.748730998512518
0.770528765385271
0.784845074801625
0.763968909016177
0.800702104453451
0.74913790702526
0.763569451311844
0.762778809014297
0.784235199995375
0.761266450253513
0.796915877755723
0.821770033129951
0.80028533314851
0.775835755480612
0.802827645517496
0.75946396767159
0.793436013060017
0.858413886050066
0.845344091088098
0.80718541158344
0.851287878684733
0.79719408375544
0.853845868473236
0.821451643888287
0.829879092025146
0.809767886172891
0.800479151222776
0.818816825552194
0.813222180222356
0.823860395380358
0.882279115861339
0.822748469305729
0.837561647685058
0.827502935913098
0.863123535651312
0.857402723054804
0.839301028523952
0.84028449308751
0.893467562702694
0.872077479888885
0.852340303698173
0.814735571788106
0.872798814434829
0.877532450449581
0.912559556167565
0.868788608553503
0.847938052226712
0.859435486677872
0.909088455475318
0.853271221229578
0.866039814800447
0.851673843412941
0.864825254051577
0.857039382051914
0.872937300768911
0.869327877526922
0.8832974760607
0.87984554573683
0.897530660351205
0.845399440114978
0.854063476215138
0.879137775150606
0.89221884754119
0.886261362598619
0.887785693968809
0.88458870800151
0.899116639763204
0.826794187085212
0.879998392078525
0.88746880836776
0.927094398112775
0.872165319798279
0.887848967655289
0.889418296314046
0.911702464696746
0.844470171803399
0.883157638099281
0.839936353939589
0.892592750960309
0.89668043852377
0.896136695300182
0.888080651124524
0.923003636307092
0.881330264183161
0.871733894126875
0.856371541434175
0.902843205736697
0.876764601048997
0.918733366678558
0.88575182446559
0.909723458007026
0.878950896478516
0.883546111835604
0.87185375306395
0.902978874874293
0.874801476949212
0.896770028456392
0.836380738075234
0.877249324234933
0.866622912586856
0.887683135556268
0.888161541001978
0.887666348354759
0.867580579973958
0.924792091488049
0.910662266559135
0.911236606747562
0.884261803197672
0.941027099611728
0.886626593798475
0.910297506471349
0.855195963814682
0.891840583842276
0.895794190900338
0.889592122390093
0.857040670012395
0.887037842130444
0.865662701142457
0.871028097719143
0.831944860266534
0.883720525909227
0.859324446751838
0.918572792837783
0.858367260989749
0.874667208462649
0.87877785175353
0.912143564227896
0.854963323183575
0.870736650730729
0.878123904138144
0.887347986399213
0.869006824511528
0.860003001696871
0.825285930044505
0.875505625111962
0.885093393484502
0.868928365905964
0.874209700711273
0.90334062542801
0.878376011760188
0.8832791061853
0.838928049009508
0.883690435134343
0.885069922754132
0.907725630363078
0.835049639777287
0.903424160122005
0.857726798579642
0.869578365032774
0.857799453502714
0.841599079616373
0.823907809559569
0.849148053850084
0.819722693595649
0.840384267436593
0.877137749802297
0.848197238950554
0.84978508001436
0.859318160165453
0.832199212377685
0.847050927012354
0.821171037075445
0.837915735243082
0.835729460418027
0.878387912579785
0.844264134948297
0.839561761498642
0.804313069704461
0.841388072420736
0.831137643209035
0.842826799989244
0.799461821581369
0.846639085954101
0.823738415779185
0.804537048269436
0.78755886723442
0.80373012914063
0.803638996324685
0.825148952840626
0.800854813937642
0.799228052059865
0.794265761601741
0.824315196636651
0.78423389691624
0.829326841622745
0.80198256043366
0.813038854666312
0.782456204796062
0.778349467793725
0.785014986830143
0.81992118358421
0.77439640860664
0.830410484938447
0.779602089121099
0.791240910149054
0.774140077497389
0.783299400598796
0.746842272932904
0.774036327567726
0.778172556835123
0.761943881896324
0.746874199684003
0.765875808975102
0.719482282456505
0.763672840249612
0.747372067064285
0.782663496716618
0.737709291117382
0.747072903940276
0.738626936927163
0.75633832717593
0.739747890531979
0.762108575731257
0.729194186203361
0.74506496307412
0.722043324822337
0.735528730970171
0.708923162743661
0.713587804044127
0.707234925931198
0.715840162831033
0.71354908096384
0.717675905698987
0.713096804125512
0.713692723682636
0.707693702655548
0.685574337337378
0.69511143071107
0.6828018831813
0.6780741495099
0.70579466958734
0.696116104677923
0.698099297946063
0.663656958236435
0.688598808484882
0.660662782002628
0.685661120866583
0.665978516103441
0.678022374383237
0.644259710902241
0.663503851802059
0.650795376302575
0.659225437522779
0.641941807030703
0.641679368130925
0.623565677287727
0.647123858122551
0.629646203863799
0.626862698179501
0.625277451304201
0.634660600433988
0.615585408149685
0.638036995691991
0.603939925885165
0.630701362972601
0.588883525539678
0.615516659625805
0.596188642373199
0.619089064109528
0.584076970404005
0.596140603253547
0.594871256063532
0.604391945007625
0.591803525597272
0.591129751195834
0.577435633590692
0.581493433679152
0.572562805179596
0.577712469923736
0.570381642788281
0.567260922496171
0.561007446704374
0.564483613794921
0.55273413595156
0.565750802375763
0.535203210306427
0.563531436411875
0.547735460193104
0.548340195679162
0.530485945271176
0.539719101230619
0.521452534167332
0.532978779622473
0.522346505432498
0.533783958540291
0.518900802302341
0.522933976914252
0.525388047008509
0.530359902019427
0.505632867972983
0.514106073481745
0.513392223702253
0.507729178594388
0.497695044035182
0.511373975134539
0.490893129413139
0.496270147624923
0.484189338720962
0.496044048011712
0.479174470275957
0.491378206999014
0.476003659857092
0.487515011017829
0.464655022868941
0.476721300415233
0.468356724671307
0.470342438055972
0.455784352650977
0.483120103685388
0.458306901401452
0.459015194505237
0.452258546418293
0.455271601985922
0.446107753806008
0.45245307897353
0.440810007380425
0.445694523272717
0.450288788919359
0.441130387349461
0.425467732672285
0.433099391479541
0.444806590607501
0.429451602335565
0.431461891131302
0.417204214067142
0.410925488828326
0.417400404108186
0.411376918595834
0.420413136701581
0.411792467745317
0.413718853708431
0.39240240893033
0.400584968846845
0.399150241960364
0.406643357192832
0.391752406030339
0.398399471111679
0.391554849986414
0.399746002885631
0.38720682551958
0.393177114283969
0.387367457956977
0.378824150122991
0.376473593254263
0.384450676723709
0.375794644663619
0.384705098267709
0.366084789247282
0.379287207535402
0.358937973789395
0.376316880100027
0.360379360760721
0.36553300228981
0.350408230477863
0.362529100161408
0.349090173423942
0.357722010957847
0.350269725930125
0.355660204440485
0.336753046690628
0.352925694084933
0.339063373594041
0.351056113643323
0.339096288976454
0.340555669606888
0.330981239218308
0.337984484706578
0.320498681004844
0.330527361188095
0.324486078287143
0.326016965860162
0.319962633447212
0.330304701977562
0.309820943381551
0.317589463416607
0.311200877890146
0.30949146463324
0.307090599424996
0.319698456840728
0.303263110091721
0.303910488844434
0.298880954368883
0.305776714573061
0.295177367824505
0.302990594297542
0.2972855080458
0.296025170290219
0.291324456535033
0.295750145904272
0.283812339034978
0.291694355452163
0.284461620066814
0.28785149771749
0.272734247206549
0.279758246878657
0.277790099624394
0.277302798417296
0.276295367069879
0.273270676822704
0.274955870455384
0.273774781178915
0.26242789585961
0.26799672012489
0.266051552423462
0.258724869960526
0.263819696445173
0.270923738298998
0.258188532516314
0.254154393401741
0.258635002151928
0.256117117122039
0.254311847291358
0.25013663249705
0.255334237275981
0.252541381759915
0.24772890265448
0.250725855267891
0.240646686905903
0.2508944631167
0.249849728250881
0.258305576937304
0.238189280982107
0.236562364216135
0.234462027883451
0.243066419511654
0.23625863097219
0.239960115807731
0.230489276116986
0.236765437364319
0.230752683521167
0.234873062080383
0.233091426985721
0.234790538020733
0.226535971390355
0.232634804836971
0.232866676873192
0.243596480720015
0.237014797042193
0.231853495683037
0.234482129355513
0.230132317982396
0.233173668263612
0.235118771477334
0.234527887080031
0.234783907910537
0.228622526015178
0.23629896322486
0.239966319600813
0.245010466269056
0.235764693945455
0.240875568439782
0.240944810089335
0.240757310438791
0.235935976696622
0.249268681893238
0.243252166672774
0.247354297026384
0.247676992822366
0.251292000225889
0.248001717530753
0.253296782398336
0.251013247962735
0.254950656845801
0.252912493200597
0.259289751704398
0.258670099661372
0.261561499191026
0.261483115002965
0.279951344725138
0.269824252039113
0.275317687785162
0.267589925051198
0.269825015127562
0.273898708643627
0.277553790789588
0.26782551883833
0.272162253717732
0.281980609909953
0.278179846177695
0.287708018142438
0.289823975492489
0.275379175167064
0.296123598735048
0.298153149391523
0.300297421383352
0.296116123996425
0.301988403426563
0.306177214133746
0.308145502586075
0.308166744440579
0.314005879077825
0.312976671205701
0.327961320414358
0.318624375581514
0.331469856373832
0.317368719615055
0.334499536730647
0.333368789715514
0.340553508901795
0.332165786135186
0.339816767938322
0.342319475755026
0.342227708367383
0.332520867175148
0.355750996279943
0.344436073005609
0.348025165988291
0.349725357916395
0.350958549876683
0.345657868629981
0.347082969066548
0.351105605344708
0.348580552332241
0.344649252210325
0.351342885194755
0.34239363689075
0.350859833372663
0.344069049114719
0.351605104555178
0.347759491465038
0.357653776254383
0.343015803449757
0.351945395465153
0.349328294769989
0.356682329739502
0.346835391455501
0.352970874155286
0.348503818649177
0.356955043108608
0.344198216464617
0.343633374055862
0.341155954033554
0.35288951656208
0.348134402415122
0.362485359028734
0.343350240573611
0.355296292939037
0.344506794416558
0.348778450038144
0.358253848749587
0.359045494746905
0.349630253566503
0.357042537273283
0.352063817739298
0.356193480485445
0.352410729022942
0.351761590242449
0.357020008575595
0.354930416113117
0.357591844999803
0.352022727548339
0.338795760548839
0.356174107975666
0.3504827098138
0.354355211564174
0.345625616258099
0.353328993524961
0.347840493016022
0.353062227323613
0.34262314251034
0.345020376177642
0.336863812820806
0.348010127511776
0.336881340087909
0.346270562103578
0.337739804435879
0.345525544513996
0.338400665901373
0.339024267719141
0.332400296951313
0.337893097693876
0.328294809854379
0.327604625608707
0.325068516287341
0.326091555452226
0.313530611423413
0.321736075969082
0.302433399144002
0.304348426369889
0.303154195609643
0.311976978418474
0.30618741839633
0.307287155623112
0.298905121059068
0.299055444809045
0.296159863640573
0.294065316564317
0.282616771418352
0.283971487069875
0.284444507882511
0.284066806329766
0.277348796068325
0.275488140976535
0.269376100073721
0.273797739648915
0.262442535912887
0.270788809685096
0.258686703469175
0.261490868096137
0.257552099841492
0.255514905698841
0.259352755253005
0.254997039528236
0.252482151339741
0.254843786790304
0.240666879958771
0.248119644614073
0.239224092577763
0.246257724600283
0.23878928553737
0.240828710649002
0.235813366062747
0.235030825850255
0.231458474270987
0.228033338723559
0.225971498080248
0.228431790557489
0.226441285795756
0.228272725308419
0.22338126532453
0.228340274821523
0.221514978002844
0.221950051225205
0.216111832899534
0.21620946371918
0.216387075739635
0.216353173988493
0.214664375792017
0.214971733794803
0.212703538837447
0.212861110511276
0.208159811437576
0.211510113656163
0.206067562610267
0.203963665648868
0.205304139921333
0.209150862923903
0.205227317621741
0.198623740626944
0.20075549196475
0.201218816115396
0.203612816770586
0.196888925781365
0.198419667365366
0.19991169025959
0.196344879828061
0.193183466044029
0.185979801703452
0.194817881780248
0.18857323788984
0.189690099105124
0.189599119580931
0.186567645190066
0.189673478394785
0.187890695688342
0.187601160979222
0.182641823798113
0.186489512055248
0.182419634482322
0.183990243964815
0.181755425711793
0.182953862222576
0.184398404025939
0.179180231097917
0.176092900583725
0.179208486506782
0.180276442238694
0.177191281853709
0.176399908242508
0.175855500432383
0.176936664697308
0.17177127777665
0.178702028867135
0.176382055913216
0.171861501814878
0.172748028099465
0.173274293635765
0.168284581836667
0.172642702366354
0.171509331517091
0.174326756541701
0.171347954005985
0.171694933102431
0.169058145966291
0.168658009504003
0.166760279018253
0.167237752159459
0.16598156237218
0.165552650049496
0.165550171804752
0.165441053729207
0.161722043737166
0.164837316432515
0.166003626942203
0.164581860673422
0.157972626734882
0.168562018335756
0.159496178034322
0.159270814223866
0.157922674512945
0.162701611771812
0.161248860464246
0.156864105051471
0.15785519712371
0.160775626613767
0.160092117007879
0.158400864558669
0.156209724529822
0.156766003552565
0.157337606830891
0.160619460211195
0.155080669310269
0.161035165186087
0.157856035178833
0.15863378586338
0.155432721114903
0.158908120420467
0.157823818658789
0.158862815478006
0.152926262354128
0.152830794974558
0.15625632742691
0.159009543016244
0.157432791905007
0.155892397454224
0.155405756396123
0.156179551119189
0.150980230027049
0.153081265564398
0.14931882835185
0.150788510989406
0.151296072862591
0.14826585593888
0.147995941494912
0.152342843935289
0.15071804510139
0.150779126189576
0.146347809688417
0.147509687939963
0.146863372005576
0.150558425594779
0.146101139736156
0.144951488545968
0.14442854824266
0.144978619665262
0.143252970343282
0.147375504343447
0.144678326395613
0.144533409298308
0.144125477342261
0.145682560133463
0.144361111468745
0.144791780750634
0.14272348168578
0.142170702326828
0.141353102234813
0.14124710250164
0.142806992879418
0.139658915795844
0.138159546290548
0.139081552209677
0.138891119852592
0.141260666879208
0.136917083402829
0.137474828675402
0.139198118528363
0.139537177539925
0.137033776203707
0.136608097383468
0.134017231019399
0.135503834768494
0.136333580789406
0.131728986780654
0.131021493273375
0.13488412754571
0.131958786323466
0.130371933573551
0.130229567390535
0.132458788944045
0.134828263091261
0.130410465741845
0.127632462797617
0.130490080136936
0.128486357794434
0.127601215502593
0.123984598946067
0.126831508331387
0.127342116862328
0.125606822496777
0.125232773705244
0.12332474242349
0.122703501587968
0.123677454186138
0.122695271803141
0.121205803497722
0.121486808190444
0.121762221360671
0.122045415487281
0.121040150347259
0.121491276081525
0.119791622891755
0.118086951245587
0.118594939333655
0.120690057333998
0.117544208219827
0.11132142006152
0.112726191917472
0.113966825677968
0.112640891258272
0.111495892585065
0.116697161420603
0.111442165524258
0.112003393528755
0.110264365071503
0.111983720212638
0.109851396665304
0.109998755862316
0.107468503277408
0.107175222223187
0.107653507286913
0.108812569370139
0.104762179126318
0.104191522912892
0.104787417403999
0.106082256854921
0.105987225092255
0.106877953046775
0.1049163510922
0.102479047145026
0.103304096935169
0.100263135212033
0.102163651827314
0.100401633252726
0.100317803085548
0.103025305219339
0.100397977018554
0.0994447389792371
0.100102415308737
0.0988688492966011
0.0993805100536214
0.0999430029879858
0.0978365040749607
0.0969411080369372
0.0962125192570683
0.098142446895879
0.0972172573768831
0.0941753750587516
0.0961231049628516
0.0947204489117366
0.0936610352513945
0.0945644137746616
0.0964357762533622
0.0954370637227081
0.0921716366000695
0.0940433355704123
0.0902786244488996
0.0880256642973884
0.0918189409335293
0.088174625850625
0.0851797960268366
0.0896090283726594
0.090956173707569
0.0895760472900065
0.0901136875688763
0.0917212805053484
0.0865298512023617
0.0875467009787625
0.0876770253389718
0.0892500931996559
0.0845640802430149
0.0880737410661918
0.0882015174714263
0.0844224025603852
0.0889938095592438
0.0853374309274238
0.083743966986704
0.0858740811605831
0.0841046647363277
0.0856609099412105
0.088757364933855
0.0849264906009612
0.0828696481327214
0.084514299116512
0.0818694892973176
0.082208545991591
0.0819703255573249
0.0786876828310298
0.081164584155704
0.0814914141673037
0.0808020454412857
0.0834766145813183
0.0813950023129247
0.0785314315497275
0.079853899250969
0.0773411197404428
0.0771920458238723
0.0822123361785211
0.0815142756478657
0.0790791671291736
0.0801728904699329
0.078555310935419
0.0777098012291159
0.0773438858484593
0.079854821383309
0.0798831716619719
0.0793323127891835
0.077908614337077
0.0769358186729292
0.0779780569017084
0.077110015984409
0.0786250547838658
0.0765632466093175
0.0749924769934396
0.0762640595828971
0.0775367814150292
0.0761733108918585
0.0772462955528118
0.0775540388099477
0.0765967893374053
0.078043797200704
0.077575167371927
0.0757840385106485
0.0749075009035651
0.0717728077627444
0.0745289775734977
0.0769811430479269
0.0738801740967675
0.0755439297526834
0.0730635478142555
0.0703491953728588
0.0737779122205342
0.0737028650421665
0.0766688581505412
0.0761598450786038
0.0714573410489695
0.0699324751241889
0.0725078066475503
0.0738192655630928
0.0707710036186463
0.071711711425145
0.0702108939276622
0.0727452545475385
0.0730712317059275
0.0693465808648035
0.0707324391113205
0.0682137403617188
0.0679026782849829
0.0701939823133087
0.0718868633642671
0.0722069551716245
0.0697618652943039
0.0690707034275405
0.0707444857358946
0.0687572996234338
0.0703538193884876
0.0719245636479468
0.0685137524358282
0.0671237187439142
0.0680261957829296
0.0672315956810729
0.0676996423701842
0.0658955995037596
0.0663164234883482
0.0696914770732647
0.0682574213034676
0.0674669528285671
0.0663441433065057
0.0663371510943787
0.0670978754667227
0.0642673465385643
0.0659516165380668
0.0662707706817129
0.0668466401116564
0.0662931326588749
0.0640480226356629
0.0668513925691414
0.0633845356460032
0.0628265411773979
0.0646160888416584
0.066569105670582
0.0644141734898645
0.0626540587151789
0.0655352755645125
0.0625671594892834
0.0639568892769851
0.0636456067366143
0.0614993325435953
0.0625778029567678
0.0620538732774974
0.0600101049155618
0.0619938133321551
0.0622962816095149
0.0587033366405797
0.0578741489118965
0.0605453941728806
0.0608670877148525
0.0587060198026538
0.0580714541894267
0.0571109622302548
0.0585710203404954
0.0600240877188167
0.0612009922765738
0.0573852560023318
0.0547892411578533
0.057638560265763
0.0583501509411521
0.0590072329575511
0.0576526760283097
0.0567635592501419
0.0579288777825787
0.0539272148476553
0.0536765419814157
0.0550967556900647
0.0569900772859382
0.0557328696847733
0.053387842006081
0.0535516590980581
0.0540525075404104
0.0552256357904308
0.0524955311070669
0.0534307933457057
0.0530874341254438
0.0524071324791887
0.0516209840549102
0.0538193541249521
0.0522147216255963
0.0514472668831194
0.0523947473361552
0.0521105716820457
0.0503270117149305
0.0501233122390649
0.0513121021585799
0.0525750069521703
0.0532966153151499
0.0480177776463912
0.0468539869462753
0.0489025804974037
0.0473637171629057
0.048229541474488
0.049828333364953
0.0481016066977314
0.0454162638847305
0.0460672356400663
0.0473301350183312
0.0482314833193564
0.0498906573852844
0.0461433400871022
0.0492164708152088
0.0504179528513119
0.0462868856038884
0.0462445483617635
0.0484361144490444
0.0433930209353707
0.0430257620322033
0.0461307215805085
0.045655295981599
0.0456532256249173
0.0452623402858318
0.0440842476379005
0.0423378376475371
0.0460934309231985
0.0452668382701716
0.0443929203374852
0.048229104524993
0.0443370646125176
0.0420496540281451
0.0447211298702004
0.0438099671466143
0.0436541466198625
0.043393342481045
0.0414425022974975
0.0416127912500627
0.0402854961140567
0.0430213217443738
0.0446379080532329
0.0412426355431215
0.0417195896217033
0.0413716196024871
0.0400042118327753
0.0377574419377556
0.0403232539893341
0.0428039337819735
0.0431954901208027
0.0430384713593497
0.0389900810840848
0.0421560281408453
0.0440231467272815
0.039535243750834
0.0398455556129209
0.0426529286836411
0.0418278501540585
0.0412234334491865
0.0405711582030891
0.0395276093399427
0.0403707072753372
0.0386430706703255
0.0390042501911347
0.0414148322519314
0.037022650866606
0.0392839956614744
0.0363880556720658
0.0346208709495098
0.037858210518764
0.0343323055924963
0.0319701883498155
0.0348185469412761
0.0338089245877451
0.0346015376467614
0.0357216600467362
0.0305654807709573
0.034396599309999
0.0284601471864047
0.0322612962898909
0.0338299990115602
0.0331711725216763
0.0344411023937017
0.0300797852575013
0.0363129037106432
0.0365175318902884
0.033067037285178
0.0354711283132507
0.0338322850365083
0.0341027449788417
0.0367942217102282
0.0386156829582675
0.0368286772584719
0.0349262841504443
0.0331121795335029
0.0320640282484422
0.0354247678864764
0.0339827801019383
0.0326408905741824
0.0362185301191525
0.0335850608730917
0.0327230846301817
0.0359131525038379
0.0310405678474913
0.0377249578676445
0.0376397514255637
0.0386991757173222
0.0373518208927867
0.0366886835435181
0.0369028287735094
0.033748121742147
0.0336568638472795
0.0372585707493774
0.0334438978899622
0.0356408485740144
0.0312000829928341
0.032335350641517
0.0326316820177823
0.0346637101128947
0.0319808219648305
0.0345003984210631
0.0291203334102823
0.0320600549026254
0.0314234593894234
0.0350577961943269
0.0301368533982252
0.0334927859936886
0.0307044789136587
0.0303941723131751
0.031900860794469
0.0308529308791844
0.0337389898456169
0.0343494368784382
0.034577923510814
0.0340206642153541
0.0325797737835313
0.0332310328216887
0.0302576252760993
0.030464790760015
0.032754458790703
0.0331729959337678
0.0325164066573745
0.0344652406134609
0.0346770103967151
0.0345478985778773
0.0337196852851649
0.0316334284162678
0.0322553444343637
0.0306496960363774
0.0329108155332492
0.0337771324718238
0.0340942137105218
0.031899605753561
0.0306418428112115
0.0320565108105458
0.032105847414485
0.035139702119564
0.0352372591488781
0.0336480916915185
0.0350846659244889
0.0318712551576257
0.0301634593608033
0.0323376173359512
0.0318089992021505
0.0360843794545066
0.0348860354882521
0.031601307698508
0.0323006390079587
0.0335059505234198
0.0313824928965055
0.0329290924525645
0.0334800304277317
0.0338156577424517
0.0343286315487732
0.0346894768486836
0.0331665644464551
0.0311511816698191
0.0294525427819324
0.0323458707860628
0.0342327865764417
0.0321792281424671
0.0329438079488713
0.0318123428965007
0.0323790084260506
0.0309421918777507
0.0322399585326425
0.0307812415844979
0.0322112372205652
0.0331384511136573
0.0329159297693871
0.0330474207287587
0.0344492127073938
0.0326331957072072
0.0319587751944892
0.031582402524154
0.0330880579494377
0.0318362358899938
0.0326084063719848
0.0314840796128837
0.0325597154585613
0.0335527920771309
0.0322801396946194
0.0324803999408491
0.0354664476098814
0.0338384012940295
0.0336429769658958
0.0334692562280622
0.0308965287244258
0.0302339761880209
0.0335476567843427
0.0330105175813472
0.0320907286293731
0.034589891787988
0.0357345248475294
0.0340103345755559
0.0343805445188635
0.0321935412358171
0.0335957254594694
0.031438247081994
0.0304436318102467
0.0346866910193842
0.0339038585078777
0.0344756493683772
0.0351953371965414
0.0345838832244935
0.0327534703199449
0.0341276295300979
0.0330449695732705
0.0329248344988231
0.0313565202055589
0.0348725846733576
0.0326074795014306
0.0331360075276275
0.0329485465646937
0.0356671239598307
0.0344740643483223
0.0339258511866344
0.0336545915140632
0.031015709563515
0.0327039159198733
0.0355968957855762
0.0340340349242611
0.0330430414814457
0.0325201535479549
0.0347778605516476
0.0352808911024435
0.0359932327810361
0.0337460619903033
0.0340729986331384
0.0337091664029855
0.0329575308613546
0.0351261221018259
0.0356116572613803
0.0360164437626333
0.0354748304942972
0.0331731240616688
0.0344497410629225
0.0358457693071811
0.0345704212343799
0.0344966633098803
0.0354656664622353
0.0327547255540856
0.0367558789572189
0.0329131812488246
0.0334713719976977
0.0359638878145887
0.0377777886853488
0.0340468720054422
0.0341393601628191
0.0360288672186292
0.0363913673330983
0.0333878379434525
0.0333898952043423
0.0361005746673402
0.0354705815870547
0.0371119352116863
0.0357688180634914
0.0355844827214163
0.0351585036211258
0.0372216756695245
0.0365644151446057
0.0358506113963817
0.0376207207040674
0.0358053942316982
0.0370561072255648
0.0348831872722938
0.0382268646495004
0.035645540215345
0.0370524390408574
0.0355668963275266
0.036875528294789
0.0358169462359863
0.0388528651747045
0.0367849781539929
0.0369080607089513
0.0379242096922828
0.0360524551100771
0.0371444547344159
0.0358650367727638
0.0392673822441459
0.036278022376716
0.0352111475215616
0.0391587908906028
0.0359600266421771
0.0405571106901179
0.03552212145197
0.0364844977076009
0.040244365003794
0.0356398022838376
0.0381339781763094
0.0377630866419395
0.0377519211045695
0.0377404780107222
0.0393022183924995
0.0380828274168384
0.0388028274989552
0.0352993764708061
0.0347500758940426
0.0378448982887377
0.0362433018251172
0.036449348745488
0.0373112814667815
0.0354603029404052
0.0379382612001475
0.0358286723326642
0.0382557697582028
0.0369059462407643
0.0375349517647847
0.0351666575809243
0.0358002285148701
0.0365195380093261
0.0371487240080698
0.0360861018038615
0.0362939813962594
0.0363212662143631
0.0352639547774512
0.0355701411077472
0.0367124799866442
0.0363279027671616
0.0338120212715773
0.0369962651561907
0.035791112129846
0.0353048011212259
0.0371891527687351
0.0352755884415307
0.036480132753322
0.037080906197752
0.0348732402652365
0.0352882102836728
0.0355013767176431
0.0349713199596813
0.0378500537760318
0.0324037632580515
0.0354086610282473
0.0358469721805084
0.0345513270886076
0.0346971776415728
0.0358183512348291
0.032584949936976
0.0339745318508586
0.0351834207568765
0.0354847507915596
0.0339787076069302
0.0348642308296177
0.0347102404611011
0.0358232786508545
0.0335217461118948
0.0335564480394365
0.035857401494184
0.0343411928886336
0.0335788394053059
0.0327602070019843
0.0346913081616447
0.0354038100263789
0.0340118079236455
0.0336131781747116
0.0342085873100428
0.0367653971283191
0.0345467543017425
0.0339424589238298
0.0332979577104025
0.0342330902682747
0.0336743919231445
0.03272901772157
0.0329592266737203
0.0342960660128988
0.0343269437691198
0.0336216561051938
0.0326916188966402
0.0362237408561992
0.0348125939787084
0.0328578713419533
0.0336775960666545
0.0341027662120736
0.0358967471688022
0.0344740151116556
0.0354376716236736
0.0363428365787927
0.03378307989675
0.0329272489159502
0.034622871993742
0.030799488127988
0.0330742677321351
0.0326046821463609
0.0356728329008889
0.0342227153700671
0.0354112328946154
0.0335473116877114
0.0345480550082648
0.0327587544641499
0.0323197439237333
0.0340100315063991
0.0336244191229138
0.0330202559531947
0.0332765620796259
0.0321213223396714
0.0356716516785308
0.0343070037297418
0.0293082341011651
0.032134128064094
0.0334375846936546
0.0331211439386164
0.0297464880481489
0.0335467480788591
0.0338828826793416
0.0332078210989809
0.035495958100627
0.0326782962430141
0.0322541213092836
0.0339329087273155
0.0323003205304118
0.0326032612127491
0.0355909390467966
0.0325986580309853
0.0324820106264463
0.0333159108112709
0.031537470922472
0.032071332956439
0.0333696273758915
0.0297997174446101
0.0333971972550875
0.0316040279681971
0.0297445096032457
0.0310523361347583
0.0311029272300367
0.0315314832303035
0.0324605982611662
0.0293801103794519
0.0313140654222674
0.0302990934162557
0.0325285381198315
0.0293724180821604
0.0287222476694608
0.0298193968924195
0.0282453519818143
0.031680611077109
0.0314782591147591
0.0302590054323827
0.0288228999245387
0.0283036843060369
0.0291437451886157
0.0300415515943292
0.0288010350159214
0.0296604605375174
0.0307493055032352
0.0276844532834327
0.0259982648765681
0.0295298068665239
0.031306454842697
0.0285897935681101
0.0291708042070584
0.026857872926704
0.0287030915918249
0.0292904166928144
0.0295704854888367
0.0293918215513478
0.0291759002131981
0.0273719355574096
0.0278656070005209
0.0284711053266654
0.0300191538184526
0.0255397821297229
0.028536817737726
0.0259830992308624
0.0293061689246012
0.0267295908979528
0.0287290646487456
0.0252596285227867
0.0288748039746778
0.027378796996274
0.0279227214927745
0.0271892810594905
0.0255674171452015
0.029438977954644
0.0272718146250492
0.0306478327909294
0.0257552822997645
0.0252578935372568
0.0272047118474343
0.0283357696769385
0.026745157059874
0.0290568377516004
0.0258706967539017
0.0290514702756297
0.0241723081858793
0.0244369417811892
0.0257292764679435
0.0289883172981623
0.0266772164339942
0.0279972628212386
0.028703992944215
0.0282524044502588
0.0242879791922594
0.0263505487997315
0.0234840155682504
0.025726173202742
0.0273239716303396
0.0251436878766973
0.0264057313813089
0.0261601861411785
0.0280074009953464
0.025996976577519
0.025611360170079
0.0263601031328346
0.0274317828061426
0.0250630854591226
0.0273679026295114
0.0274020001056525
0.024917864413267
0.0252783735002292
0.0249572420204545
0.0275931155595595
0.0252728431232538
0.0236141300648031
0.0267170403257743
0.0275543861215208
0.0242798526256192
0.0219529841418031
0.0243919066202999
0.023335166197732
0.0254857839146576
0.025699253503132
0.024119499874152
0.025049499721988
0.0245742254546528
0.025790786350268
0.02389424634493
0.0234273643582758
0.024342183797769
0.0240253402900869
0.023681793408845
0.0250153390337409
0.0232237216454958
0.0256063894216714
0.0235201302857867
0.0241176357198561
0.0247704401140953
0.0279701698641382
0.0224656249073344
0.0226082697436205
0.0251614265846661
0.0265122070534873
0.0253288181139774
0.0245409065747341
0.0243431403213165
0.0264350013548967
0.0258023919704822
0.0238683333227855
0.0262310860575417
0.0256219123544336
0.024185939079584
0.0251910046147715
0.0249194534841704
0.0254129300217537
0.0239027373376556
0.0251969176500601
0.0248505807449481
0.0236951460484123
0.0237872624840858
0.0235899527960924
0.0247003891973786
0.0263118102662065
0.0246233284736943
0.0221982855669595
0.0247167614693977
0.0252183311707679
0.0261951590545914
0.0247629323177091
0.0259954056651196
0.0256733577141091
0.0256277166975502
0.0256480763601821
0.0241106803441591
0.0243775921833754
0.0244763231939635
0.0260572238998246
0.0263226348106887
0.0251632460345939
0.024614575261807
0.024745782198698
0.0232162063358428
0.0229360401518017
0.0236363356963684
0.0241819401197578
0.0250678728185374
0.0256139455313537
0.0221850930087325
0.0240770049465325
0.0258932241691929
0.0267629835354563
0.0271616711473173
0.0244734396896204
0.024661429347319
0.0230010779828901
0.024457336848584
0.0244552557746109
0.0252118748412666
0.0244320289874282
0.0248876374516503
0.0266559905155426
0.0255904259464246
0.0239178879511758
0.0264383905472198
0.023451299348382
0.0243995264698117
0.0244324265737725
0.0222875590444273
0.0255231063954421
0.0238945732227041
0.0245366586563828
0.0227020483280962
0.0269806095909891
0.0230100360274766
0.024141474707017
0.0217295487007084
0.0259904522575386
0.0248551534054524
0.0285438522140886
0.0203353273770025
0.0263092812067918
0.025429084941822
0.0260613579842965
0.0246393610383128
0.0246261516666767
0.0271098447482391
0.0258764006925899
0.0274989122111756
0.0251050144435532
0.0229571474202601
0.0237201140281545
0.0262861250426284
0.0262791172520877
0.0272867868156586
0.0255987742136395
0.0256331890732895
0.0251376732139901
0.0252383590391196
0.0271903998988835
0.023598954591237
0.025113237637293
0.0275181271370524
0.0268311122870891
0.0256419120047196
0.0269592376620472
0.0284132768243611
0.0255292498914413
0.0226015680237753
0.02811215934902
0.0272640025570989
0.0247290854331465
0.0251688181308447
0.0269265602210377
0.0292114393125932
0.0276629896987066
0.0261505859989103
0.0278892216966554
0.0245559267835482
0.0273557895710247
0.0284993905027971
0.0273408164864745
0.0274237324784934
0.0265453368224817
0.0271043265431834
0.0256607430216663
0.0292094733479253
0.0278882374253816
0.0269313084076304
0.0268611440708732
0.0276197924549911
0.0278518746589191
0.0309820114649898
0.0302720007006528
0.0286837878801005
0.0282073676521033
0.0313091477585151
0.0285456635077925
0.0297277167253871
0.0297435980658184
0.0292935786741121
0.028887729321295
0.0299465280813991
0.02701013570784
0.0273133632387921
0.0298778189310861
0.0303237766954835
0.0285181526510277
0.0286406964299043
0.0304538452310042
0.0322771551367028
0.029624306118567
0.0304791214895119
0.0330880735745237
0.0286675904416595
0.0341039111616693
0.0316828770528131
0.0323463901152602
0.0325207064092301
0.0309965592733718
0.033141978958918
0.0301678702383369
0.0326096969996862
0.0317163331870464
0.0315197028224528
0.0323277046922817
0.0337581734377384
0.0342161488430127
0.0336496750303376
0.0315030398152997
0.0350247228958009
0.0338570064294957
0.0324951504251956
0.0354919206058414
0.0320158096898196
0.035779228483315
0.0340370648371881
0.0361859011610242
0.03255400252662
0.0336641892917698
0.0358627241726739
0.0371060959482526
0.0367398056702018
0.0357946042051257
0.0389114970404586
0.0429705190038979
0.0414008928314128
0.0381181098555973
0.0383170208295126
0.0415180651021917
0.041204739534238
0.0458491870403946
0.0417839462192372
0.0436838868518442
0.0418211276968802
0.0469662492763404
0.0476126838720472
0.0488570528000064
0.0484906885008351
0.0455430428577971
0.0437750282673512
0.0513440308588029
0.0473914244850751
0.0496168291774734
0.0497641782421903
0.0497365160113991
0.0530932848159576
0.0522148035480678
0.0527255755973937
0.054338481478216
0.0537158983689173
0.0542063257361691
0.0536726489310406
0.0572977051824706
0.0577517604889601
0.0573891880040249
0.0569073450807314
0.0580372758363199
0.0629734634512263
0.060341412733816
0.0608069318179306
0.062122306154477
0.0595330590405589
0.0629770626209402
0.0634354398293757
0.0645693230960558
0.0667852206010685
0.0653927829464824
0.0667902209671446
0.0696051703228067
0.0701007926276268
0.0731391728980853
0.0703861231690369
0.0783077562466081
0.0790199214291766
0.0766629504562405
0.082308279065572
0.0819825444808348
0.0747820362216234
0.0826056996808689
0.0894868031710298
0.0932523527162131
0.0950712682097986
0.0965938505626619
0.099703224219572
0.100054173744047
0.107615840140818
0.107566465596716
0.110286544921231
0.11542312873139
0.115353392339586
0.109848516105979
0.128341528262499
0.131124936095143
0.130554294654614
0.131256460145161
0.139635166387356
0.146357052679711
0.148409838210576
0.150938651913656
0.146562859872975
0.158245305994584
0.163863041502013
0.172115268714704
0.171019215158745
0.173864697022888
0.179004170410283
0.185069598993819
0.186013711329657
0.194070958679443
0.198636653937141
0.200711457304013
0.205503174228986
0.208164446753788
0.218642328342879
0.214005359082353
0.217563589950855
0.221551961498793
0.226179829335722
0.227515356622108
0.229445825790992
0.229228540864503
0.231107958192514
0.236912362677728
0.242619260069913
0.230540070262926
0.245853771131219
0.240505199630767
0.237151769232349
0.239846538775564
0.246817215184889
0.23545942292478
0.24398029283754
0.240996680456204
0.243396598400625
0.244219654097714
0.249323060573515
0.251353030956275
0.250861985249102
0.246798434502404
0.245627180711872
0.2488505638086
0.249219919450235
0.247370138742892
0.262067440168437
0.246450533094268
0.245308303046701
0.247492600940349
0.241584124582388
0.245589696961467
0.249502424750585
0.242018709501333
0.243983192238225
0.2490936590152
0.240501732804371
0.24473447400702
0.248645210023634
0.239213938684148
0.238622235255861
0.235437023352643
0.234702803338108
0.234164807745394
0.233429408351696
0.225732218565414
0.228322207413934
0.224704652863888
0.227697707453297
0.22734464152061
0.224982412728117
0.227406630301663
0.224997064711004
0.219633403126572
0.22058219324019
0.215256364347804
0.210063626243099
0.214569966870567
0.21622903077727
0.212358898796904
0.213843108475222
0.216287757772814
0.217972434871898
0.217837436576668
0.217348550809778
0.217539569020169
0.211804972287409
0.208630389614018
0.20892195559795
0.206865306655557
0.209777913285432
0.211491610188133
0.210507116705933
0.207738718499845
0.209213705000989
0.206844180203224
0.203936828170428
0.205135092436972
0.206944914105648
0.20538320562408
0.205582228494778
0.204742582442654
0.204370751963926
0.200272392376529
0.200182857809313
0.201865323681336
0.199596164960462
0.198176019386473
0.19861579608339
0.198202673711012
0.200745248245353
0.193609003431231
0.192720656378573
0.191107206822221
0.189836293276507
0.187625298330579
0.190692057523912
0.190119367557862
0.184567504024886
0.179473110852554
0.179106348403147
0.176423700613874
0.175145797807879
0.173665528271992
0.17544446444059
0.17464066577755
0.176135920247648
0.172924935920755
0.171636967444448
0.166238907213147
0.162946424763613
0.164144646912861
0.168140440252662
0.16627417031375
0.162874869728299
0.159996524697078
0.161002518336185
0.157518788397236
0.157049384627415
0.158623318060603
0.156848563297644
0.15630966500647
0.153021514969927
0.153248581556577
0.15202334115217
0.145428218671977
0.152564007343042
0.153437034277262
0.143772067003501
0.143572743123286
0.142848865320644
0.142982528455981
0.145724994279511
0.144052110406988
0.146484962922422
0.142538556952073
0.140756904690387
0.140282294448136
0.135185832875564
0.134742250011802
0.135117668699445
0.131196730957005
0.134995063404927
0.140519140605362
0.133911937344134
0.129383825725343
0.13003294088665
0.12712285857281
0.128079836247679
0.128833759074207
0.129418361427341
0.124314993585602
0.127098486854829
0.130150531803237
0.126459858777109
0.126383572488175
0.125823701411931
0.122232190916558
0.124748971387054
0.123541417220604
0.117846716159413
0.118466598402746
0.115207544753128
0.118207255854464
0.128778843809181
0.124010496339683
0.120951435333592
0.122017364503698
0.1220578652213
0.118707837948274
0.119815568851177
0.122612479317292
0.123998732568059
0.122246593016515
0.126396297714189
0.132546997378356
0.130699155074465
0.133089701678589
0.130273650358172
0.132572843630359
0.135223085496187
0.134214596432154
0.137866244288778
0.143308315201135
0.141088823630868
0.144471194609822
0.150104756066766
0.151004636860058
0.150638033975964
0.153124827398032
0.160165900245967
0.161883101373124
0.164754998093383
0.169198150577473
0.171162329961414
0.176095575089908
0.178806819405353
0.185237060620292
0.185390360017351
0.193122880108472
0.199245634326315
0.201296437357679
0.207216199051656
0.208191089056447
0.21120921506687
0.216862787184911
0.220472866721586
0.226153461410273
0.229772948387643
0.22928489992724
0.235275530016895
0.241149977595465
0.240896426091899
0.244947801751365
0.244897545656324
0.243970458793174
0.249985984545455
0.259201229547756
0.263009441600105
0.259442406432226
0.257219823262769
0.262251497763424
0.265457698640337
0.26729989926105
0.264821071325162
0.265307924816955
0.269844787470616
0.275234567281801
0.276580410455909
0.278106024366287
0.278339247259186
0.2803100554567
0.2804840646662
0.282335453476801
0.286685872013448
0.287637197898384
0.285328459055975
0.293261139203109
0.293400430044861
0.300437085649877
0.305426034320847
0.304384020972335
0.308662333916649
0.30853071250756
0.310506480243778
0.312249465652189
0.315238610409988
0.31748267887426
0.320053398996562
0.323302065153864
0.322932556847369
0.326706744936403
0.331404519440772
0.332377325472361
0.330403306344054
0.332503432177147
0.331983951547833
0.342996632679811
0.350968400852052
0.343975762630575
0.347247680330171
0.348431817581464
0.344191601487082
0.348346656661633
0.35549455592237
0.352753202956037
0.345830995392373
0.354616791363713
0.351921644884804
0.350004740123035
0.35121054137687
0.354185419444457
0.351174458408939
0.351034828312028
0.352593005883199
0.349681447457925
0.35326856582048
0.350201831206088
0.347913915019516
0.355413257574173
0.350556194053358
0.347806760388719
0.352602287884788
0.351928168850441
0.351235576466661
0.34662902297346
0.346460725007119
0.350364389175201
0.346509923245837
0.350211328856625
0.348186836000335
0.35374386594342
0.360650659185821
0.355778425771012
0.359539634939927
0.358335994021062
0.358989748991929
0.362169903905476
0.362071627689149
0.367628610826156
0.369641685785039
0.372143563248763
0.373432844306446
0.37764300586883
0.374856932041848
0.38066509501715
0.376081332189274
0.37215796069919
0.371228341493353
0.371022475245525
0.374535179471612
0.370597332881719
0.366818339095417
0.36526296677428
0.359836343412048
0.361467947655614
0.358370991028988
0.352617831920514
0.349392841608706
0.346004694903123
0.343108333210828
0.341779937456281
0.342205235094458
0.338434183802363
0.335081658176092
0.330264799237884
0.330915946924911
0.332948521401363
0.324577339383517
0.325787870697377
0.322542654936119
0.324786959503021
0.318889243740379
0.322224885727819
0.32058139591399
0.317719911259865
0.318839013596776
0.318495028647833
0.320855126297005
0.317312097550448
0.315799786244327
0.317230237189224
0.316776318406431
0.314073348081424
0.314531015491228
0.318413869127984
0.316400053739253
0.315586038647855
0.316444307137208
0.316859165372072
0.314033470959763
0.313332065653107
0.312959209578625
0.319856566264305
0.317969569050408
0.313387740840073
0.31274068163752
0.316460483506426
0.312700809391609
0.315843437615108
0.316192820159445
0.311063748621594
0.308922276747369
0.312673157884467
0.309806434160959
0.310162029772933
0.310597240431872
0.311898757078952
0.310015780000289
0.311351475193305
0.311952842990554
0.313933047144762
0.312369583612251
0.311563021066764
0.310899941899463
0.312806915524967
0.312410414798796
0.310234817712545
0.308982694604709
0.309501964819321
0.3044733139056
0.305250437564009
0.304865815138069
0.303124456710738
0.303510032932792
0.301657192473814
0.296097055541813
0.294093745089559
0.289847823024607
0.287853893320542
0.286841081506673
0.283483091344745
0.278664755532959
0.281492307718438
0.277325250088293
0.272425956489501
0.272365124943412
0.271835172396923
0.268364754312703
0.268252053578207
0.264286881017498
0.265182819698652
0.263734713928501
0.263879143890688
0.263193186410997
0.259467914268388
0.2620323370289
0.260364173829253
0.26305849976826
0.264255781849652
0.264210648678531
0.265913942214108
0.264241284949078
0.264290408623238
0.26630867928663
0.266094167442105
0.267910620999276
0.268077836687555
0.271221866954162
0.270124971475237
0.271671084399985
0.273943896269335
0.273803585804236
0.275158141470329
0.280417619148611
0.278411905804904
0.279691747964995
0.280847573246726
0.276542808724623
0.281297360665271
0.283546401276692
0.279584421084441
0.281302951513226
0.28303189312921
0.284099682863075
0.28055184672839
0.281323149968204
0.281332852088789
0.281527525341257
0.279787706880654
0.277367540719564
0.276874237896441
0.274825025882943
0.275932349374325
0.274149198060455
0.273944019627901
0.274079560777401
0.272226780417715
0.271070277657399
0.270284774913692
0.267658945665194
0.268792190739856
0.266547718807641
0.268031648240569
0.264284663061555
0.266378835215596
0.265860166406844
0.265677004400988
0.261028756577812
0.261474058581231
0.260194721504256
0.259837887631568
0.259331370704351
0.261305746320491
0.258736047193076
0.259193066719466
0.257635593313382
0.257408309185506
0.256083263187794
0.254384063855483
0.255902780664947
0.255805708821182
0.249493855807687
0.249778578162846
0.248472114080412
0.24712853092287
0.246332697863723
0.246693577926157
0.245935343298474
0.242846853778748
0.238534473472505
0.23733981109522
0.234928029544414
0.231165629387754
0.230228727968812
0.229686190336532
0.229143839334874
0.230660929320766
0.229358919472035
0.228052967193434
0.228895142451766
0.226675727316738
0.229089572849234
0.22744339280385
0.225305540842683
0.225607113740295
0.221853554577831
0.222683195986535
0.220503607668522
0.216848838025435
0.214002155367034
0.212697412296151
0.208714948309951
0.207708321953972
0.204037127577544
0.202652547948763
0.202002996375993
0.199725259421435
0.199786248614758
0.200689146824221
0.199844514602332
0.204105412712942
0.209844563706933
0.21322547275243
0.218060565473373
0.226271693186469
0.233847164399416
0.240930412282883
0.251407735996283
0.260479372907916
0.272797201037099
0.282654030924056
0.292415234973239
0.303688800414185
0.316224109149962
0.326145807065797
0.337645078714565
0.348201787588989
0.359841703375216
0.368457987458984
0.381730841561347
0.38921782864693
0.399122361185596
0.411683977824767
0.421718923100963
0.427826689459154
0.434382326378715
0.444430026300342
0.45125670870625
0.461394449176921
0.465193800611362
0.473603589835831
0.477076014097479
0.485074059569558
0.485081016663338
0.488026972929236
0.491235930445205
0.494273848341654
0.493766867241707
0.497911825030586
0.494046680775248
0.497008110053746
0.495434975732445
0.497676223078585
0.501111744419273
0.502201143138035
0.502849569907566
0.504757814184849
0.505659770201345
0.506321296489059
0.506818422034209
0.511323798144889
0.51500322212835
0.518781756962231
0.522713705137589
0.529936387276585
0.532929975593545
0.53515132646291
0.540795130817336
0.547891070395632
0.547477218025974
0.557002223033213
0.564482015388368
0.572972434054347
0.589507072449074
0.583907259332536
0.600188308770508
0.605286089946137
0.613166267245213
0.625164308678626
0.628549856993455
0.635877657482585
0.635697169168054
0.641745633805298
0.642220839143757
0.644887244447856
0.649224386550469
0.646027304498589
0.641416953578335
0.643170853648809
0.639459103471036
0.637340191315322
0.634211763705104
0.636630786780335
0.635305658266751
0.644528759457904
0.646457368248049
0.654852629085576
0.656958297541951
0.675392904591399
0.682820396863945
0.692010415876471
0.702224221202381
0.710129322623196
0.724585864497632
0.733105050493794
0.743157349378227
0.756193482378259
0.767719059274059
0.780964157502954
0.790249878289626
0.799124595248037
0.812810041467854
0.81395397797596
0.838972619707437
0.837574655724716
0.86522048699702
0.882441892818797
0.896976548692442
0.907333877598282
0.929877038820823
0.950899953706265
0.97640686510768
0.971101011604674
0.996865671611852
1.01917117008837
1.0326757564809
1.05189340283249
1.03697284960444
1.05994985939866
1.08180950884901
1.09956529142197
1.0913505617363
1.12585623157174
1.13106169213612
1.12716200916914
1.13804382493272
1.12795757009505
1.1228157541334
1.11866990576606
1.12667982740039
1.1159978432151
1.12947107799983
1.11164625523287
1.10743865030551
1.14482880817444
1.12463548256527
1.10593828042806
1.12385843183284
1.13611447499429
1.14037088251409
1.13642916017847
1.16900535484098
1.17660700600308
1.17116546872914
1.19682006591859
1.1898076650141
1.21011735857543
1.21032607735148
1.26268095521744
1.23531857189689
1.27216440437025
1.27273375690308
1.29199859631191
1.287030443645
1.2885124935536
1.29151981359846
1.34426834826726
1.33547183557387
1.29843682928132
1.34554498273129
1.29928199998927
1.37043775041702
1.33572060745288
1.36495724225418
1.37343158601456
1.36929752099236
1.36741411639184
1.39442332679219
1.38834369818469
1.42487045284207
1.37598838883577
1.37653796871993
1.40471467736606
1.36355778109456
1.3520233666001
1.42098961345533
1.38069059981706
1.37720333608064
1.33296879335022
1.31538389124148
1.33412264837041
1.3003607202993
1.3019793021157
1.25837265060459
1.20154259007705
1.1668269506246
1.1519136557331
1.07508492842399
1.04893117236434
0.979488421777421
0.954223627809872
0.9350306853253
0.896400798537806
0.868659619062261
0.845731276448461
0.826821790837682
0.812235439485155
0.80386188875607
0.794538772797774
0.783456929766747
0.777446088523517
0.771400000536026
0.765222136658672
0.748437360618923
0.741495334434113
0.754608281879283
0.723783556301034
0.716023432889587
0.708937763641685
0.694264092867543
0.665523342410111
0.664397383144132
0.644785709412671
0.623937547798812
0.605429833581067
0.584637562954403
0.576434453594448
0.553056124803692
0.521335006689061
0.504081397022978
0.478952610037054
0.450578328955856
0.431827810224644
0.408199846516163
0.388111975166453
0.368461419344852
0.354658474224511
0.334940046056864
0.320653848489536
0.309179840597315
0.291236109408272
0.280331984299672
0.264217727502647
0.2539050799019
0.249680082157948
0.236642943702184
0.23652814851484
0.228047706790632
0.223955738931424
0.220935268561131
0.220209557934374
0.215713089896767
0.216148351070272
0.212616131266355
0.209983388082105
0.211745424698541
0.21291680543993
0.210837937390131
0.213951571189243
0.214160999180284
0.215894671246026
0.214357847288029
0.215192131355416
0.21676785978171
0.217602570596448
0.215153886163291
0.216790260011544
0.215952433337922
0.216076599476949
0.217024230391476
0.209764428692209
0.207232240015697
0.210656109788658
0.204836040851345
0.202819807141431
0.20266825365096
0.199277875631735
0.201761710445248
0.201636363919568
0.197395608133714
0.199756913546897
0.199715398079873
0.207160909684639
0.202725374626967
0.205523240108558
0.208075396970821
0.211921023520904
0.205902609207693
0.217243562669206
0.209190463155733
0.219094139312496
0.220558426035855
0.222889455601934
0.221699669325438
0.22374001039306
0.225442643512007
0.223760271238175
0.22583695099773
0.228388863019286
0.233832232311692
0.233993860990207
0.232662525948209
0.229653539745451
0.230282868471237
0.236213601660971
0.231953754221841
0.233836194957994
0.239676957830156
0.240596326876547
0.249424405800666
0.248973907072668
0.251881772567015
0.269271958229583
0.274282047340038
0.278304496044901
0.291384547847407
0.299270403250956
0.307806035232083
0.31084821433178
0.321808676947936
0.320579995293765
0.329992170737525
0.322204073749909
0.325355758366332
0.320602234672073
0.31850919505467
0.310160299331329
0.303315601623296
0.293191366582545
0.286417409793108
0.291679378523919
0.280124937062173
0.28316058625513
0.284810914204032
0.278678755341655
0.27418018133838
0.282816557078183
0.280346344580874
0.276069679976102
0.282821311188149
0.274599063591137
0.279235719403744
0.282753503122233
0.268629672484457
0.274982050986071
0.269296089949652
0.264576156043303
0.263682570164142
0.262404475267161
0.255354388608351
0.252043124549527
0.254368328462437
0.248204329447203
0.242474039617379
0.240917486911241
0.232920284331391
0.236253318590972
0.232867153608753
0.234135565858447
0.236344137392699
0.234991247643293
0.225945912703266
0.2234652677782
0.226453886644118
0.221256218909835
0.224617964137888
0.219321513769844
0.219395600123613
0.216988416203108
0.206972467225962
0.210368346196058
0.213315090371026
0.202584902005933
0.202771044783624
0.208017040151306
0.206159093745289
0.207217493723851
0.2080643926797
0.191728973623126
0.201676086378499
0.198220518378121
0.198638837941315
0.192016612338966
0.194400189193706
0.194356137397531
0.193821936580058
0.190921983246521
0.192774894460535
0.188897549978628
0.198396553860338
0.189545019558773
0.191499441452002
0.192938787189169
0.186594957921918
0.194005166344187
0.191310831401782
0.190584090592599
0.18783646454324
0.182949925599361
0.19406012725373
0.191642987649678
0.191140277046514
0.192535160767645
0.197149745108814
0.195407112294042
0.199250542392665
0.215074559232166
0.206305875405401
0.199704621544708
0.211005557284863
0.205285706868519
0.205577927025289
0.215627709298917
0.212756345182848
0.218111420195906
0.22386813552414
0.223897448374464
0.233188651786688
0.233677949189703
0.232195744871788
0.242766053422529
0.242398030864559
0.243930100259494
0.251511464305946
0.25944759244247
0.272756159335484
0.285318926829311
0.302368334703093
0.285191278490429
0.309912659290111
0.319847987386693
0.330023977408431
0.336077528532244
0.360028156533128
0.358917256817998
0.363690711879553
0.37439727540556
0.382735614507795
0.383632475942011
0.396965523228771
0.383129956821851
0.406013149326665
0.36829084631253
0.377082869290036
0.396869010536531
0.362382254324654
0.356438518216064
0.380593498620496
0.37472114574653
0.374747440803253
0.362797684129417
0.367453114731738
0.362455237662528
0.358153641533865
0.349824845786942
0.362211813166323
0.343791500171405
0.357675017725855
0.362108251123414
0.334077908220641
0.329469674121617
0.338172710094104
0.312580555978212
0.335584181465296
0.328946425466726
0.32697719213344
0.309007978848417
0.305147858676439
0.313125938302153
0.312429512922107
0.308900151551946
0.320582645347882
0.316503330930234
0.30935986478544
0.298910125903421
0.308621024315817
0.30714715718859
0.29852659601771
0.314262202343888
0.318292768426064
0.323538884862109
0.311193848966651
0.300516835677042
0.326301699363586
0.301570691852786
0.313391586249256
0.326990584025952
0.30672663356762
0.334257639198016
0.325846550999492
0.321455956287549
0.316341846777651
0.329781991165465
0.340923390185784
0.324852355525821
0.340766438597799
0.33594919653164
0.325213567995054
0.329532624310201
0.33598139314932
0.330927383423447
0.345271709032512
0.316173340773713
0.335960181083856
0.346156521874052
0.330989412120327
0.333588353785365
0.357274804200459
0.337837583973934
0.373890366577131
0.39338091127111
0.398528771070965
0.393046031937996
0.412072398257159
0.399424903054699
0.420968898111949
0.420828107325544
0.414936113277308
0.431529802339012
0.440413410663064
0.416125772108253
0.450491302398218
0.430468070761265
0.453040579320034
0.466897844962235
0.470291800461578
0.455837103507107
0.453258302460223
0.451460745393845
0.470025274051851
0.411772232935935
0.465850523095271
0.406864852056004
0.463892014102693
0.443487504174469
0.502845164879834
0.422548058650785
0.418467104187235
0.424450532242711
0.435985797780678
0.392093734002
0.430463836313878
0.399684813886168
0.445087102787559
0.312073370919948
0.36831595979734
0.408846272766213
0.399872254396054
0.322125188207925
0.411911062405497
0.394840849671264
0.527485296476759
0.453213128789125
0.380305074812324
0.52321527037154
0.437420504452464
0.417975192904315
0.524359814370823
0.351659243896653
0.41524840084077
0.396131604887016
0.374960134175142
0.427032325617092
0.868626351815901
0.379012918024602
0.353923350081216
0.424411789237154
0.43721844053419
0.358395064676608
0.362208557422682
0.276198600887372
0.360655373874895
0.503828199754975
0.524250892670559
0.559110044424158
0.553260385669028
0.323552609290919
0.637715447676298
0.638333074588773
0.498245188074804
0.368772839841017
0.639377109693924
0.536903615082177
