3596
4000.36533379555
650.420452594757
1
2
2
0.0327744790316179
0.0268087023137981
0.0324857577653431
0.0219599765961097
0.0413490000696748
0.0251042950933842
0.0323215085207964
0.0258902823644848
0.0406895744495939
0.0250917210493556
0.0403237418214067
0.0235308169980928
0.0407357856543553
0.0248450090044618
0.0351789651533003
0.0232342296908218
0.0408207779619616
0.0213262664271507
0.035660528964419
0.0210785386611486
0.0279401516106997
0.0197583054552145
0.0441192271384297
0.024681967954438
0.0414505919283015
0.0196153879587347
0.0331339158281034
0.0237696432847476
0.0357121220525074
0.0238821179255291
0.0342363930219063
0.0201842185192712
0.0379056434811692
0.0211924607383238
0.0447385266912255
0.0239504724672846
0.0366479531508898
0.0245797033261707
0.0335413395195906
0.0256980849452496
0.0387746955774223
0.0195276486434881
0.0375566669894484
0.0235962122771168
0.0372107953640234
0.0243572283461453
0.0414896068330127
0.0214091615271102
0.0474186707765572
0.023771356841124
0.0361131512474172
0.021931499967939
0.0449932796409978
0.023333797985087
0.0345752873368624
0.0286016197484265
0.0399975175421169
0.0240725419080298
0.034006590987913
0.0174444093906002
0.0492281014280352
0.0315417803624733
0.0330781396034032
0.0337868223828768
0.0370973357662366
0.0290001291539389
0.0395659213670486
0.0242905734117802
0.029752339938462
0.0246836223379996
0.0341936145165152
0.0287717251619918
0.0453843594415832
0.0188046265152415
0.0296264403255973
0.0251192913295102
0.0350605573219397
0.0250528201824827
0.0294678091910127
0.0283934384804603
0.0485215908310641
0.0243930511509055
0.0441832050574509
0.025393074649253
0.0334971464083348
0.036834084800665
0.0314109385662715
0.0149489075005743
0.0499848044103791
0.0233012503921894
0.0404938899097774
0.0205079625323665
0.0352333044157143
0.0208103501751797
0.039336297512896
0.0241795661111925
0.0323079785824997
0.0229009755916739
0.0322142165071738
0.0211165360241707
0.0380725573978397
0.00806474592358443
0.0584889600142008
0.0200989608073311
0.0560944029152415
0.0310001753802595
0.0243139774466868
0.0509534730906632
0.0358427453660222
0.0207562580977098
0.0327447342229472
0.0280705999851432
0.0320445653488401
0.0216604605931896
0.0278995728861311
0.0216927640867713
0.0471952288727978
0.0244764137663386
0.0341680518674062
0.0293742829404522
0.0318445979779294
0.0257538424087969
0.0613624076517214
0.0175520723629214
0.0482338251177117
0.0315189558324212
0.0333981336540331
0.0322042307000129
0.0559621512064536
0.0210812559828739
0.0422443618750139
0.021830845832751
0.0395482543377651
0.00819206191260509
0.0540324328415251
0.0238228520558409
0.0422658929269773
0.0209924046758367
0.0299565657663304
0.0476795389284933
0.04384339067432
0.0290740908353727
0.0370278229353874
0.017111312263362
0.0576593040486917
0.0355814929496536
0.0347059235735359
0.0265073283509853
0.0457379512732177
0.0208555962696163
0.0406338584197365
0.0179031780589584
0.0377358858602759
0.029962428776051
0.00944880270635416
0.0211489957082609
0.0823699455161722
0.00368135168714039
0.075886297024666
0.021665278357335
0.0473828049842956
0.02035389192721
0.0372390930395229
0.0218808845359581
0.0402643136070829
0.0150448271076663
0.0435502340126314
0.0396574295117313
0.0214784083023267
0.020207888669786
0.0469953828041424
0.0395282221760793
0.0274411649890052
0.0466573939483394
0.0441234407749963
0.0182472756531884
0.0686810388240615
0.0307208142244066
0.0354494824645039
0.0169625369733293
0.0553534007734055
0.0214763510973398
0.0359236416304665
0.0172542007818609
0.0402533138448042
0.0256147434764601
0.0571942590822354
0.0222125026764005
0.0405805539407077
0.0113092730865372
0.0409432137153393
0.0345276738365447
0.0655178658316929
0.0195475435326252
0.0487599228002641
0.00384481840786538
0.0728303222958939
0.0396757276864472
0.0401588629229251
0.0284346181746381
0.0352999197699662
0.0292542007570553
0.0388115117013921
0.0190774748311687
0.0480142767876385
-0.00390492576156479
0.060215115661781
0.0385339289120287
0.0366735306328073
0.0179234497772358
0.0431593707732926
0.0124694501113413
0.0652102620736774
0.0412042522686007
0.0386048063585592
0.0320220978691709
0.0341450869959643
0.0389960141796778
0.0599854666003749
0.026839206090512
0.040065774378427
0.0298266747306057
0.0408423548188741
0.0297167212882113
0.0402641466264046
0.0295614380395504
0.0411528904252827
0.028411565214919
0.0433921717513615
0.0285509089999631
0.0436537639180101
0.0338442597400142
0.0355780376469328
0.0342786628553057
0.0343666534178085
0.0248465235330184
0.0562510125145502
0.0310544142743862
0.0519462463575032
0.0327673275457778
0.0547604350174021
0.0304949983163505
0.0493394425701716
0.0340581030824247
0.0517837519607812
0.0139067250790999
0.0705940827173382
0.0258154403263735
0.0557062344071162
0.0251949357792416
0.0555478148464571
0.0427682950572919
0.0423116753835386
0.0312996794680339
0.048148738722729
0.0337699288515743
0.0319627159655277
0.0510927586785211
0.0525159151978729
0.0303360849872302
0.0593797127016703
0.0415913859022001
0.0444811724920835
0.0423336336298194
0.026553252116053
0.0632019847764637
0.0496674155329048
0.00989114154918037
0.0867568553784179
0.0551882610047336
0.0536559674856274
0.0329472262127212
0.0165409435959119
0.0731770991239906
0.0757034782443003
0.0459623589243843
0.0537257035178226
0.0470133924909256
0.0539384002141032
0.0469495044425721
0.0562509651300954
0.0336271276251316
0.0650271738792835
0.0413210628265674
0.0869827274174531
0.015500721783101
0.0776438030980067
0.0645999546786067
0.0553821425420568
0.0501619903337985
0.0622242831346937
0.0459965644680962
0.0677103399463907
0.0530001952449666
0.0666527047596066
0.0545877006121663
0.0577719347771354
0.0614611255426907
0.0674894102877323
0.0547127544687247
0.0645964538503031
0.0728917329602814
0.0690583914781922
0.0625649058686164
0.0631228490048249
0.0672962346510244
0.0756613621653619
0.043431132861753
0.0999697468822124
0.0641808197379816
0.0624771010551319
0.0819593418755628
0.0810625467316211
0.0768942387982061
0.0790964861174432
0.0704416204579193
0.0781158695113565
0.0751597399915023
0.0769368942806709
0.0881119638571376
0.0904602015893672
0.0792972639581518
0.0975634806699866
0.082742042396881
0.103307983273057
0.0912220701955185
0.0976124736126458
0.0996031839680429
0.107991220854646
0.0861426293693709
0.114916727607609
0.119956037170805
0.0957765601590006
0.108966756389018
0.137138755656591
0.105629503260922
0.126058186166658
0.108215492267514
0.134622597559004
0.121476170291966
0.137626348260564
0.125636513513596
0.152790626921907
0.141854312377184
0.163413933868937
0.132363103813606
0.158525704874037
0.162270126337028
0.202982032008809
0.154029077922177
0.185182368411676
0.156718861428176
0.195094920016617
0.184532305528258
0.193029656426051
0.202781562101608
0.197713657332576
0.20328619539041
0.206919769160246
0.214986915577829
0.220505094404239
0.223315994290191
0.223383667101619
0.228691845849719
0.240613490906895
0.239695014820825
0.250951185541386
0.246882224393805
0.279869919077045
0.259493952251667
0.263169869958271
0.266013928920474
0.274743658360374
0.270650146836394
0.2920983533988
0.299224559004829
0.319025475279985
0.293539962847735
0.344961328266473
0.294872481657195
0.322572572888919
0.30507030471354
0.32961893859551
0.322169033100377
0.347985530297199
0.328187163391118
0.351391742359091
0.336123164928389
0.372836140279455
0.34503850461204
0.375847299194115
0.348515962152785
0.392357484099008
0.364802522509714
0.391337538382258
0.355522401554014
0.391141159459609
0.38159772876344
0.440358849854576
0.388240422378323
0.410480751770491
0.400869986311625
0.42057930667689
0.413370016846725
0.437214488913534
0.428544136562625
0.432542274758626
0.454077745985046
0.457374722224015
0.433250860138532
0.479537318264972
0.424942045581277
0.485845430638498
0.454110611396459
0.482378963494889
0.475532087064421
0.499531866673891
0.468644866064585
0.510409073339266
0.494197665193801
0.476252445203423
0.482607551505343
0.495484613469623
0.508556881661794
0.524144512568135
0.496582879243519
0.542259674111326
0.537182095857103
0.550163331716808
0.503391454985908
0.551190979349183
0.52930389637224
0.539915644232414
0.550258207616478
0.583518396624805
0.530387520061485
0.577306002197587
0.541529617743836
0.588979030298614
0.541214393666167
0.626628042859818
0.569833892231025
0.600453489978108
0.593414601477893
0.619572840538386
0.594413356583337
0.627500257088256
0.603332480524142
0.643086433508788
0.620403943663431
0.655063149964011
0.628285388372764
0.656302892108428
0.634261073230762
0.672470850735881
0.62571393792736
0.680221811243117
0.637236475160328
0.666729746345702
0.636539761021406
0.703666609157352
0.646857937880103
0.723297215431171
0.703675977672846
0.721725478706304
0.684560572267042
0.743361784326421
0.661151312373226
0.741270075499482
0.688788218601766
0.708563096778591
0.711314382412744
0.752869321825784
0.741673813545548
0.771364913447254
0.728412727260464
0.778326087045741
0.762159431307973
0.797992591674894
0.738903473331551
0.773065020344565
0.743442331238255
0.846164702693846
0.759301986689507
0.852819021794873
0.764613009345511
0.812578816855036
0.79372113188463
0.835506386301217
0.795286125352361
0.887801442477617
0.801886444399735
0.89453227069538
0.841307998146515
0.86902602457778
0.831691780273109
0.877658604324887
0.802153243003564
0.87868571196167
0.861506067908662
0.935261307110995
0.859273330844897
0.944005294195677
0.855476908520084
0.993549525000164
0.858482028506738
0.896707216837493
0.92711889575975
0.99234012327842
0.863293915688681
0.991060371192374
0.928478462551437
1.00042719268591
0.898025891848147
1.04078251138488
0.915041355364158
1.00460748871699
0.916104978254224
1.03831691536892
0.929962026949847
1.06542147248591
0.925879874841236
1.14190530586069
1.00127051045575
1.03648593291713
0.962594097696356
1.10331252720882
0.981434930552521
0.99481366256034
0.970789313189073
1.14281044632925
1.04260815396682
1.03658037649483
0.970571068165624
1.15785421610742
1.013068886337
1.11649969403618
1.08180784280765
1.13594907301685
1.00999621181739
1.18399138962405
1.02331441493336
1.13404530333665
1.05953602686166
1.08006108297633
1.0998709699155
1.17538587173054
1.00742463825574
1.19520169810061
1.10827957989897
1.24348767341915
1.17575101479636
1.29991599104528
1.30821707026308
1.24598110968832
1.02894284501379
1.18791154163369
1.161242586164
1.27962809765704
1.16194878154521
1.32909256109078
1.18983751326298
1.34945396904074
1.25786914529996
1.29822521664673
1.18652165288106
1.24334359924869
1.16628914641875
1.38978965037989
1.11387287550091
1.27791693741589
1.15107062095719
1.40820009100873
1.19935622733633
1.43799415028864
1.25127277527827
1.30306107484277
1.21159471375042
1.41818411926499
1.25691916869642
1.55449754488298
1.20943388696219
1.5318641755265
1.24898920570212
1.30218596348743
1.27947938663534
1.54221171352995
1.38421793201317
1.61828725701134
1.32172138349667
1.62380323246276
1.32345687445987
1.45301539357512
1.47277082159027
1.57040976669577
1.35291849380651
1.50976547610254
1.43484472824622
1.38178190972506
1.33254624473342
1.41654405506803
1.21145142728405
1.48681580805057
1.33748091640048
1.56831673404634
1.34663940217237
1.57929901552074
1.28734827776203
1.437162417239
1.42164215105983
1.44805285576079
1.55014490574375
1.83097949079225
1.46289219275225
1.66569225090235
1.48099853293806
1.64933547823466
1.43596543853341
1.9127871957692
1.54709913427444
1.67695199478723
1.29141279376051
1.6831824920135
1.3906232246572
1.74508290509001
1.39360668182726
1.68540958284908
1.51836516531829
1.67639046841056
1.48674118917687
1.91393070950929
1.64881593599082
1.61715762508004
1.38690287008096
1.98716161847635
1.55543383408061
1.87175734855158
1.52275938158957
1.67676620553237
1.50523259361695
1.88101167761257
1.63097645268804
2.13961590687596
1.59897317065106
1.60561963898121
1.46428039568251
2.09342895485304
1.59120232111684
1.74178332391355
1.42151791271944
1.55630104109526
1.86382811527972
5
1.67899193488528
2.5336528301057
1.65212683542387
1.72174676919202
1.47679494648025
1.85600331026908
1.69358022696642
2.57067458534141
1.57342897901638
2.08412146085725
1.71787135586184
1.62975254738513
1.69964830280064
1.99851602596303
1.78407598817266
2.090663153429
1.64527926140207
5
1.69766370939943
1.86026053062923
1.7256379600771
1.8236014764501
1.555223863255
1.72769481732898
1.84860114550131
2.01474602962435
1.63810990819064
2.01634871654213
1.65852787265652
2.18054168734385
1.68376759718161
2.15823388715089
1.74584597174196
2.17792218651256
1.6330153136654
2.21573414220224
2.24110719874502
1.82441712817628
1.68129267081152
2.41164134593469
1.59690765096912
2.25931292540634
1.45672145183881
1.83324402539556
1.63915333493392
2.20674738720398
1.76333342846516
2.19327656907875
1.71411673443049
3.08824138822099
1.60750542304069
1.93984614292282
1.73809852352799
2.02838213606296
1.59417613339684
2.22713972264397
1.78970129643284
3.05735778698274
1.5893310204602
1.85515366694059
1.86157795624943
1.94110398171056
1.67959290365248
2.03170315752006
1.66530674550919
2.01026639610315
1.60103910299482
1.76304670473817
1.64817901716927
2.11254983020156
1.83321662327191
1.93564927039848
1.61793824131629
1.90284256774057
1.80614249383269
1.99548677872302
1.76825335073437
1.68171769435967
1.75776034813852
2.03748316670921
1.75522554177549
1.88387708569856
1.85751815243382
1.71673944036836
1.81793841963157
2.44433426207989
1.71891329588069
2.18936582177626
1.76947208501397
1.95519623786609
1.64555015004241
1.84724064450091
1.83492066994789
2.11497988744645
1.66421970429986
2.15557960007069
1.73621786710883
2.06106740702914
1.86545888665739
1.99354441792529
1.7796756697962
1.7721760510991
1.61478549683369
1.9349071711599
1.80009603131568
1.89545495113433
1.56460988192383
1.88240609531103
1.52943472559463
2.1089984637337
1.70435599615294
1.74477964830068
1.73499616865914
1.76875307117989
1.70161389512143
2.01544756872685
1.83983433345825
2.39567996168769
1.80565219253931
2.18899285231163
1.54740066629197
1.9148132627572
1.80282552690499
1.95615792967939
2.04179804131204
2.00735601238753
1.71519258265463
2.11348749074837
1.71853075149325
2.0502256722171
1.61676690444221
1.92006394842067
1.7675617146717
1.84925023809802
1.56798650530603
1.72319884328587
1.98508157491127
1.95861660075758
1.75029736575831
2.30319616571952
1.79266378744188
1.91058584896226
1.56649908847096
2.03717643192467
1.87979644747876
2.77242271641206
1.62828323164614
2.12104908619482
1.87404018867964
1.85700348415501
1.74365228078278
2.03673868122658
1.66382977606549
1.81095630080098
1.79272549462093
2.17146227897824
1.64108393283738
1.91255496266014
1.7433041651257
1.71183226039933
1.79818178099856
1.77064121562503
1.86868604600147
2.07734552849847
1.60385282355105
1.72822790499204
1.75532899639357
1.83464200284006
1.77850331621931
1.89813103976383
1.53322928977154
1.81711699400583
1.79907360481238
1.94441188163233
1.58817719264404
1.97326307965621
1.87893022474702
1.94091900912379
1.62786019454261
1.69665357953713
1.71430871813335
1.82178124315357
1.93457933333373
1.89630855440976
1.76326698232051
1.86911104203518
1.86349726293704
1.78485543760894
1.74693421170081
1.7725986545151
1.722630752188
2.01768997190293
1.58795228658448
1.5740096037304
1.77420677210113
1.83253183131759
1.57530202234517
2.19985202991317
1.84226324553562
1.69134373578135
1.62448319468488
1.72467857193255
1.75601382076251
1.70010502396658
1.75662744627486
1.65601397796235
1.58501383974895
1.53928280924691
1.70909627549924
1.88121254528722
1.52450411620445
1.69465641280822
1.52372841318538
1.67172478389979
1.47309532539531
1.59078567488813
1.53917148964214
1.70075549626272
1.62038947359459
1.63823071730125
1.54451809926412
1.49298813409328
1.49431821980332
1.79075770202543
1.55393241782574
1.50573303105245
1.49180376083831
1.55163572351125
1.43334031793233
1.45161650917277
1.54996781917315
1.60142969729131
1.50657228004238
1.5767795476456
1.53683545372037
1.60754135271314
1.41464538324104
1.60765447519678
1.46212887257765
1.52625390285167
1.39058544408441
1.51566250656758
1.37754523483523
1.42308657117703
1.44460519854431
1.41907210721949
1.28501719996882
1.35929764611439
1.34342074186165
1.46670381613635
1.35591392760156
1.44121388590594
1.31980862111659
1.38842741312738
1.31248905721338
1.35549667769767
1.3887444611646
1.3203400312157
1.29530137532897
1.34827485041687
1.27085993208877
1.36389034044743
1.30982415440625
1.29959780966338
1.2984064094924
1.31098436371279
1.20352032712043
1.23764997773171
1.20622050198684
1.22139453408405
1.22113663948186
1.23591015873277
1.1755319369447
1.26122320293865
1.21751184978168
1.24586563539108
1.16380234482491
1.23141082544607
1.16090930872865
1.1624547233761
1.1227715072813
1.1820208433179
1.16069298494996
1.17049666188984
1.13542284040298
1.12364900377946
1.11454220524078
1.12587245324749
1.06976211729324
1.06857101770681
1.06417309562063
1.09520242485055
1.09396773453031
1.07995696704682
1.07288167778021
1.03249991377899
1.02817085583332
1.07966524417641
1.01645977239334
1.04204414722364
0.998842042777521
1.04302360594999
0.996247433832644
1.00174945724896
0.980926755938532
1.00713127254952
0.967851089733375
0.989507066136228
0.982033570611882
0.991802449112834
0.939193101741011
0.974618138960081
0.930312980000642
0.945393047183863
0.918441033100192
0.930448569037133
0.905990548066335
0.953300427540958
0.898390877648799
0.901594997786146
0.85580467043068
0.89070292662717
0.871810886667009
0.881246150536699
0.871195193111033
0.863155301730592
0.83936675500005
0.844611536844566
0.829559424143584
0.841428024413086
0.835305067331508
0.870049328236044
0.792029107042067
0.839822577386564
0.826752686100095
0.834015501946393
0.781725859608973
0.795641297056027
0.783671051793746
0.787882786210193
0.767929818591793
0.773755219411398
0.765621978727975
0.778942713496076
0.742805806344839
0.768746766962229
0.739365676855061
0.728270689120064
0.733810707268024
0.738252306091767
0.708101563650506
0.723305594498108
0.696132229071448
0.721619420398332
0.707588599788995
0.722888639968731
0.694691592466214
0.706210129794744
0.679384106810184
0.694593830560687
0.659941658678364
0.676420023234882
0.664761696210494
0.682831641257035
0.647702985858859
0.670027053473848
0.641148681180079
0.654831382262304
0.625467203364803
0.636335313944031
0.624094105335518
0.633043736997286
0.612967493201099
0.610314598380114
0.602116011980003
0.610504087347132
0.611729791427249
0.603470664582834
0.586924044377981
0.592858209971759
0.575420580931895
0.59387491292055
0.577112683755414
0.589025613916269
0.571426762541991
0.56796545347064
0.558420551661155
0.568241723553472
0.54356879807497
0.550025174796023
0.53650072877578
0.547414674556856
0.548624347564624
0.542802329313982
0.526234520362195
0.53542667054339
0.518622019722583
0.522986989436232
0.513440013196403
0.516105451610712
0.502806196522249
0.510368184712921
0.497217014942172
0.496281040901185
0.497730830200973
0.496172643578614
0.489845440526379
0.491638285501075
0.479544527624715
0.484176071419813
0.471664686747574
0.474282800171981
0.463547226376848
0.469688573458946
0.455417098137901
0.453499345050378
0.450590644767011
0.460074009944015
0.440089767132835
0.45152008360982
0.436736783876633
0.445113385088841
0.432721067414873
0.434414798593434
0.428543931934129
0.434251410469688
0.41753560665952
0.431802204122259
0.417275923654224
0.419662293631333
0.409767255134381
0.421554907228257
0.408143421363562
0.410371547706923
0.399081602103297
0.408211948925483
0.389469067776325
0.400875718755356
0.38944270380526
0.398099173332398
0.383660795495158
0.390957175738278
0.381671176382118
0.393898555565375
0.375241854007372
0.381663346077574
0.374942521763433
0.379299939093893
0.366369433266705
0.373359152349342
0.361407785231119
0.375913083838229
0.35802426731864
0.367411704366404
0.359314914764396
0.358450571881719
0.352700636008022
0.359973781152502
0.353029998731892
0.353831466665968
0.344997737323736
0.350056760468309
0.339250796654957
0.34348607739206
0.338919828586152
0.338739694061215
0.332186808750406
0.336200903897416
0.327461150323302
0.33671124228563
0.325360654059247
0.333415250055076
0.325674527255369
0.325990121191264
0.315966785752283
0.328140643432994
0.317514358848419
0.325541381425035
0.318668896616394
0.320526206416675
0.309430104793128
0.315741928660419
0.309830137764536
0.313894095603069
0.296663037574077
0.308633408451819
0.301749315293078
0.307825010909837
0.291696375719323
0.305621006456406
0.295243283526622
0.295144693133175
0.292600737218806
0.29761243904167
0.29179421884488
0.297496701817517
0.285114161841558
0.290876635634006
0.279031393884658
0.288721681804362
0.273785622225399
0.282627302821819
0.279490551046728
0.284073374402363
0.275682599850912
0.276521780508999
0.26746639274534
0.278917243995113
0.265231150825753
0.27246348438553
0.261946901875624
0.264255193821913
0.252157847704148
0.267339074014149
0.2542541709738
0.264123392003624
0.249890002601567
0.259559706702849
0.248250478008848
0.257701398970492
0.244702140051812
0.252874472103452
0.248269735061388
0.249937375905228
0.244925751957181
0.246038460101673
0.243280164247554
0.243311037182081
0.233574980131946
0.245403653190581
0.236894288671467
0.23751915373889
0.237297348863985
0.241581459961793
0.231584358239287
0.239641894546339
0.229086086752814
0.237585846083346
0.229140956599076
0.233600426053671
0.227801419875889
0.226761245209107
0.223535969712239
0.225560419084547
0.21779380405104
0.220771862822839
0.222569545110632
0.225439374437625
0.214277745892095
0.22122647041897
0.21437248918915
0.218653790130571
0.210669057334293
0.215578944271248
0.206900102748187
0.213160170357507
0.204693033872617
0.215144127257275
0.209754380299466
0.208735456907888
0.205104028008857
0.207636137921342
0.198758692919052
0.202113522522117
0.196477036158001
0.20040784872472
0.194341655258006
0.196566113889254
0.191044810034353
0.196330277171519
0.189060700088447
0.188914604268112
0.185855545959157
0.189331321384311
0.181982915316382
0.18549483959075
0.174892915436119
0.183683610182822
0.181690089230067
0.177108694936212
0.17590622499793
0.182595438518394
0.16982562142038
0.1790233662015
0.174319578235323
0.17033850503874
0.165142864158281
0.175769274883973
0.16706273978948
0.173209642362224
0.167375925412874
0.170304946409136
0.166342025250402
0.167586101646713
0.163295852587914
0.166733784792981
0.157410467395229
0.164220804418791
0.161043224826186
0.160576185496193
0.153031936921519
0.155858064639421
0.153358731773454
0.158108842514904
0.151075867241196
0.154481282627692
0.147465806648298
0.156175362205242
0.153295524501787
0.155736418477127
0.148378027064948
0.150688331631088
0.145944820756491
0.148625515209153
0.143219957502893
0.145760262042919
0.14749206583039
0.14507493905874
0.140323159650665
0.146231679112629
0.139141617244751
0.146162407764333
0.138270980566456
0.144699456025449
0.138677546878163
0.138614370174697
0.133422440702794
0.139887217124265
0.131074300142728
0.136390034557425
0.134815194076283
0.134567760629604
0.131874694480607
0.133722619853932
0.132136172677296
0.133377887630933
0.129147202415176
0.129803004708021
0.125515191297284
0.132520170747522
0.122604927643068
0.129030197267519
0.127126981762578
0.126443604826351
0.121155654776202
0.125883730890641
0.121724385801649
0.125912141892426
0.122684951488078
0.123844818996319
0.118125612104776
0.127540555602976
0.121162483623308
0.122726899813428
0.116491739127142
0.123248853454861
0.116992650315981
0.123972594594683
0.123446126735311
0.122205982570398
0.115220657400811
0.116768126662217
0.114332103081777
0.115961192840934
0.115232141756924
0.118450370913641
0.112856391970641
0.118799599116441
0.11364418737863
0.117261771001638
0.112348794201855
0.11356853604665
0.112156029210159
0.113726905835102
0.108301099044565
0.11433760757482
0.111329656600404
0.113540252823621
0.109672619420589
0.108899411179587
0.108467392863518
0.111890004446443
0.104746431348776
0.109077427059643
0.107750173596511
0.109197843774699
0.105132537699727
0.105592480232118
0.107620296460924
0.107700592781364
0.0996890051709802
0.104252384414175
0.101992361989707
0.102963188865937
0.102463628578402
0.105682113779303
0.102764425890194
0.106579015462007
0.100701504201799
0.104562811155914
0.097614257547107
0.100198392854329
0.0995175592656672
0.10584878116759
0.100225044765148
0.0996549038125304
0.0986207455102747
0.102437466510155
0.0978846061875658
0.100709423990708
0.0999218231041269
0.104386195824985
0.0971369063207172
0.100699791425556
0.0966990586893697
0.0988602178285027
0.0942744860469983
0.0966740542273824
0.0948135726462961
0.09721879233934
0.0940405737725192
0.100394810835258
0.09641746002778
0.0961197919584166
0.0916132456885472
0.0947950792471598
0.0918242063465848
0.0969575415607363
0.0943547241822274
0.0969541837321923
0.0926223980548211
0.0965034003153616
0.0948909638025011
0.0932283736456008
0.0914038017485551
0.0961386431363861
0.0904086536156749
0.0944444279537091
0.090617730380461
0.0959656186980362
0.0855030534121454
0.0925720916184492
0.090265089391569
0.0917425265757723
0.0921750711331538
0.0920682704470276
0.089775964154402
0.0881930273351341
0.0877788652527647
0.0958363421948326
0.0856394294717506
0.0954656899809774
0.0880763350262099
0.093034992068621
0.088073585846909
0.0880245806093644
0.0851689134432538
0.0861412656953845
0.0815295831445361
0.0907298822665473
0.0893021174502675
0.0884749376890652
0.0829193159972277
0.0897310402377497
0.0835998069378009
0.0847395308598383
0.0847247292989539
0.0823788960243844
0.0795367467725224
0.0857912194702383
0.0804079252850279
0.0858997643691953
0.0836016496267465
0.0843553864377471
0.0834152105281099
0.0863077906955151
0.0785785009181185
0.0847382784544217
0.0847625180122846
0.083933217820065
0.0789455287210244
0.0855515096831226
0.0776904648238027
0.0840540530914694
0.0825963952121547
0.0817028500543311
0.0809327019991497
0.0853676426609326
0.0802084309327576
0.0847499761122851
0.0822050066493746
0.0826329221975801
0.0824904761483152
0.0842448912323355
0.0811001479823639
0.0796484906527433
0.0787554676885474
0.0808050280308382
0.0762182200027663
0.0794760273515095
0.0793058799297869
0.0788231470857012
0.0798635547352182
0.082541888053641
0.0762913833194253
0.0758352136711649
0.07692712615055
0.0829633246583747
0.0784369939919594
0.0767200942079675
0.072199275713141
0.0792179509128643
0.0738142840466256
0.0770171830135301
0.0762813130566241
0.0776248141178339
0.0766999053436185
0.0744336129668394
0.07450457047189
0.0793917792326838
0.0754865164065491
0.0762684465150428
0.0758294925699014
0.0768435979480203
0.0698609279417199
0.0787273335120934
0.0766302061512932
0.0768762911721613
0.0776436116960775
0.077195823007243
0.0717124337432805
0.0748105142091585
0.0731973454081687
0.0754780365658821
0.0745230702121185
0.0768344229140797
0.0740243581220492
0.0760143881308855
0.0757191513220565
0.075090955102541
0.0730297965839922
0.0732312000927844
0.074804830280292
0.0778252307727939
0.0726159857607433
0.0770200452007455
0.0746746378772755
0.0777645847783841
0.0761059295706241
0.0786709232774934
0.0743817400929926
0.0763311902037751
0.0761751488393827
0.0755492302831166
0.0761763689015808
0.0792916266932483
0.07322428746367
0.0733232920645625
0.0733326217461229
0.0760180466196039
0.0714025234998476
0.0758092344267278
0.07357254106501
0.0768460539209851
0.0722695943783839
0.0752460439102139
0.0737273937019217
0.0751830152342299
0.0737510645898326
0.0757444592399161
0.0739650507311113
0.0747208991159147
0.0723101895566079
0.07675843749485
0.0719463337074783
0.0734865604010804
0.0713640754329283
0.0745764928571306
0.0744070143913315
0.0715959334681291
0.0693208986881653
0.0752105305911175
0.0733617345249865
0.0759098524536543
0.0713094805826732
0.0773943638741066
0.0744337355721672
0.0738086837395939
0.0715553732442002
0.0775516607390042
0.0735105058358882
0.0731475585989817
0.0742902723249222
0.0763605733373713
0.0748627809490602
0.0770553442363558
0.0708178384677799
0.0735798913639857
0.0744636575886039
0.0767699242169098
0.0760196382254235
0.0776492129563405
0.0759388831952833
0.075500816537629
0.0731993450655033
0.0792144970880932
0.073193851679554
0.0749541720632042
0.0746617320432632
0.0749285159224282
0.0765182279668914
0.07519444900992
0.0713805240875476
0.0781427803767382
0.0733168365354608
0.0750105767632016
0.0737916981637268
0.0755895635082175
0.0743741900815635
0.0773339618064191
0.0720896601602671
0.0768063297586519
0.0745914627310576
0.078468461184509
0.0761116292824196
0.0770358599372379
0.0759402274523943
0.0779775209024462
0.0745557879729193
0.0753300985970892
0.0757119274765158
0.0775525383037398
0.073840248533734
0.0775994292649605
0.0769678062425271
0.0768649196558544
0.0740690476210631
0.0774961234861705
0.0776873536060439
0.078900939134066
0.0743945575237431
0.0779645720536481
0.0744722867764723
0.0754902555307944
0.0757875580689369
0.0777410822762515
0.0754822265855713
0.0774853435026376
0.0789235769024187
0.0779631846284479
0.0757231339692815
0.0737692688094527
0.0785026735492245
0.0792721751034203
0.077147900066488
0.0792139256337746
0.0800223569683752
0.080703759815161
0.0777889164778946
0.0798769693020582
0.0785855030593151
0.0782473287695635
0.0758977991530766
0.0806818733647994
0.078456802960213
0.0823276876953574
0.0800010639532521
0.079423002987166
0.0776652798816732
0.0776203983806757
0.0779453294480306
0.079850335148861
0.0780881723400172
0.0820328929148572
0.0817834351436589
0.0809739773525824
0.0777121599265121
0.0800350774244353
0.0795217915662542
0.0805317231279699
0.0774810883973252
0.0804344778560866
0.0777889995500276
0.0791815586384735
0.0812119396918909
0.0780892652104104
0.078856425682274
0.0824965892414095
0.0781642569335098
0.0797084530047006
0.0804858772908163
0.0810171504218167
0.0790266634793822
0.0835556087598948
0.0781163444591059
0.0798578324593693
0.0818669409278647
0.0811263679051701
0.0840574964081706
0.0825705905825573
0.0792625963177696
0.0814854944407701
0.0840408864089534
0.0833055512699931
0.0783128113855271
0.0836274767238544
0.0795147624016259
0.0817224829020272
0.0807544709656277
0.0830721183233771
0.0821530122177123
0.0813861102329122
0.080183035578612
0.0841425621962682
0.0804674826905265
0.0824887904543165
0.0825455878102781
0.0846661177101529
0.0838337320672946
0.0841729232695602
0.0857460052705282
0.082948553310628
0.0824682762209715
0.0827447140166692
0.082992674808914
0.0870324575404517
0.0878959695217431
0.0868459613006894
0.0862797518699589
0.0855072894996141
0.085239659538224
0.0880873216634952
0.0857765811875081
0.0824397536384544
0.0843283156906988
0.0835827387126551
0.0861191887288519
0.0873329088984059
0.0876867409196065
0.0868289360284716
0.0855732347561043
0.0849467175556821
0.0883486427706409
0.0881745413999617
0.0869089011440049
0.087301077542077
0.0885498908423235
0.0863468902504994
0.0869386961369182
0.0884575392218658
0.0876242069229021
0.0901650755001298
0.0891355031191234
0.0882817304352747
0.0858734537336163
0.090281275462172
0.0895226653391255
0.0890541146839185
0.0869972561074196
0.0885475154389676
0.0867367053632897
0.0874386160497079
0.0874308348359892
0.0882009300259185
0.0923269594072557
0.0887629921502127
0.0911515556563073
0.0897043203383784
0.089997029474171
0.0905006440217089
0.0908115969860012
0.0910170697245928
0.0921527975062515
0.0907731976558689
0.0908985354342373
0.0918706427168278
0.0908247252436502
0.0895339431176899
0.0924401047272433
0.0933494312206206
0.0912945392234516
0.0942911989169208
0.093859398827151
0.0920554366774696
0.0921995896161553
0.0904858192212432
0.0931061993431486
0.0902809228654487
0.0922783051615069
0.0912841007704646
0.0940315864551984
0.0884242575129039
0.0947577435686362
0.091867164566126
0.093915745712288
0.089833204891407
0.092840780493012
0.0932511917974611
0.0978802885065778
0.0956730145880963
0.0971442504984158
0.0910917444166752
0.0965867312683519
0.0948057631595677
0.0984902697892599
0.0913811833866529
0.0980054253968096
0.0929356246885472
0.0961828695948327
0.0872538410575946
0.0982618010471969
0.0949360248022951
0.100416291825981
0.0958602779546971
0.095374932919298
0.0947736336371711
0.100794612442194
0.097828038778192
0.100763933475295
0.093513280826512
0.101671248711414
0.0901219884755133
0.104939217314367
0.0944915304790831
0.105433354074759
0.0903074666683913
0.109038497267458
0.0912172971777337
0.106386312387364
0.0903145315311462
0.11159100140178
0.0823098455578573
0.113641066179798
0.0830602863403781
0.119504167460244
0.0842501565884553
0.121435505578385
0.0839284023574212
0.121054017421038
0.07789194322601
0.124440913052118
0.0801697273527181
0.124201581999146
0.0833611947847026
0.12591587141323
0.0817779517742518
0.132995822219207
0.0888122998781839
0.116255821613045
0.0942172397201307
0.117369799759872
0.109355023998812
0.101662303120367
0.112854566126309
0.0936329729358684
0.124637799709183
0.0881185665759722
0.128306038375421
0.0889266969125594
0.125072538041275
0.0935643005832966
0.122994200771685
0.0978987374033951
0.115244349302364
0.103392319382335
0.113019565412065
0.109747545357781
0.111650491250703
0.108684188747077
0.114060532771136
0.106072335388003
0.115262416417264
0.108589123405274
0.116943510556976
0.106180656282605
0.117245058092116
0.108210699353396
0.115840583108778
0.10854133261857
0.115535682654232
0.111658440728018
0.116146860735461
0.110727800040226
0.11880200636645
0.110950055275323
0.118931641844753
0.111300329463376
0.120156328591084
0.112597202377934
0.118026816401969
0.112736105899687
0.118567473373371
0.112777559673879
0.120607302683685
0.114710981100219
0.122637420889056
0.115522080135074
0.119027580009188
0.115385495334619
0.121237667490884
0.114673721942679
0.120952499393097
0.117888982723135
0.12049276765266
0.117408831196112
0.124880607278964
0.117756809365266
0.121322413043074
0.121049329392
0.124379445679356
0.122120633793638
0.129829066508454
0.123009272364134
0.127318731648047
0.120378993740336
0.126794424375824
0.12041519075076
0.125930266339018
0.12144655625667
0.126544001043652
0.123794716231345
0.12793824040254
0.123016678448925
0.129814877087079
0.123352490243826
0.127788030550126
0.125064818792874
0.130418293245409
0.126050009791977
0.130837337242927
0.124014332411331
0.130047667709314
0.124313173491349
0.131949497726011
0.128376660862573
0.130995571631551
0.129334390799011
0.132251140523212
0.129447677468856
0.131833185537977
0.128311330750239
0.131978970012966
0.12732384556532
0.133169596543989
0.132216932844591
0.134992167362784
0.130955690842143
0.135381617554105
0.130783999379275
0.138672853282105
0.130136802815414
0.135806988896474
0.133954843258591
0.136208499314525
0.134051722119021
0.137986403105969
0.131928441783615
0.138542661482979
0.136047167903881
0.139101142082511
0.136359708039221
0.137308264583408
0.135243939238827
0.141468209490932
0.136704426842922
0.13906673024065
0.136954370135477
0.143677481698938
0.13850811328323
0.141997264546254
0.139440746093835
0.144292905756267
0.141033069926782
0.1433306854314
0.138951467339764
0.146986452939159
0.142073479106033
0.145309281331592
0.143460709677325
0.145706639653341
0.143768618603299
0.146514922965438
0.141758683069752
0.145154670707354
0.144750649750643
0.147812392874645
0.144262842610141
0.148321906313011
0.145170995489222
0.147859736728624
0.146388370283614
0.150034236105238
0.144807624119978
0.150867599488713
0.146450874117789
0.148195196475373
0.146875625474016
0.147299966327901
0.148059604318969
0.154305411259671
0.145633357513641
0.151881463103035
0.150129477228726
0.151462863856137
0.148796527127358
0.152349108914195
0.151585089752876
0.154214476383601
0.149525918477528
0.151762450203885
0.149978934565872
0.154740579030633
0.150403955118505
0.155026294047713
0.153898959866447
0.155835930470681
0.156462628129175
0.1550120734129
0.153462775620038
0.154621306556323
0.15577387735564
0.157034264145826
0.154807854828204
0.155379669876638
0.152145327470972
0.156096363022888
0.153233933289766
0.157144420074868
0.155847302222521
0.155793284254867
0.152694458704775
0.160434999897042
0.154943706073346
0.158617888658386
0.153708156952363
0.159331052458814
0.157859099809816
0.158772142678686
0.157106732186163
0.15768696143504
0.156145005458241
0.162434565913819
0.156730868517638
0.162193599011614
0.158847617753364
0.160803516482386
0.157072830008697
0.160677212877697
0.156897175870687
0.15920613734732
0.156752725750696
0.163086949654111
0.157401199030996
0.157686234809584
0.157304494507585
0.161346420279062
0.158179799377467
0.161090739287389
0.156938317700397
0.160052113438543
0.158541475807369
0.159884727313675
0.156146025672941
0.160563867208292
0.159596400700235
0.157607176967794
0.158505716916761
0.164500267719033
0.157923905429164
0.160886455074879
0.15814264513654
0.163015534842337
0.156144851546628
0.159557906739183
0.157054954950964
0.161002276469354
0.15907478263392
0.158671773067551
0.15843760853384
0.159908854247381
0.155616906048441
0.160429967049428
0.156269210596124
0.158982419348517
0.156960703005978
0.160725672037037
0.153946825729517
0.15912175600618
0.156833376461765
0.160037651065876
0.156290222594315
0.158552020049297
0.156550140530792
0.157061488030185
0.155001226747027
0.157991345110645
0.154670416749793
0.155404448992963
0.154581800757626
0.160067275664518
0.15500698197293
0.157696049476942
0.15423362972537
0.156657932357784
0.156432582956268
0.156933241361421
0.153442677779045
0.156217193329475
0.15327739232086
0.156037836883198
0.15311984923289
0.15658407655614
0.149441954073546
0.153115530171617
0.148794060582032
0.152664330003184
0.148840175436059
0.152722033163555
0.150127197862837
0.153182076473219
0.150321649714958
0.151354603797792
0.151292086596977
0.151310123576035
0.148764131672582
0.150643339357588
0.147505499626321
0.147537936402113
0.148477441785148
0.149232844033713
0.148250249737023
0.150209375348583
0.148892788091409
0.14786688830363
0.144974620465849
0.147808171804893
0.144688725347366
0.146524826352004
0.143076961554733
0.148673352699788
0.145109593168293
0.143656581488638
0.1451991960761
0.14661180281895
0.144381871657008
0.143350045007721
0.145778482052619
0.145226556459652
0.141295422902187
0.144025188655326
0.139436946816492
0.142022202658049
0.136698859434726
0.141059209252217
0.13702969556867
0.140560494230938
0.137512349689937
0.142489438971636
0.138727304068273
0.138330663077004
0.137996902158427
0.141348771099472
0.136724878646381
0.138596140426617
0.137516826861156
0.135225236588577
0.134944616164504
0.138304381891998
0.133841104382463
0.137186030115429
0.133064902192791
0.135904824119001
0.132069697374812
0.132092525510763
0.129364447427513
0.137199536949879
0.132040574751404
0.131624924701566
0.131239487570763
0.132676688474842
0.129701887153089
0.133354197499362
0.127613357684207
0.131062809553983
0.129758559204361
0.128147564938569
0.125076447158804
0.130157343944294
0.125753130787764
0.129591455984168
0.125037767086129
0.128588259486435
0.123851363694285
0.125155384332589
0.124139654701166
0.125411165651716
0.122119062249606
0.123893245585211
0.122180791192468
0.12613709845401
0.119791273934387
0.127656099800562
0.126062801552269
0.122722449068552
0.121103731343274
0.125323497699536
0.120533045163874
0.12339603324573
0.121139507266973
0.122114755890933
0.121188914740755
0.122280312772727
0.119009882575436
0.121240927605443
0.120892164633703
0.119581495306087
0.118087582270386
0.119429441266558
0.118609719672326
0.118081987878022
0.113886608763349
0.116133068748948
0.11694827303891
0.115947381124022
0.11547153747514
0.119092137830689
0.115310235774645
0.114370288085119
0.116257481270313
0.114237189673459
0.115085007310937
0.112231783056698
0.113093296326759
0.11302306507462
0.113411992047443
0.111600844311994
0.109021415325517
0.11320858057266
0.111666134792509
0.11089702353056
0.111622024693757
0.110686231384813
0.109884176997266
0.113456552316536
0.112886579387153
0.10888590049262
0.108494821676787
0.109339992656301
0.108223954193619
0.108993570414636
0.109136035090329
0.108134652659596
0.110514809521122
0.105638481504084
0.105665089145015
0.114137253377365
0.103390962326688
0.108844332774191
0.103497415803579
0.107277023505673
0.101777225389713
0.108434028410432
0.106239885073839
0.10753619555245
0.103349984810163
0.107283572538751
0.102894839239835
0.107797832386084
0.103729691361563
0.108431000027681
0.101489451236426
0.104611809886583
0.101226082630962
0.106900637204878
0.100976271240776
0.105303624240585
0.107549946031936
0.104747434755684
0.101990657771984
0.107056752485645
0.0953482016281688
0.118332731675909
0.099650278553278
0.106404843259694
0.103181309371315
0.106245972065359
0.0996721358009279
0.10361379232736
0.0978094715203533
0.101726618472559
0.105147343329877
0.102960316228079
0.101864674534227
0.103072865176002
0.101117835294281
0.100305253245696
0.101271043704777
0.0985151084580345
0.0989809539289709
0.104458646408926
0.0997695815240999
0.102953217885276
0.100609009581628
0.100138324392259
0.0963201866437123
0.104228633981887
0.0994682290297709
0.102276103861424
0.0998985083983603
0.100579202065441
0.0976695853016934
0.0983323867082676
0.102596338617276
0.0994010919874422
0.100233291675619
0.0957966064436825
0.100994623726762
0.100108056227077
0.0990744492445164
0.0995617922990256
0.100509754754871
0.0974409981950946
0.0975484156322081
0.101764762530344
0.098337350808667
0.0977009657826528
0.0983265535115446
0.09880238319294
0.0990418984552866
0.100266438960488
0.0976465269815339
0.104875992471375
0.0931368035125585
0.106468497082915
0.100653618057318
0.103046828387328
0.100009680623659
0.101852660806336
0.100127649995955
0.0994105896106512
0.101371478836277
0.100300616303841
0.102376796883853
0.0990548315554986
0.0994178487382163
0.100034893806506
0.100464063014383
0.0996405757164927
0.100662252261494
0.100957075700361
0.0988633815619875
0.0953123818286766
0.102972553354826
0.0982995798098767
0.101916085183028
0.0959286944110847
0.104924688802057
0.096833279646785
0.106567074787531
0.0851161795131038
0.116380190953667
0.104309925979117
0.101069225932087
0.103835449407183
0.0993765951985286
0.102783988613528
0.0956803763409878
0.101185829578516
0.101248017016572
0.103070814195267
0.105290603023081
0.0989878390474079
0.100736988874315
0.105379282909275
0.0999448426614216
0.110867623935202
0.112995863901613
0.0994431419137804
0.110526007613839
0.0981900835494938
0.103907563677873
0.117920865148996
0.0992775620320302
0.109328589785125
0.100031208572835
0.10660097179748
0.10322114481938
0.106876151380283
0.103224033921441
0.110976092069235
0.105848591769206
0.108579555544489
0.107319157457769
0.106923755947334
0.10765997584535
0.104036983181288
0.108226228426571
0.111480514726918
0.103184354346259
0.115083872897464
0.108517197847268
0.110906623296861
0.109386015141019
0.112165531399761
0.108035241079007
0.113467435461578
0.115645110033816
0.111809451716317
0.116766721568258
0.116871421570463
0.111919663263519
0.118781127643427
0.109286016365427
0.125006254013115
0.104375001126845
0.12507213054251
0.120919428258924
0.118957855494276
0.126603382943127
0.112816931578863
0.126886747020371
0.116593745497692
0.122879119178589
0.111474658054267
0.135107797180968
0.112114799884231
0.129857048199256
0.112942896551099
0.130724684710921
0.123877576126487
0.1265346636004
0.125597466890376
0.127339698939138
0.117707058062844
0.138956589044298
0.125720186406097
0.120734231684888
0.145557156014784
0.130918352306347
0.146303867492535
0.130702830037308
0.129129960810298
0.148129142963925
0.132207753115567
0.142798718841494
0.131071595374981
0.143895775302533
0.134672967821497
0.139375675931221
0.160035762173758
0.139472028290017
0.146642748295882
0.150143162171633
0.140245624286984
0.161245508121251
0.15176509276022
0.153050662939331
0.148229360148786
0.161978583404732
0.136931019560617
0.190066488009926
0.150125459391258
0.166901279803933
0.164625880649586
0.16875457971094
0.16711457249021
0.168948981727252
0.169502213738136
0.173017975575424
0.175247036747048
0.177399775054961
0.165421957806065
0.186325648829245
0.190104189461729
0.177219441856789
0.193314375050216
0.182335887940685
0.18235635142939
0.199931840135489
0.214714609371514
0.206873093383272
0.202259991216451
0.200314738731198
0.216253639957267
0.208017746359158
0.215386302775176
0.210134260996454
0.219045559187228
0.224728994724836
0.224901874651659
0.231916862471431
0.226932159725154
0.239769714289421
0.23685477845161
0.240918755371613
0.245715516182348
0.266689076455507
0.271769874136037
0.246652677793814
0.284681360219394
0.2649171216136
0.279878156558323
0.273822263433928
0.284601079944871
0.283461124974215
0.297568593964865
0.300074888357028
0.298483029447684
0.322841076349003
0.312507840810064
0.32389945671667
0.341777025575195
0.32884152513567
0.338341522363938
0.30557156440191
0.479061077944132
0.348224338572811
0.38593251403885
0.348477011819733
0.394313272553424
0.407453745028818
0.400511874705166
0.401848790455095
0.415417801563966
0.403057752190394
0.431625881031159
0.432332513895005
0.443535552123355
0.444632573519531
0.470783704990328
0.442016506863115
0.48385941360403
0.490811753803146
0.524808753084599
0.502857471041606
0.503952087786095
0.512606219935739
0.536187011481317
0.518645712645906
0.550016097333701
0.538702324287148
0.557320078496169
0.590086209576573
0.572662787377291
0.585150337256264
0.57826244914754
0.61657207359035
0.583764434706746
0.651116203540929
0.638718674962693
0.638471134507137
0.641697096341875
0.648563428957286
0.665703507585483
0.658589947396602
0.70069270780187
0.682183983707293
0.700768939388051
0.694885557960396
0.724898587191906
0.716213596931208
0.738320533311721
0.724371602675711
0.734993021595024
0.733900627513239
0.753198353307141
0.870177290402515
0.79004656591693
0.757832962181118
0.787410203614471
0.763415565153265
0.81973668885507
0.783259981806814
0.872407866273255
0.797357354989571
0.824256312595113
0.805226213529794
0.809569379454287
0.807516701088284
0.844181950009879
0.823276087120261
0.821690511439705
0.852441718644586
0.825216012347308
0.846463444255784
0.902361296058751
0.822836527698222
0.816215401103319
0.827630568498705
0.826160436460468
0.809390353526498
0.810114326525344
0.824414231389773
0.823757779858588
0.789240314514525
0.823133088936119
0.778845209551878
0.823576726993818
0.810545922401205
0.769235732667732
0.754693052363
0.753576117258707
0.749479374391266
0.712418385656089
0.725355094651391
0.785080202409735
0.701764458632399
0.706290956016733
0.681661447880749
0.690236946611444
0.658302562008158
0.665918867328392
0.651342788721821
0.657111111519315
0.623608444934761
0.633825778070939
0.617543451628507
0.626096630177228
0.599769541241113
0.598857562971018
0.584413373944906
0.5774410643879
0.563322103030908
0.575089909982442
0.559122557572927
0.55753848951614
0.540094847946419
0.541908794328742
0.527391153092066
0.531504528971033
0.517208106730482
0.523617217841143
0.501101021739894
0.512096480584951
0.492018260658257
0.494271836069358
0.482123709874445
0.488410185590472
0.477044206853903
0.469336484657103
0.464104175873737
0.464792062233928
0.458124586330631
0.460594774900244
0.450014777599871
0.454102567299189
0.440828730033049
0.419028660994637
0.479534946115583
0.449496905274252
0.43682780879356
0.429613542458696
0.426526598475694
0.426582205759522
0.400551967046078
0.444274936110859
0.422424193749976
0.412024293711643
0.40694829238728
0.399477311744559
0.407726401883212
0.409444302137019
0.389681902565779
0.407350741617537
0.3686374626328
0.428555992744085
0.37789302808849
0.429240784050645
0.399863418662221
0.402059106155243
0.363829602086585
0.38179049674449
0.383110609929231
0.373261657834648
0.378939624955928
0.353956326602604
0.381042819761609
0.370654404046137
0.365162215264416
0.360819388592084
0.343905860106447
0.367784714581117
0.371322152024829
0.336640411789169
0.361971903083319
0.357548795464352
0.336293948263227
0.356591255867315
0.363048792202551
0.35508708232405
0.332759316166652
0.347528054322545
0.324091173043414
0.33571661416401
0.348884057444895
0.328547942665668
0.336651722561722
0.325822666326953
0.328912574041276
0.321699848318256
0.335545528427978
0.320380263023391
0.320082342112073
0.347527241463068
0.305087572886433
0.325770635284622
0.307960386693992
0.346062809752483
0.324671308473035
0.326544304054618
0.298933380760217
0.331556104911173
0.311797791066792
0.316153114151621
0.320557636328417
0.299710225439891
0.307872259604291
0.320850462987013
0.295489816300171
0.314063502944603
0.302644470902026
0.301939394803612
0.308640137876485
0.319787880314307
0.324773377912346
0.309851607773976
0.294287433783085
0.300287729012785
0.293835030805109
0.304694896550512
0.275873426846365
0.325446578384197
0.28420316790352
0.287609810575023
0.308563353256326
0.297080091758716
0.29122812245276
0.297731276647787
0.287238630699261
0.293056483688569
0.287261205415252
0.314992221197527
0.283152657932515
0.303292924814396
0.294278264712502
0.29205658854414
0.29467620723829
0.292944176995086
0.288828493331973
0.290783662762185
0.293643264311326
0.296089313532483
0.284701155247052
0.29840725372333
0.280306682987576
0.301883029209319
0.302066647144423
0.289542930222366
0.311618912231503
0.285432500637814
0.324466497761358
0.296539590722901
0.30161909248963
0.29880538812968
0.296703382501529
0.305877923166745
0.290375063729418
0.310694936006712
0.318002722179726
0.300596238994249
0.302046458583063
0.298294488042201
0.30644206983884
0.290418249831271
0.315243247479549
0.286931047070202
0.340118742772644
0.305585007059949
0.31378919509175
0.303626567625579
0.296069713171167
0.312397246114456
0.302390092504287
0.311150485924752
0.298116728831629
0.30052458200584
0.31368896216069
0.305367244738764
0.309477835229345
0.303124459184912
0.306173936689118
0.298098954606747
0.30363967193588
0.310121678384185
0.299707899706611
0.310836982220633
0.303752952009486
0.300855527770704
0.340763250136103
0.304208558206955
0.315237735160337
0.302999666206622
0.313050352831845
0.304086809802248
0.304988652113111
0.319352734018567
0.307872998622466
0.309537365260868
0.308221592517357
0.309226208914852
0.308242970385632
0.311929929272079
0.323842653114048
0.303386335950992
0.32257739741005
0.291200961623832
0.335895189848824
0.31593878955647
0.318159439785509
0.316296659541418
0.314798763192052
0.310237841729404
0.310532351978525
0.318185373634633
0.308828198738865
0.317293433164544
0.309785852418113
0.312476493599298
0.309017100617525
0.313680153307807
0.309096246511834
0.308774908388202
0.321323235154048
0.310065961970568
0.310109468755042
0.31013232501352
0.31011811477853
0.302700644057568
0.317556333855684
0.309627241607321
0.317537254801696
0.309599312742251
0.30911454184107
0.321254905660922
0.31545346817786
0.306239374061097
0.310973164021017
0.305568649802008
0.313632195172681
0.300398330612176
0.314195274176428
0.309813756651136
0.310450603912888
0.307038031464624
0.310141947196718
0.312089715583334
0.306737425901739
0.313403179810478
0.31371570888372
0.311576438926135
0.309334615539663
0.321641721479422
0.306820903490822
0.313001294957906
0.308953368602377
0.31462702951725
0.317919083141178
0.308660967962836
0.312014834708717
0.309563484047466
0.313667241814451
0.309552525577252
0.307794845980009
0.305589266141808
0.307535107213398
0.301499079690678
0.306195765679675
0.309350565407473
0.297511784481071
0.311275544124374
0.296674825270345
0.304409796032973
0.29983584322681
0.301905192930619
0.296632404401067
0.298667388194056
0.298760469538432
0.299810460800365
0.294789723595177
0.297117365293602
0.2972543084146
0.297204335663226
0.295838671170107
0.300963346425387
0.295818981826968
0.294372937197576
0.296534126015857
0.29733502676301
0.295429054413737
0.299093594786074
0.290029234015643
0.297620959690319
0.296541883043822
0.299598173012351
0.289912802267971
0.299081650449746
0.293627269676326
0.293619396891104
0.291520384393026
0.288072854869444
0.29129349831209
0.292621330776809
0.289126778508368
0.294746350470998
0.2908961998615
0.294065366445764
0.290567375751561
0.291635106467631
0.29141723806669
0.292135768386661
0.291285441687733
0.290661895788585
0.292421114825501
0.28791999932846
0.290528296334132
0.288000603029024
0.289683928463253
0.287220664512209
0.289225003094977
0.288445917183818
0.286490639632275
0.291452638869805
0.289615179613564
0.285351352599325
0.28903161100699
0.287097331538652
0.288989359654423
0.292155844336605
0.290488505741122
0.28728405371766
0.287132129023948
0.287815686429684
0.283645340047437
0.286406169136542
0.284269318286412
0.284750245583595
0.287824080324013
0.283022115303285
0.280311964649369
0.282401549807375
0.282788363054191
0.283291159537539
0.288719469339534
0.281268562394704
0.278395472245836
0.283294313625809
0.283566562277324
0.278963912013688
0.283349597945656
0.280819833901498
0.284760960990661
0.280344170865536
0.282506895065633
0.283566150046536
0.281860391217969
0.279330769468344
0.279779536384523
0.282622271239843
0.278460662683251
0.279727823011664
0.282737755728017
0.278615496884038
0.283340993236168
0.284226799450373
0.281594886713348
0.285041736451584
0.282607175545077
0.28576266520008
0.280636622014791
0.283464629306248
0.285143914130692
0.283237487311304
0.281466436141849
0.28388923420055
0.286383002074845
0.286847555250583
0.281976197472532
0.283784798091126
0.283032105223447
0.282217408885285
0.282140261487019
0.283865871187478
0.283368955131898
0.284935169031686
0.284580342171076
0.282915883202006
0.283586156056771
0.284674803682965
0.279631195135587
0.282351294424191
0.279940974638467
0.281257256521205
0.282470762533846
0.279748001844689
0.280333614350194
0.282195773762366
0.281176675858909
0.281421678980638
0.277637349966743
0.276600038791369
0.277139248951996
0.277069222080765
0.273769561207675
0.28029800185948
0.27769372247299
0.27654033130364
0.274984353515557
0.275287117180664
0.276004991770608
0.27322715672238
0.27634141048684
0.277093580614873
0.278532687812063
0.277835483501713
0.274433205555741
0.274673838398722
0.276474805034722
0.276968341446728
0.275376452235881
0.273834559691073
0.272554476963889
0.273759754895183
0.273312657312268
0.270148307497319
0.271091741579308
0.271475236169199
0.269111589262377
0.270813432943519
0.269386984856739
0.270143388718238
0.267192726342452
0.267918372678649
0.268261071430629
0.267571038462597
0.26841146277747
0.266170086804514
0.267975856260559
0.26641812528974
0.26688681524267
0.267914716475559
0.270429155102851
0.269311058082153
0.267059455685732
0.267732485478859
0.265691447330917
0.264166260934728
0.264233909239772
0.264281520906061
0.265566784719043
0.264859410969488
0.263663194869596
0.264441584282998
0.261773734043933
0.262211506620205
0.261367878886363
0.262149981966973
0.261156630554148
0.262151899354617
0.261842649730474
0.263795136947918
0.264701835068233
0.263876401677483
0.263822202996186
0.265184245301414
0.268320156022467
0.269076340836878
0.269039454154127
0.270543135740317
0.272456276688361
0.277154094752778
0.276782586752535
0.282031565148028
0.285365025629921
0.287154899947043
0.290114483671041
0.295006763811237
0.294052215505469
0.297775900006748
0.303929053079637
0.305674150101823
0.309427863045379
0.310977278054293
0.313761167543411
0.319915256836088
0.320412957494624
0.322812188414574
0.327226123059493
0.328826979634492
0.326442203950538
0.329234589998084
0.328054909463856
0.329247438841807
0.326963855803009
0.329980532648175
0.327980826414557
0.328214576732098
0.326323950866347
0.324529669185125
0.324993797135995
0.32318898332858
0.32480699759435
0.322394627540754
0.323178235456637
0.32265507288808
0.321988187006163
0.322895354287328
0.322596367192028
0.321229574924424
0.323901887279246
0.320769586403453
0.323899598973087
0.32374739559974
0.324686846131473
0.325976182077344
0.328169366735426
0.330664646271813
0.333476816222144
0.331687457816674
0.334868701187415
0.33951841587095
0.338471186855671
0.342159029113903
0.348415982476735
0.348186668403141
0.352101187314926
0.358657761852089
0.359449705100245
0.36069625306472
0.363592957303471
0.363355382163269
0.362624129166882
0.364015736125882
0.360561822334269
0.361178789494376
0.361235954690686
0.356069168938256
0.357885945480699
0.357251260494354
0.355397951069615
0.351643619834203
0.352819036436491
0.354403933947757
0.35668796213981
0.356867634620964
0.357748130082426
0.364594975147471
0.363296782440996
0.367188613822649
0.368610681761166
0.372690268437515
0.376717516223777
0.383781347065114
0.386171408499182
0.387010419794547
0.38984522250749
0.391504954180661
0.389271532800019
0.395905332798819
0.396616683106216
0.401284290620498
0.40505892470113
0.40791434955213
0.413743062271829
0.422593466463909
0.41958387487196
0.427320409068677
0.433443661324601
0.438320752133769
0.443927271284766
0.449525838283924
0.454377263341142
0.454824600772433
0.461993864404646
0.461861815915225
0.462992292669074
0.468773422960079
0.465404610264814
0.469189884740877
0.471018486321282
0.466286001095694
0.466728043845571
0.465015657682619
0.459470159788242
0.458460411440275
0.458380168582409
0.44674343928314
0.442477311599174
0.446350262923519
0.437278203456513
0.430981694962465
0.430514429345867
0.428229025627177
0.438610737470959
0.431852140773128
0.433569991489546
0.432792266158014
0.432570291395221
0.432336174908196
0.438360245164795
0.436405031269494
0.43702325002206
0.440625182093504
0.448273777197932
0.448708483265699
0.451546742804408
0.454629943262296
0.454622147120039
0.460080710077848
0.454721893519693
0.460593896805086
0.464103092925181
0.460940743177565
0.465549765235435
0.463439254897112
0.459160160239079
0.45895134452722
0.461457948104099
0.461433730821846
0.461363526707464
0.461096170657961
0.460363063404137
0.458706148587629
0.456089319860791
0.455765975256126
0.4561677729417
0.454787348833771
0.452396131651108
0.448856902655276
0.450995073805673
0.443168516842706
0.447484557587064
0.446383538059283
0.435015699966221
0.435567790362563
0.433725933475758
0.429588097562212
0.422210705834784
0.421242873822229
0.41380819719381
0.408243470582712
0.400725179309626
0.393495842134788
0.390023986053678
0.378218041438884
0.372341145570309
0.370754590234268
0.366070716249857
0.35688764155685
0.356470089783452
0.35561434748208
0.349885568834735
0.354232090097561
0.351944473314931
0.351795670618818
0.354844464497658
0.355557497336962
0.353824305750672
0.355564565720488
0.35627544874198
0.355097155066687
0.358660307397047
0.357022667369248
0.356012197256748
0.35649750757273
0.356208579862946
0.355829207468147
0.354580931739467
0.350775116254498
0.349571955255232
0.349562235162238
0.346526682545753
0.350034098429239
0.349865699606775
0.340338458291987
0.342831901323411
0.339147949454101
0.338482324191271
0.3357826588423
0.335576700922788
0.336649929972518
0.33623098892577
0.332049942693418
0.327143210255936
0.333153929603385
0.332280191496931
0.332446662776577
0.332802649986973
0.324432569439084
0.335985114114045
0.332024159475173
0.332049220370318
0.329405105166746
0.33493871171619
0.335681269021861
0.332255743308364
0.330539142256487
0.339667329832896
0.337573081854236
0.337458812664903
0.342248692719685
0.343649128559141
0.344392280324581
0.345260820924828
0.346402775641148
0.347789633520057
0.347793082159264
0.352224547088887
0.35454380564007
0.348670799613002
0.35374541043207
0.358247629517889
0.355288195561048
0.363287139656943
0.359268114061751
0.368866914384562
0.368911033649563
0.36624296017153
0.368311627630726
0.37081444535646
0.368446132730276
0.368315876663172
0.374516332465795
0.373759055529067
0.378778830630562
0.381336736118323
0.380804509707673
0.380438216733386
0.377585183505779
0.389729588897843
0.387807883866589
0.391808684728089
0.386231362483811
0.398672266713499
0.407672446549429
0.404427255903596
0.405044779687888
0.415814830735861
0.409922430935598
0.411398799560906
0.414752344475921
0.411294857352317
0.411950232443414
0.42428611598431
0.426541710576157
0.426070497142459
0.429298406099457
0.428869229206285
0.438094081730008
0.43427702731463
0.436336857800891
0.443600373701028
0.446559686368325
0.449386892281
0.449659283632515
0.463135763977251
0.449854179750757
0.454112808893892
0.470812988883593
0.468897205240382
0.467104118605473
0.475138843895811
0.472745089504713
0.478544479178142
0.48512166600894
0.490992225930771
0.493539613671661
0.502736891386397
0.489562992239653
0.508019471441439
0.516834029839823
0.510633046987148
0.516236079812917
0.531137782587173
0.521612020854035
0.527876794700399
0.523182906086429
0.530990693612127
0.525126292982787
0.54293611056875
0.541943640314392
0.54728637891877
0.545614479567552
0.554007983200658
0.560292611156475
0.556555601049546
0.551671325622078
0.5725064354061
0.578772172702849
0.575673887739282
0.575196282268177
0.600112439185597
0.591219405406631
0.589277827150254
0.585234581930423
0.591067757434201
0.598001078297049
0.602766042067714
0.600388056705236
0.623454097881232
0.598070957077128
0.624966554347503
0.621607526916584
0.630728619931615
0.61707121967027
0.643340694519077
0.640402593883423
0.650816348765807
0.64973146763606
0.647572029496163
0.650733600361437
0.657322356500229
0.661844664130425
0.669007558891843
0.673757408729532
0.67366174123834
0.683782765479152
0.689761910383029
0.67184703699603
0.693657542188733
0.715127836719867
0.711733755046316
0.702061558772618
0.714503754722463
0.720160217556775
0.716577025337212
0.733849151214945
0.762025731073793
0.741275029821802
0.723362784311876
0.730213526134474
0.758253417547734
0.745184803757399
0.750953255381238
0.746025655961052
0.776971544234647
0.753689188305764
0.806617551148587
0.774204744843239
0.800039896175686
0.762118946404893
0.787222885270054
0.809025529679908
0.833533210783627
0.793744277355173
0.848624350649979
0.807440541292256
0.841393322276543
0.833833520959727
0.84623701669502
0.784090187016844
0.845190896292028
0.816606390008269
0.842914985047178
0.816473736947589
0.902486778921026
0.864354994547112
0.83847559094943
0.855300293870135
0.874657893224761
0.903055888046151
0.908069252716915
0.858114634515947
0.894076483315923
0.904040933114681
0.910503494115022
0.924275166524143
0.973150152259031
0.930880548708286
0.916704191741316
0.90105724536064
0.954552804710689
0.986855068947651
0.951265292684257
0.945731146383462
0.952250552935396
0.895710027255155
1.02347534731437
0.940180301969198
0.972092521543247
0.96021077548083
1.06634864880445
0.971778439852563
0.973000455931776
0.998762781523334
1.04352573895739
1.03291862321278
1.02874239443207
0.987234672589776
1.07127881131618
0.946938857149127
1.02546763895659
1.10638881151734
1.12656109840466
1.03934028856987
1.02018717415749
1.04721368590798
1.04345059507105
0.982680932059182
1.159957862119
1.07783451734144
1.16095680651585
1.01647788894733
1.14927846563566
1.0812784009876
1.11792488834976
1.15161335126761
1.08551989504888
1.06456038681976
1.1129695529317
1.24615772898248
1.07074415922897
1.05413136396586
1.16563790709239
1.19161920273199
1.20228826764996
1.16614799542372
1.15611131309529
1.04697626426095
1.2051311646547
1.10191792169888
1.47150799170958
1.23580781342061
1.04885185386648
1.15729305209351
1.56983561334352
1.08387726783777
1.12067855092127
1.14163322418155
1.15553862511761
1.19282959471696
1.3628470563574
1.21529264659206
1.20671496420363
1.00215476783056
1.43650340326681
1.45734591040088
1.24017005227962
1.28340855351169
1.49129105924358
1.53671253891761
1.15315184288945
1.13048316759853
1.94360622276015
1.31947437399601
1.38806291320081
1.24477218562896
1.35429646341739
1.15817810207835
1.51712601630012
1.22595507331161
1.25517495238175
1.12162735992384
1.57835826911668
1.39593878183277
1.41873550892379
1.19822013799528
1.77681094672546
1.40317397410577
1.66480067260332
1.26333881494194
1.3562079981497
1.25037188264991
1.44695361700431
5
5
1.04642488253067
1.75807905562733
1.31600844257826
1.30031822458513
1.32312876556637
1.50237030233829
1.748980911968
1.73184844295069
1.4280350669971
1.50764723144676
1.35540971380125
1.2229565104522
1.68927219704666
5
1.61691055381416
2.00347112558377
5
5
1.66178593904857
1.75376450096181
1.53704916201915
5
1.13404208868683
1.46584720376785
5
1.67461145779737
1.42112488892612
1.49612008983159
5
1.05079508800443
1.48034250423948
1.70632748967189
5
1.68519972700112
5
1.65917067697214
1.28787567588801
5
1.2997706323362
5
1.53988290749536
5
1.13721956161336
5
1.80181230184854
1.45097648294842
5
1.29147269770834
1.27928311160472
5
5
0.921580431285958
5
5
1.40355370722956
0.977026846007154
1.26821706296911
2.82566645588024
1.56750227455207
5
2.02533462764563
1.40549876574927
1.06486038265108
5
1.82082846940992
5
1.19082994120868
5
