3596
4000.36533379555
650.420452594757
1
2
2
0.0424866750140648
0.0298277781669568
0.0385594837346606
0.0266889622138585
0.0458689252332324
0.0353446062519037
0.0387389552694256
0.0380872204134263
0.0422319887270294
0.0331769603015928
0.0445417169301777
0.0227637600689684
0.042562134891534
0.0324960912575778
0.0436629736509777
0.0255822469876377
0.0460553560670491
0.0248730755932712
0.0330761798471618
0.0233086538285878
0.0394672459126577
0.0254754273705623
0.0449065839123522
0.0252964673260091
0.0393975950733309
0.0223283350962999
0.0370782822998766
0.0284088558173302
0.0455086496354589
0.0341990073461178
0.0440911100431958
0.0253010074521455
0.0406187828673874
0.0227851684202746
0.0445427532349051
0.0270874649136253
0.0407003898439981
0.0277856883859042
0.0422006909197627
0.0304970071357786
0.043514957084368
0.0289640711865592
0.0477754222572046
0.0251871621304781
0.0435295325847111
0.0265318140177806
0.048214470351029
0.0256692508253656
0.0473791560563998
0.0275096543645724
0.0458029155900318
0.0213727172931519
0.0505099346832806
0.0270931480825259
0.0423751868038691
0.0338849438891331
0.0404530610667581
0.0244156139327702
0.0416612517424793
0.0199373545738125
0.053264928547925
0.033859758969081
0.0405698345501498
0.0326192951812477
0.0393999681591379
0.0251728101959801
0.0473996359119415
0.0291303693185434
0.0387049685069338
0.0234240238653704
0.036267829071818
0.0317181717774274
0.0484910566240899
0.0229262321203886
0.0417270682743831
0.0240891800004112
0.039195916103782
0.0272023380545786
0.0380594975688509
0.0341737969651061
0.0468707557162041
0.0293289489572078
0.0499378024230882
0.0332673448751101
0.0390007846689296
0.0354614491310041
0.0384433731815894
0.0155954436243617
0.0476485759226734
0.0305586978258754
0.042275473681924
0.0244437404555408
0.0335933700446494
0.0220540383530667
0.0379216093753568
0.0311367799439157
0.0433620795899121
0.0267750815163213
0.0295009837422606
0.0299996284844867
0.0354301841007933
0.0170356840310345
0.0624049835001719
0.0211320128253287
0.0673743164602071
0.0329166070788207
0.0362193922012941
0.0446506940443209
0.0475577556106486
0.0235178360328597
0.0414185484276117
0.0236710707010898
0.0349771306656485
0.0265268517291048
0.0318379394034276
0.027922264436763
0.0590306160922677
0.0286282923839838
0.0406433146411036
0.0307303045973143
0.0247251199910469
0.0269253813296383
0.0621147107836304
0.0228139481517361
0.0554082462593697
0.0335581733090348
0.0249120915598754
0.043493146813519
0.0588956855732785
0.0296758605631615
0.0422448377642456
0.0290171471474514
0.0455224302459466
0.0169716696335623
0.0672322941112556
0.0313797446064954
0.0348842924419221
0.0169699700179516
0.0326936084468234
0.05208648446097
0.0520233193572234
0.0314933185895297
0.0319498287164672
0.0244602670684783
0.0666018263779016
0.0412058584005395
0.030856455278448
0.0284038836658895
0.0523991382937568
0.0229958538716733
0.036283649583621
0.0174638996209785
0.0433112289643798
0.034024859723955
0.00500968243400363
0.0324384222646417
0.0816423084718808
0.0293784719133692
0.0754253633292105
0.0308682218365535
0.0495120927815369
0.0301470955726852
0.0442989918187393
0.0229197667866706
0.049564703131477
0.0187273755871374
0.0470776195125908
0.0451695861991367
0.035194155891974
0.0157584154051156
0.0584699149226635
0.0321657036949777
0.0259495611806982
0.0514462453627752
0.0519489585343085
0.0200141280824074
0.0654591998359671
0.0382380682608013
0.034435383031907
0.0242824382936679
0.0644734393098418
0.0335980890595517
0.0411044018638921
0.0144065125269109
0.0451679080716767
0.0367998649644177
0.0521545305917721
0.0284767230169956
0.0447741916163254
0.0144830228550797
0.0424495322193593
0.0434023186245346
0.0699201587226428
0.0359288173414351
0.0513793232042893
0.000901364303865549
0.0653669294522167
0.0503896311589467
0.0549630504632444
0.0311928076939326
0.0363553804231706
0.0323373477558929
0.0450313585870192
0.0259205150176857
0.0420944304331744
0.003447703738867
0.069883759570398
0.0419946896023664
0.0422566224540102
0.0215393949796823
0.0488109167101346
0.00890816488877713
0.0729410086276398
0.0530536904823284
0.0500956042549986
0.0336813616314134
0.030519894836735
0.0389848441559256
0.0657801074750204
0.0351581577083695
0.0462621209499556
0.0322248502883856
0.0472788274602677
0.0306273267701561
0.0450875779975041
0.0380452054338266
0.047203692104034
0.0340385818904771
0.0465344118516038
0.0270629739437523
0.0462642208867552
0.0363409362175332
0.03988064666404
0.035930180316227
0.0399543403103615
0.0312410048295569
0.0642172563178755
0.0369088262569475
0.0504137125343683
0.032521294175656
0.0530504154389125
0.0356482802919058
0.0474949033417327
0.0415613947415346
0.0411402379873854
0.0255258288822281
0.0719743655860331
0.0416338446953236
0.0555647906488284
0.0253476884808333
0.0595182816293023
0.0503083116322995
0.0498768292439345
0.0374321064935598
0.0549745137648498
0.0266257761012987
0.0475917989834249
0.0536898693454554
0.0616026079479344
0.0350593484699016
0.069770058355485
0.0417260065544905
0.0533499445241864
0.0324226657960771
0.0334100895162241
0.0591772956695731
0.0531057844162662
0.0166215830588695
0.0882085592366846
0.060064262905263
0.0668769560863994
0.0306408630068044
0.0268077689248299
0.084461155076636
0.0825866423979301
0.0520585063402904
0.0648337654127331
0.0541200675301226
0.048555229590021
0.0439654753651494
0.0596247782783252
0.0381594527980812
0.0645539478935572
0.0625201570930557
0.099796498124747
0.0252375112268213
0.0833938488783486
0.0721130274331757
0.066023819152
0.0557085981696159
0.0690151452784425
0.0441782582551677
0.0682447416347179
0.0565435887371756
0.0769701669268187
0.0563069392445303
0.064860252446258
0.067176941913938
0.0799906141856873
0.0594222984913403
0.0762502597296295
0.0775590378335511
0.0767789748003663
0.0640767303219387
0.0680919179987241
0.0753248107205838
0.0721997524464355
0.0558331048694479
0.112041265493347
0.0695620258755342
0.0764166219981441
0.0833366902987972
0.0918798253810863
0.0812829174955883
0.0876085868967643
0.0796988454839146
0.0904630375948067
0.0720651323875035
0.0818901146052312
0.101899899777844
0.103995631014862
0.0860032572335953
0.103142682320504
0.0914375599928738
0.107239468115743
0.0910364171252025
0.103057329048803
0.105197297024398
0.110082020516204
0.0909484226187677
0.122391931699776
0.125840891936744
0.100423316635518
0.122354300155931
0.145770891342197
0.123888704420949
0.132893927857235
0.119735969791596
0.145053306560239
0.129752772007342
0.144176351074041
0.131103280098768
0.153541602582153
0.159029496243819
0.171739504102252
0.136387845909578
0.154884569412858
0.17360240702001
0.230212286874436
0.171865876519834
0.190926467567264
0.152669581396228
0.203742439082249
0.193494228722843
0.227399944308023
0.208115773666801
0.217173946990499
0.21107356536596
0.216249380669597
0.221326181572437
0.233256407414387
0.233257190119511
0.238182938627211
0.233827940366112
0.251994639016353
0.255849267621538
0.254541589125119
0.258475221161634
0.306331311559319
0.277910059266077
0.277656657406543
0.27450532031625
0.284692640255469
0.296778548909848
0.314914584925812
0.315194883688644
0.323225755339197
0.306046368471861
0.3482963422935
0.311280553993971
0.332061515433603
0.325438658042505
0.337856136147533
0.33449841665803
0.356398430012404
0.339531481409853
0.360694064587645
0.352220844020817
0.380475050383191
0.357713196051218
0.389381609289005
0.354088415449357
0.414390602866971
0.376463199430732
0.404666594928367
0.377417413728659
0.414426300863611
0.413140269283965
0.45628436345669
0.395875006603198
0.426565360775625
0.41997530222291
0.439231318266993
0.42298798895878
0.439450646725415
0.429701299100358
0.461037430808994
0.439645706567411
0.484844127841761
0.449109890244983
0.48200653430413
0.441039009018435
0.498124521865856
0.484084293214018
0.494241529929372
0.477482863961237
0.5134633617687
0.465645959272327
0.511024128046877
0.520474614540956
0.501967032983638
0.495524821814798
0.524728401717379
0.494933030611969
0.530678508811629
0.508066794870619
0.541903873378588
0.5311011656151
0.548368764985043
0.546546447413071
0.577811197215085
0.53265088279543
0.551130779001588
0.541041967221369
0.585295480851513
0.561997913395826
0.616371457658789
0.544709080777577
0.597098219591622
0.572495062811274
0.603490096777547
0.585792966471986
0.632242785610784
0.58072915292097
0.6174680728793
0.584335852991703
0.680925006837286
0.600700049048324
0.672831358882957
0.624732174857634
0.648828542349908
0.601993034405018
0.660751696235805
0.640091268512646
0.687527582653624
0.658973096522787
0.693786390949876
0.629306814913934
0.690472724931365
0.659146113226096
0.70939567140839
0.638883006896222
0.74543969343178
0.693660227603443
0.777828371174127
0.695353323430843
0.74268372385287
0.677851261464772
0.740588512150319
0.68995680954018
0.770315630749238
0.712633159178498
0.792418971301551
0.725639625505034
0.799647784697565
0.733179034483219
0.793544498649439
0.742821849507207
0.785029443568718
0.784534290528809
0.809175486057452
0.751925630949613
0.776229247348288
0.730610514855304
0.851521465117786
0.77966616916161
0.82730723956331
0.80906528532709
0.886756848602095
0.780149537342264
0.832574348981143
0.771290660773355
0.865088511035246
0.828379087756813
0.930187112448686
0.820764523894558
0.853112428904292
0.840155377389473
0.924121291147812
0.849618813132066
0.961908213217425
0.874792353474679
0.956332603293986
0.871829500339501
1.03788492934656
0.905478756351894
0.927134013160299
0.855093939873442
0.944753108508126
0.858762716543815
0.958050905191223
0.861710884099271
0.9944048484245
0.962503525695647
1.00588399290608
0.995316913761148
1.01760153104047
0.970892683741304
1.01056437516583
0.975879558921008
1.09361076187737
0.925777187150762
1.07529551721596
0.961502996868056
1.12277059869285
1.00220087268364
1.04578765787166
1.00811493274988
1.09070959118218
1.03608878755497
1.1701316640394
0.97117642707663
1.1009583455681
0.991302366365095
1.18066378920533
1.03487711949932
1.1536523333473
0.984460075173372
1.13136487953216
1.0721259796594
1.36945638618972
1.08618721767368
1.1942809609037
1.0365337072325
1.21980377940024
1.03364714980107
1.23017497369476
1.13748809851812
1.2421883308001
1.09654092952796
1.14300423817981
1.11590427346613
1.3250364188726
1.07591759079172
1.2486153781102
1.05966948514584
1.14860963148615
1.08739073220416
1.26728859444127
1.10686088580634
1.33133585701704
1.15414327768609
1.26504170985245
1.22826824259443
1.3481885595611
1.16853725767393
1.44146767136976
1.26654816224561
1.36456652557944
1.0970240316248
1.23886743957177
1.13681935129835
1.43934648719728
1.15071953062379
1.30749234131932
1.26238566643297
1.50550627121663
1.20807727579934
1.45775568019696
1.32271312771953
1.51338948142603
1.28546978645089
1.48889729020878
1.28412276578034
1.38720589564832
1.32826120191672
1.6109909717497
1.37371772447349
1.50855248774653
1.29403872899931
1.78624877236826
1.26403267881836
1.49618333652425
1.33397789617124
1.61969932126427
1.29339662947356
1.43040713693783
1.27820392682462
1.58107917907826
1.27246681123475
1.60749609609941
1.26538893093475
1.63101723714074
1.35192993981722
1.50476379673068
1.33117507229131
1.56528108260718
1.45177580594527
1.76341471817735
1.34297907447181
1.61706318287524
1.31350122921049
1.70246279497029
1.40628330179792
2.07349528479769
1.54454176152159
2.07597554308785
1.36260025395082
1.91683705869455
1.4590014414653
1.78908716844278
1.41445160034526
1.97981532407231
1.55496968057453
1.7682500157858
1.46124650280106
2.00934025904431
1.49400420595178
2.96976919919038
1.50506315866892
1.70471504142601
1.57761857175167
2.02850953452528
1.59764186940612
1.71848472395044
1.47440500659629
2.37813780319415
1.55916340095826
1.83711712447331
1.45991446899437
1.83604011193968
1.64541645568336
1.82727518418127
1.55867938644694
1.74773908499047
1.44468063242187
1.84961429170093
1.52246978449125
1.6942924986933
1.50323958969678
1.7501400898183
1.53183147151714
2.13177488970877
1.50181832079646
2.20035577589831
1.45904814416046
1.87221849220279
1.55031903489105
2.04789214522136
1.45110498535376
2.59550844975924
1.54798934471323
1.80159807159519
1.53407271724246
2.88924679062598
1.72302278719814
1.92292117296335
1.59085644715408
2.66970581610535
1.55798711014963
2.1258417590181
1.6238141511816
2.78753086321166
1.56385624959534
1.75766636701833
1.50053486950577
2.33682030257546
1.46290873429327
1.70819698803868
1.73516811807106
5
1.71171413142868
2.09521214915208
1.97561665961192
2.012390915353
1.54995931107311
2.36158434167212
1.60914369703033
2.26876218061935
1.54412736349839
2.34981239383215
1.65808594478281
2.52442091571825
1.8776292991017
1.87911225703697
1.80125683857828
1.90874046094097
1.54369699692656
2.01051321032729
1.73646665078598
5
1.68789475137838
1.94051659138241
1.61562407317551
1.81104183642433
1.76657276985964
1.98116973069493
1.73232328927128
1.90021343285066
1.66775309308409
1.9622559366751
1.9469701780461
2.07295884773551
1.85350184410513
3.33064564860946
1.80979512867885
2.08099786985662
1.55198918183826
1.71153530887246
1.80811331187841
1.95744281768851
1.7792863682898
2.0117090820029
1.79677476431553
2.51135116870466
1.76124781722423
2.136722071972
1.76461719120701
2.40616488565071
1.68390897589239
2.19712275023764
1.73850714284183
2.09697638628529
2.36436506052255
2.06594238759622
1.8149149922127
2.06993197194925
1.50551292189087
2.03333962353141
1.77648283877613
1.69451756596768
1.62502514921459
2.00230106289855
1.89554715238041
2.04654604995374
2.04644506998993
2.26864075791422
1.64415237276849
1.77967547045499
1.53310445615401
2.11273963586923
1.88912070211196
1.94480918295275
1.83071885889965
2.70401335051427
1.6710695021484
1.8981972280068
1.63062409463608
1.82192099170775
1.79557510315259
2.05121509357039
1.7344923924383
2.24921604588726
1.63056500852432
2.06551075812874
1.73722954767262
1.79278141057744
1.87400790563347
2.15986721214674
1.67300217128932
2.12414445064091
1.54648095506069
1.96040881718414
1.63835912786899
3.25580536942941
1.75601739644235
1.64328680697878
1.74347818085055
1.94634001313109
2.01535968866126
1.83210258631223
1.74943447789675
2.70822606411211
1.81352895109194
1.97732692887188
1.98513642944656
2.37889059355363
1.73359674135938
2.53139876330657
1.73202103986575
2.07935772534697
1.66484556105306
2.05623392754853
1.71013418621632
1.7380933517382
1.62501866614212
2.51190133809362
1.68407303560963
1.84485427256897
1.67153212740164
1.6547812381518
1.82075570433782
2.01701838323838
1.63811774160921
2.42509608625169
1.64841620325558
1.83745487873084
1.68091750609205
1.75525499924414
1.69216285981889
2.26853644067762
1.72045279721797
2.02363926552336
1.78084164042229
2.39006374206839
1.65359850798306
2.34062092552506
1.75821230380286
1.93217318732738
1.90655385829349
1.98127569148556
1.70883956968151
1.9228622214052
1.67835042482824
1.93834925826897
1.76525112374563
1.91137418773353
1.78115315160076
1.99349980913611
1.66867329772362
1.71886649956908
1.68020512316476
1.88803525648056
1.65028557953646
1.82752694444431
1.61840170922824
1.94207825119527
1.65657922964226
1.86672083378289
1.73654822618336
2.0061292232453
1.78824408576885
1.8598821462011
1.56816050846567
1.94715766985769
1.51485593019842
2.02809564198338
1.5637104807204
1.88706544815908
1.70687671440031
2.26193644729234
1.65875902215718
1.91008993509932
1.56459803587626
1.79265141993913
1.63820318502683
1.66692011709251
1.71643249351895
1.74328539743699
1.58086087382325
1.73665243559639
1.61302659463178
1.78163113389336
1.49910716830787
1.62731496112627
1.67477246217524
1.66841711795802
1.5476981678199
1.68674254422785
1.58288502836609
1.71449691508835
1.41465468330973
1.67433716419331
1.55736171137924
1.70568861676653
1.42732087292888
1.70234013406492
1.5444178493891
1.55074976079214
1.52077958549301
1.6608360018531
1.48817801249535
1.51574100336162
1.53378661177129
1.53774472055883
1.45365477866162
1.58401516390626
1.46480654156207
1.51330065370076
1.62733787277057
1.52946453829677
1.48094445821078
1.5576228271942
1.34023413770926
1.58547854661533
1.49009859229668
1.62244586366423
1.43508201605146
1.43018270442294
1.44090736974822
1.47798353568628
1.41587436697807
1.48570877922213
1.39617966192964
1.34246244538836
1.4052374215599
1.37837792973576
1.28509543776857
1.39868066733885
1.39728603436051
1.39524252465168
1.22300424998771
1.34718397256089
1.34551942231566
1.37054081291604
1.27581349505045
1.29266296613162
1.31488200465206
1.25837239365989
1.29964546048789
1.33725841498785
1.20571055735277
1.27502972003896
1.1596140489859
1.28367315971305
1.21059975398699
1.25197338714719
1.1639616663426
1.29927574954777
1.20301194637969
1.20958954175124
1.17074401416577
1.21889604678053
1.14643970592247
1.20417516144862
1.12993627467347
1.19415676913449
1.12143388626414
1.21323401096472
1.14550397842261
1.16687266185826
1.10024652583761
1.14529321260643
1.07565514784283
1.09894804651149
1.04617042446525
1.10121308296646
1.07501088987871
1.0601030689607
1.02890486778967
1.05322791171488
1.00803265611523
1.05522157183019
1.02166044976806
1.0572222062234
0.983388278720863
1.03112466064901
1.01996521488271
1.04381524488503
0.975217845383499
1.00164610659142
0.989638419167755
1.00441341075794
0.934018250377062
0.977640412212951
0.959367748723793
0.968205297684208
0.926107720891408
0.950246000525758
0.898387400143837
0.955086291982488
0.919715349396013
0.939671913526345
0.896446085857804
0.924220625746597
0.864654000427366
0.923381609332652
0.832993194408501
0.880224011964595
0.845304186509416
0.877015398012923
0.82832346026665
0.872941091902705
0.839786971463745
0.848803469392198
0.828161726776546
0.826619693261509
0.790605310599597
0.82862291006676
0.801021596359659
0.823722997689979
0.779451510400502
0.807524765964773
0.785733877032425
0.78021170385628
0.771999381010996
0.783419363540362
0.745714560546711
0.761632974957531
0.751312249259631
0.757970519419939
0.724567373961675
0.76196360164276
0.72269540755514
0.745300533503424
0.706998809963176
0.731918739724208
0.707257967323989
0.729937086576066
0.694374610109417
0.711320798709197
0.68731748714245
0.692388007721471
0.677494107460557
0.68957477669064
0.671523429273264
0.676956210435247
0.666107652464846
0.644676020699343
0.658483914656838
0.652260989054895
0.627937533333912
0.647149245194347
0.620524765608597
0.635106450551343
0.625807319617217
0.627357450071433
0.602744470291208
0.632990524957866
0.613391445065041
0.620633598028759
0.587903089749129
0.594590825451316
0.586012493086888
0.597664891406771
0.572502276748533
0.59551757028475
0.572019458275061
0.578532938270077
0.565849223607557
0.569214724584352
0.556201799384742
0.557127782874576
0.539411395520888
0.556469361034679
0.538738418634321
0.544333626475261
0.529565327196727
0.538620556420684
0.524751299962933
0.532754051309594
0.514306285490992
0.520840744855652
0.50085451074869
0.514778254281071
0.502520524820332
0.503295398421695
0.490488763353033
0.507866254939325
0.484411609717208
0.497733189970514
0.483889219593729
0.487368088114237
0.468069140876685
0.484226186044274
0.460671182219389
0.470998504807488
0.460283893958421
0.461072940439014
0.450457265057128
0.464349494814116
0.45191904038849
0.453281910085348
0.439198366247963
0.446872951406434
0.43369676624445
0.440870180196453
0.430122948209648
0.429528340346271
0.423231493702353
0.429997136047635
0.414733002503709
0.427040568386288
0.410321944933917
0.418787162642431
0.403377889738779
0.410275858731129
0.40377648280875
0.404154964379524
0.393641255298788
0.404095808022958
0.390769727465222
0.397791056044101
0.388312533551307
0.396737177504428
0.37464066135946
0.383404515371708
0.37474488745178
0.377071423594833
0.365748069747787
0.375556813211096
0.363438902773992
0.374140531552145
0.35645954714751
0.361279355343251
0.356402490498804
0.360015589622886
0.355670361331117
0.35610487572279
0.341501478200362
0.350709464534967
0.339282718389964
0.343991856184701
0.335586839508312
0.350474426552946
0.331178810286056
0.340311993274324
0.328745473371807
0.339369509795655
0.320239535513472
0.331702120319294
0.31617683246293
0.330267557822853
0.31679282964662
0.324743941879572
0.311981640441026
0.321474198429961
0.305000726014489
0.326112824742124
0.305190083348022
0.312201682446818
0.303973602206801
0.313799482709154
0.295764495543231
0.312309378603482
0.296239791416433
0.303948305510745
0.288341661860806
0.307135543516159
0.29093727419047
0.295519062198747
0.289198328256511
0.29236522340046
0.280298479255939
0.279995174565272
0.280173967492444
0.286312346877782
0.275214876127028
0.283660421886566
0.274190380492071
0.275184745322301
0.26552868789158
0.272379360105777
0.254699862192567
0.267960116222808
0.265904806087367
0.266844028585317
0.262731954736831
0.263445279585866
0.256928514149789
0.261926309423159
0.250065457596119
0.256201674414357
0.248278684927681
0.252635056861737
0.23855499175595
0.25461045351994
0.238406953115643
0.244980581871014
0.236751689742021
0.243940020976306
0.235624484426268
0.246502396443982
0.22656494487412
0.236606671711782
0.228802674652136
0.238670989576771
0.229939857870999
0.232512039969511
0.224485059646255
0.23223431947283
0.229833974010851
0.233039538480145
0.219081158088356
0.224190316021349
0.219879294476487
0.226647446879755
0.215758778793565
0.220233744819163
0.213050535929453
0.221397200875702
0.213306631071955
0.221087622998492
0.209462767732446
0.208879118147959
0.207007244206309
0.211995780088527
0.199676212359799
0.210271178272891
0.205848335726064
0.206777084899974
0.194003274284095
0.205224824700244
0.198178508552262
0.20340735347155
0.190740631061564
0.201430923312486
0.197416037089473
0.198694881663957
0.189608329321729
0.195172316386321
0.189507988811953
0.187477142414599
0.185374748806888
0.191201782547013
0.1814835228988
0.187546707773135
0.180233335789037
0.186899515756029
0.17875482487241
0.181741240542781
0.181124600220681
0.180536284542078
0.176605334666592
0.17513933824381
0.174573827298394
0.174567859802497
0.167405642637319
0.169870998589692
0.164246870284047
0.169293321808335
0.165433929844957
0.166310811135814
0.159644471597424
0.165438857444234
0.160775274739778
0.168201876482446
0.159373073455317
0.162680447469302
0.157544925473188
0.16054889541491
0.151393433615312
0.160423527662075
0.153947955152828
0.158737179133011
0.149805912779796
0.157581035891962
0.152331480309768
0.154002829597075
0.14745308325577
0.153170470370727
0.147909120013634
0.149593162875599
0.140511643209624
0.149509769817116
0.144143338192593
0.145060795013714
0.140838089160416
0.14286997022802
0.13877212767325
0.147600886528963
0.137044926119382
0.14100010530708
0.13889343515032
0.1434224451634
0.135978133580143
0.14346189857505
0.135564561335668
0.13769198420757
0.13129323360456
0.134979464138578
0.127770131876403
0.133222612485718
0.131010976580471
0.135774796404151
0.124825265565287
0.136232770206132
0.127889781332018
0.134028881424455
0.125153605493573
0.130991937022655
0.122377649983488
0.124094063885513
0.127486710617962
0.129999600784337
0.121060728035536
0.124806476799315
0.12493003607603
0.120635128434277
0.119442043092366
0.124688268107823
0.115197541078453
0.122324294847654
0.115611521233907
0.12066336034919
0.117462198890707
0.118117872810059
0.111835488126325
0.119255719363656
0.113411769319387
0.115568358108794
0.110431473432005
0.113460167565114
0.111248987219395
0.117950829437525
0.112930286097715
0.112473510964655
0.105294569666566
0.111740638700946
0.108092051678315
0.116650245418447
0.110501196082663
0.11182928612259
0.110190370391269
0.110314441254618
0.106047129983487
0.109632882728226
0.108693491838323
0.110430830993944
0.102863004346908
0.110637788068784
0.105744130706395
0.107870612055714
0.102420021291606
0.105959947359462
0.102511415129382
0.106144355266462
0.102942332636795
0.107761683538078
0.104890665813988
0.107275008964718
0.106036064179423
0.104399780699998
0.0992522205023064
0.104599399266754
0.0979219952924125
0.101563991587718
0.100416147069081
0.10306563132168
0.0984195497765298
0.103071043920648
0.0972531960873983
0.102848408611354
0.0967684699637363
0.0992429700277692
0.0957678169293694
0.0979203836846098
0.0944546425301824
0.0969995218463833
0.0933437983187166
0.0958954520133264
0.0927533911052657
0.0971326544857284
0.0924152176454966
0.0938169766291856
0.0927685718318915
0.0937154838859873
0.0919037640235856
0.0932658542971126
0.0886812767197346
0.0941734547247604
0.0910363340119345
0.0928974868909657
0.0883023957828186
0.0980996516987407
0.0901658498340718
0.0921313496201398
0.0908712900981986
0.0924636951944238
0.0873795634461119
0.09245630586261
0.0882489261658903
0.0937338846089535
0.0862892160893584
0.0917210904368937
0.0881913764126765
0.0930164856732525
0.0844064016541876
0.091036935597994
0.08695030019812
0.091143355489274
0.0899725705742845
0.0916351803325022
0.085662954057762
0.0914086633813598
0.0875464082247189
0.0903601017359559
0.0840038982502324
0.0900438118743594
0.081052903503852
0.0921838889679363
0.0845803285501865
0.0860496418641932
0.0797551025121718
0.0840499580286926
0.0848234580835868
0.0871367534195243
0.0825605801433284
0.0863403506287795
0.0788885338990308
0.0836551907804544
0.0810204983224211
0.0865287731164495
0.0807782004743762
0.0868706017851929
0.0831788442059117
0.0851728279960936
0.0803130371265524
0.0810008388683182
0.0793487807228051
0.0814929143985385
0.0802320227361732
0.0838854598289822
0.0821891495464948
0.0827282643090688
0.0779833630742781
0.0823477979411829
0.0774523364236161
0.0784376289301701
0.0784363545010233
0.0789902548273116
0.0762625936735208
0.0810905122101289
0.0752718963393648
0.0823457004553036
0.0738799943370171
0.0816757894279623
0.0793125753064718
0.0809491461996503
0.077574659969228
0.0810596829899816
0.080240678803537
0.079546040272476
0.0758634625322177
0.0822317615982583
0.0769008265433946
0.078609134216841
0.0772894528355932
0.0766760023401578
0.0782133436918224
0.0789996155500337
0.0748592939470444
0.0810081474858633
0.0779463169120922
0.0779623966354978
0.0772549868312697
0.0788975667757926
0.0745393671630084
0.0742037663814551
0.0732932190348117
0.0750494698808518
0.0755914437146198
0.0790735518813167
0.0722380102651365
0.0783931178092859
0.0769451142274903
0.0796085907386691
0.0741141063747131
0.0747220952098499
0.0722107556369339
0.0776293926552576
0.0740892051240917
0.0752683983293666
0.0698242829578969
0.0749186883374156
0.0677486994485717
0.0753922731219899
0.0730313478104555
0.0750748152910861
0.075066307213458
0.0735209195047959
0.0726949635828601
0.0764025998921953
0.07049317827665
0.0747166819104863
0.0732496732401312
0.073894343633641
0.0698724882978756
0.0742019487229355
0.071217577183564
0.0751323375600704
0.0699244567192311
0.0737544689694134
0.0691191501264928
0.0721768218134304
0.0716066479368847
0.0722227342368269
0.0721855184253008
0.0752784765291688
0.069299371136163
0.0739633512633267
0.0698359230611358
0.074491244370236
0.0711912682468801
0.073639145289637
0.0726219943582314
0.0761494668171845
0.0690910353742287
0.0738655535109683
0.0717439939577489
0.0746602053891007
0.0733405728886867
0.074327099435394
0.0695509530402942
0.0758620096685601
0.0716813118002189
0.0725769323947574
0.0730586522850943
0.0759559345595798
0.0707296326251665
0.0769523024060263
0.0711997961646843
0.0746720842573783
0.0722914496519977
0.0718841967359981
0.0692834073169392
0.0729952891620662
0.0711503553527758
0.0750503251055697
0.0696416547680502
0.0758373609018053
0.0727822449628979
0.075464846977368
0.0729419827144816
0.0726163181940203
0.0708996440383414
0.0743584799786524
0.0692580918322428
0.0722886495794317
0.0694964036314834
0.0732872769356049
0.072237449436366
0.0743502853519851
0.06626050033029
0.0728228331110249
0.070950910562894
0.0723687689927037
0.068839568231884
0.073957607209264
0.072580567308557
0.0718647998249673
0.0709336506570865
0.0752650795302555
0.0728762013758941
0.0736392838192281
0.0695368254028479
0.0749012940396783
0.0718126611553822
0.0751548340369949
0.071544075006053
0.0729408384064518
0.070343216621995
0.0783287644855934
0.0712022373391615
0.0731393809908008
0.073797001665629
0.0742999073876648
0.0740300004717986
0.0803997867349851
0.0721040720932021
0.0755924593047272
0.0743733212100671
0.0740277526449991
0.0740746764001592
0.0770310379433315
0.0734809433289416
0.0756715651478411
0.0756950209089572
0.0745569678591611
0.0750756529086028
0.0755904353430865
0.0719574554740193
0.07678224567251
0.0719022591856381
0.075638890691646
0.0771752873473832
0.0773838163574544
0.0752063799863444
0.0796195336299049
0.0740554275683423
0.0766094571735708
0.0754562985490672
0.0752150066979157
0.0737383625593363
0.0757323196484675
0.0741362119456262
0.0777891663426804
0.0749922958842767
0.0787392235249988
0.0744138917985367
0.0786665622309337
0.0754769965264361
0.0785234241451277
0.0760866756482969
0.074351665028505
0.0746866718683813
0.0782513517529944
0.0748740668146529
0.0770277608197827
0.0746521805868273
0.0771802655253663
0.076817309008226
0.0786677699742341
0.0766181889406759
0.0759273521681323
0.0746004484753229
0.0793781049797729
0.0784972001941902
0.0768668520894483
0.0791920952420194
0.0799658507977365
0.0777952859778352
0.0794829888001846
0.0773575394164518
0.0781421660506025
0.0777968482734111
0.079793536249954
0.0778938513698216
0.0827563091358139
0.0798593230938026
0.0808395731144892
0.0781285029976604
0.0805605034241708
0.0774753318446036
0.0794305104005135
0.0774111304822507
0.0841675391368422
0.0796156652460787
0.0838037743825756
0.079800019386862
0.0802339602036039
0.0810142870412362
0.0794450976214691
0.077399642302103
0.0831293339178312
0.0786241133850278
0.0820520292400659
0.0809629425103129
0.0812428954098054
0.0805095395235614
0.0824174965926326
0.0794074203471044
0.0800394873216786
0.0806027890358221
0.0837271197457283
0.0791805834917552
0.086609992082677
0.078090377154444
0.0819610782252745
0.0816232257363874
0.0824668595163404
0.083670226391306
0.0850223229405095
0.0805416703867514
0.0847765276076974
0.0836949492951818
0.0840543650408942
0.0827949808733308
0.0844985808954242
0.0795925146211102
0.0838406827264533
0.0825045056238138
0.0830816159724477
0.0818658536551015
0.0843587988458807
0.0823296153081159
0.0860000368105942
0.081980435630325
0.0837822694075676
0.0846993837111272
0.0845689953670668
0.083612813932155
0.0844199342543221
0.0865783409728957
0.083756425903521
0.0849867684824757
0.0855149335918246
0.0801980445772436
0.0855209551408623
0.0850606968736043
0.0897099665419731
0.087168867742311
0.088455882283538
0.0864212000690592
0.0887101232072109
0.0836892574668913
0.0866766772355008
0.0878047544417926
0.0863980085264804
0.086496985358889
0.0885616330015825
0.0857423907358856
0.0905205679395913
0.0891063189287575
0.0893497609947501
0.0885042586837413
0.0915476497293445
0.0863155475645157
0.0900094207513249
0.088410936387344
0.0867243760771797
0.086534722321534
0.0894698100318585
0.0875562004572001
0.0895904877705665
0.0905255224167567
0.0886412062841598
0.0870806442605125
0.0905886052246264
0.0893795501192253
0.0901482761356979
0.0894086931392571
0.0887343878960804
0.0874380986516924
0.0931663834687299
0.0892636430349761
0.0915156959615764
0.0908925144383392
0.0921536942216519
0.0911538462796159
0.0900049705322555
0.0925062111899558
0.0928825139808891
0.0924487469250036
0.0907529075390855
0.0938808746260924
0.0942273017560755
0.0927487540913595
0.092771791152661
0.0923133120172486
0.0928703321831616
0.093828422806524
0.0948696924986863
0.0941813591929555
0.0970987904465495
0.0960181565334907
0.0952926496256053
0.0953833646486318
0.0972999072845165
0.0956181427217438
0.0953131604485863
0.0940993930975489
0.0976426531978938
0.0958696981791544
0.0989472481629305
0.100382507258803
0.0951249006806668
0.0975929764531332
0.0953665493783267
0.0960266857579787
0.101976395765091
0.102179501713591
0.106455655362367
0.0996929887751028
0.0971720748600001
0.10155277212671
0.105197972390305
0.100938593999049
0.101434335626007
0.101000627164652
0.0989175697389446
0.106943509673503
0.0969290706495465
0.102319202361042
0.10438560412417
0.100884849807908
0.104015506875112
0.101077001680951
0.101545713839438
0.107508471745161
0.105406595698746
0.101475799702952
0.0974923256831113
0.106267271441791
0.0963660416693679
0.110389853558264
0.100240824679663
0.110010620376416
0.0994096913083651
0.116207102617573
0.0988070754055315
0.11740638719997
0.0985670441073378
0.117273551870658
0.0954010849428379
0.11527675326435
0.0882550755305015
0.119129738440581
0.0934483646115266
0.127811820419901
0.0888812173428152
0.128121423701524
0.0848930690798425
0.132287712781442
0.0876301781812611
0.13938391121935
0.0844404016892966
0.133143476681711
0.0825558940500081
0.145714575964304
0.0870794110881846
0.128411300420817
0.092119307052848
0.133150147469381
0.102731713276246
0.118173142046471
0.108431289678946
0.113945629973606
0.118211115326743
0.10115251610465
0.129869249302863
0.0979165730424107
0.130602894553981
0.101983372266807
0.125933767353408
0.102653221580288
0.122961901504476
0.108539015915304
0.116918352379902
0.113191425583253
0.115527096592458
0.116017573357513
0.114213497762345
0.115204145996528
0.117704985125223
0.114380240606485
0.119546151123521
0.111773385395168
0.12067245460114
0.111416362513649
0.118779238602238
0.114622764915658
0.117714777881138
0.114375491457632
0.119603251343934
0.115830240403009
0.120948736154618
0.117090307724946
0.120467453538793
0.115271106756345
0.123057960416864
0.117911360096754
0.120381901474639
0.118309658603377
0.12165934728029
0.117768543484668
0.122943666993298
0.118721202511829
0.124157583426472
0.119588962431518
0.121765230772047
0.119089769952707
0.126699241291662
0.120196009914541
0.125491936094854
0.123645284641175
0.124613158102688
0.123093410147742
0.128133362421648
0.125630489747143
0.126307062755354
0.123916580867174
0.127583330745598
0.126869988544538
0.132448144296096
0.127070470340824
0.130018159156009
0.125538952933801
0.130316367054139
0.127286966045282
0.132347525453181
0.12770102722078
0.129513928310092
0.127574198524702
0.132866279305269
0.130666161901595
0.134620491350507
0.127423681394167
0.13216092391419
0.132191017245161
0.132616854317614
0.131960225519125
0.13435198991455
0.128524978736581
0.134708939574968
0.128896294953411
0.136199958349996
0.135212982922488
0.136055226233228
0.135885634904558
0.136524583311016
0.135032532307362
0.136591756324882
0.133972916077575
0.137296392928583
0.133240903989627
0.138101118118437
0.133614251529272
0.138637423306158
0.138037935013257
0.140833159601378
0.135168138274835
0.142212653181294
0.137423069783009
0.139864333389268
0.13794002292356
0.14406539506841
0.141985330677622
0.14215502811568
0.135339493812664
0.142208817370277
0.141413129588934
0.14485000127963
0.141542787828547
0.14345635471144
0.141175508464663
0.147035008333119
0.142804456290356
0.147047579609834
0.143569373362669
0.149875192767451
0.147024599644843
0.147302198399748
0.145950100012175
0.147410376890483
0.146245473158695
0.150668122988259
0.14457253037914
0.152805419033196
0.148839074014728
0.149128803480542
0.14820355185934
0.150956300848839
0.146700483334882
0.151897238696841
0.148796917575812
0.15248003990855
0.150859830590691
0.151962531721003
0.149268055238833
0.154925875264777
0.150196919389329
0.154260758898847
0.150753061742742
0.155702413291817
0.151164040023843
0.158671892626185
0.151874122138519
0.156868548646481
0.153998360765635
0.154312408384742
0.151972017357359
0.15844632011032
0.153104796828123
0.15575286873178
0.154854348204187
0.157372926732252
0.15538092344746
0.158446382757239
0.156459864261249
0.15763179533144
0.155048721908412
0.157431461464557
0.155382078542629
0.160292222160996
0.154612285912149
0.163130428453728
0.157524130280158
0.165012576727543
0.160054207689076
0.162277095280614
0.160075656890003
0.161052567385979
0.159098532686789
0.161298445438535
0.161194738380634
0.162779994210333
0.158537047771809
0.163569385816362
0.159997237286148
0.161966730121612
0.161933245809603
0.16587300208482
0.158445754822867
0.164965227803441
0.160806770419821
0.16299114337314
0.163189149892882
0.165763077795377
0.163141842385635
0.166960412633986
0.163817303884256
0.164949536649469
0.163292829086678
0.165431800801258
0.164379082581295
0.167960930907409
0.165929084144487
0.168677351067506
0.165316285701462
0.167948716050638
0.164316040274833
0.166250953780915
0.162534723465654
0.166834186855409
0.164870073284104
0.164034999149628
0.164180165352826
0.165860849101169
0.164035511832445
0.168053157605446
0.16394275954658
0.164856663015706
0.165559066071755
0.168776078077182
0.162867921020993
0.167524754122672
0.164687672407555
0.164490358469082
0.168532798984972
0.171086332703574
0.16379276243621
0.164286446850704
0.166251323654296
0.167432688289968
0.161436679156633
0.165944057216791
0.163508312537153
0.165093579272557
0.164689322279723
0.165791954616218
0.164885939007491
0.163946734599946
0.160374841451366
0.170503616474601
0.164036272346626
0.164105774082115
0.163344892095018
0.166362004286146
0.162654025445877
0.167383527344133
0.164375162608891
0.162538453716256
0.163968803651248
0.164765065013105
0.162616999695252
0.165109336954314
0.160668184554018
0.1662467409888
0.164088205485094
0.162093256235487
0.163538730010784
0.165599196622897
0.162476763416731
0.164926443806816
0.158603081078196
0.161711205331125
0.161662128742131
0.162402528860015
0.157937734198936
0.161145758463901
0.159176757098844
0.162068555346907
0.159402075519682
0.161501638288519
0.156848526102254
0.160171246361083
0.158360959119104
0.155806592015489
0.158315909632367
0.160151456191571
0.154366331534813
0.160288128264927
0.157625183462709
0.160663450153784
0.154326360349948
0.159276889674949
0.155459234130286
0.155846644313353
0.155037764607554
0.156655929269233
0.155117022345082
0.15494016775442
0.15283903134935
0.157363424951235
0.154093956817532
0.152153857321668
0.152068670051755
0.155095500465356
0.150522913332468
0.155129644826611
0.151730429087363
0.154118354545533
0.151186776729259
0.149425314172727
0.149573629961359
0.150286211712614
0.148691149899122
0.150521275294717
0.152078854406141
0.151601667977613
0.147462602254201
0.150522560152097
0.148646011753065
0.150427988140531
0.146661803914662
0.145387961995
0.146248348227942
0.147859218867245
0.145412833576028
0.14726936404731
0.143564600586638
0.14607878004624
0.144220758908437
0.14861273424311
0.141236044598161
0.144425516837771
0.142989027688402
0.142859671208435
0.142360529394742
0.145096593401183
0.139726655442015
0.1440526095291
0.141450000586446
0.141258683539175
0.139959502209254
0.139600483288735
0.137997820694809
0.144677967274283
0.137618987678766
0.139209952654685
0.136492624060875
0.139345585614358
0.13382515754062
0.135238175439285
0.130894708096837
0.136064227030787
0.133059941194201
0.136144142443273
0.130004647508787
0.136300835073946
0.132680561098127
0.133414338725356
0.130266394247535
0.135947635492051
0.129762992072734
0.133873685673294
0.128672562830109
0.134915163900438
0.127166068414853
0.132868063629338
0.126773900879267
0.132587007175558
0.124714782828125
0.132016504549064
0.13379317462254
0.128051435267311
0.128076245139438
0.128595908004392
0.12619721326779
0.128401466477593
0.126821974144105
0.125696867409114
0.126426389269889
0.12586551996878
0.124556449382303
0.126936660955321
0.126854788874182
0.127782289163402
0.12361249866233
0.124427254731919
0.122249176251986
0.123552121650308
0.121278057153175
0.12552191978684
0.119792600465682
0.124013403222961
0.120122828737514
0.123924127052976
0.121059614023336
0.120102803388802
0.121947617928712
0.121357919025554
0.120387856494407
0.11888860670897
0.119856011226006
0.118021294758275
0.116905881263144
0.119964023224933
0.116569807851199
0.11971734566469
0.115295520174263
0.117258374745839
0.115650195614133
0.116869449074137
0.116376814924217
0.117478060575169
0.114283538802836
0.11445797749759
0.114251046364662
0.113748034676225
0.114659854209654
0.115569218304013
0.111466707740532
0.111987839652112
0.115979239576104
0.108390720500565
0.111919281979832
0.120439807346914
0.108422657553874
0.11212533404174
0.110040754866158
0.114279888069954
0.107909382267742
0.112261183437453
0.110845767582291
0.111401771779902
0.109417655001246
0.11298864266745
0.108568199110218
0.112839320457626
0.109568395429069
0.11305053076799
0.107418083727688
0.110224461939816
0.105850302262365
0.111849954709848
0.107209920707815
0.108391660206792
0.114392290173133
0.109290506273749
0.107638979378539
0.110907745765706
0.100176419308168
0.125080749230423
0.103566896376011
0.112752698020596
0.105444502817716
0.112681606358524
0.102116062553828
0.11004680184685
0.103293500188666
0.108947652994686
0.108369758511429
0.109124391387456
0.104675083782463
0.107132921504028
0.107096367719664
0.106780290024882
0.105526786291299
0.106554156036776
0.104422255268947
0.109677775663791
0.104232615705097
0.108542163313848
0.103029143558821
0.106348952076172
0.0993402995244136
0.108657950839633
0.104209756357917
0.106426880206988
0.106154653420754
0.105973179930857
0.0989721385770331
0.105514207688855
0.106289356229745
0.104160126733683
0.104452341441164
0.102399190168451
0.107745156898563
0.103508443142711
0.10482411120704
0.103415334442152
0.105254434466236
0.10217868229007
0.105138640730219
0.105681684782868
0.105001925740817
0.105112355962597
0.104840161114424
0.102759437927793
0.103924284944988
0.104886573327833
0.100283480557619
0.108392255446425
0.0961330752876524
0.114005326199384
0.106381850817613
0.111761945457128
0.10393461578173
0.111260189352821
0.105070058014696
0.105121484043259
0.104028167061748
0.106882077613689
0.105138281164162
0.107639716213651
0.103779869477023
0.104821195147178
0.10447337136224
0.104593532826795
0.104662989050204
0.105118056306138
0.103585139732813
0.104274215394704
0.107721669179589
0.103488013419988
0.10661391999173
0.100925177367246
0.112175761237576
0.100478963369083
0.110924879400587
0.0871029668934031
0.130045352689054
0.111188673571038
0.110538132039304
0.106681199585134
0.10737639209574
0.107731925827106
0.101226977187972
0.106216932753311
0.105753397571182
0.111279416939229
0.10777229528779
0.103888883725026
0.108523104122591
0.11170047537699
0.101592758698072
0.116228889516224
0.123992620958931
0.108303383598505
0.114790183097113
0.0995294929891689
0.111284043336019
0.124750697771711
0.107266757040759
0.113620299353612
0.106155768594516
0.113669876211388
0.108907312496719
0.114047561651803
0.109596224083906
0.117501222385435
0.11089315159183
0.116261258039428
0.110914232789438
0.110731327374431
0.112451375991023
0.108171846635954
0.115174945140094
0.117953210111679
0.108873499968104
0.119402069769847
0.113912006000709
0.116703680019896
0.111964609993875
0.117898476468289
0.112384391434778
0.122422355780761
0.121409508237646
0.117377697524696
0.123087796777987
0.124929668125328
0.11745288315254
0.123621414734453
0.114586483961445
0.132699776789681
0.10561135855039
0.134067705973133
0.126466426449854
0.128215435474899
0.128290182220227
0.12242757844512
0.129880264670008
0.123074999473292
0.127671334857288
0.118375314279098
0.142582141096163
0.117924312734355
0.139353640836165
0.117864016180338
0.136451868595831
0.125629374346929
0.134795563260529
0.129798478806233
0.137268653525269
0.123496808623147
0.147133450584531
0.130773745368394
0.130472426316427
0.155434713237698
0.136388417296898
0.160091628430209
0.136541172828879
0.136149042402656
0.153730941840432
0.140786859019965
0.150736137623799
0.136213992356957
0.154584278000802
0.137372110817865
0.148831047646908
0.16833246276975
0.147784464238679
0.159253743413101
0.156602094810236
0.149611051772008
0.169429412725446
0.160055981004453
0.159601415331515
0.157149060011574
0.167937203534637
0.143445677739378
0.198599694049967
0.159235492829262
0.178655606235986
0.170791912772177
0.1803175039483
0.173536158386245
0.178714125504424
0.174834537348309
0.182658686515778
0.18519660773258
0.19051376386552
0.172897855023888
0.199976479244725
0.201080521276414
0.189354704232627
0.204235813627497
0.191783480728929
0.190999050603764
0.211015401143765
0.224194290236123
0.225588694176754
0.21212789075065
0.211781169693073
0.224004535521671
0.219738319840771
0.228488151583893
0.222316855251658
0.228754011867065
0.231347680901189
0.231673467005829
0.247225121469647
0.236283462324466
0.250221299788479
0.24748752254176
0.253589070325278
0.24925766586885
0.282457577515914
0.284558572826947
0.261653818150545
0.294651729135654
0.276048674191699
0.293964947854567
0.288731902587479
0.297407619505049
0.296657970516163
0.310494612555571
0.310557309408201
0.308652907872369
0.330198201379674
0.328373424113559
0.347586564785656
0.34737203530598
0.350059145265262
0.347376624176422
0.327306197032972
0.499040360046448
0.372426750548516
0.412607372949348
0.360447147872046
0.413420115405422
0.43004096200156
0.422531326127281
0.414942529120507
0.430840916490262
0.422252698804039
0.443772716162033
0.442502853323064
0.464068410042855
0.469930030861902
0.486562343648055
0.456816061999204
0.500497251091848
0.507466778835145
0.533650410199797
0.517323515886597
0.525145069509903
0.527050336548526
0.557323344950913
0.542102059808553
0.574596942832015
0.543002346826591
0.581983103703327
0.603630387505803
0.606443932303374
0.593519455034301
0.605522867305975
0.629133837492672
0.609222295751735
0.671531177304064
0.652158017923658
0.669547864613144
0.658693819352046
0.67487813121575
0.685203313468912
0.675372173169135
0.737793909442906
0.702943164924402
0.714549533473871
0.728484902050534
0.732730030619285
0.732398557399766
0.769942358052041
0.749419370681612
0.758140989651373
0.757589223398984
0.778535138918612
0.940925014590819
0.831917530196293
0.804640080616315
0.809553969477333
0.801403410791422
0.833403437016566
0.809141119291867
0.900081942231936
0.844760832910244
0.834730604593024
0.843363542006126
0.860763027671642
0.848104641173972
0.86758731147337
0.857601701261467
0.840944646999203
0.890669309634941
0.853940122968511
0.903178890748075
0.917338297761548
0.856417507842874
0.87490302741071
0.83434224737371
0.846752104171377
0.847819773576967
0.829579602801952
0.837600421111091
0.863353872252918
0.843807176661116
0.852693858117304
0.808453662195011
0.836291875520071
0.831219658111046
0.798527201316176
0.775577962363507
0.78272316060702
0.788528240995194
0.753433275438566
0.751456695179922
0.808225539534763
0.730525737847902
0.735458628964309
0.707861660486354
0.711101950753056
0.696495217402323
0.686675943371879
0.675578324577389
0.67033000395633
0.651734616947461
0.664342368330974
0.640043901750199
0.640366228839369
0.60985168025578
0.623595549833714
0.602691532594132
0.599952205607748
0.595638090732844
0.585089544181664
0.560509468055202
0.575140046270914
0.553558774705152
0.55719990696147
0.54774075124099
0.548579454017845
0.528867721740948
0.535443771002907
0.518423046384678
0.52098739120634
0.507469959282434
0.510146029882612
0.490749330995841
0.495659810446004
0.479777673264466
0.486841789945248
0.473965447362007
0.480431484488661
0.460533869662579
0.468353607325343
0.459125300644113
0.455278259428328
0.448395371197099
0.422342487858168
0.494970259516274
0.4523595188505
0.446598093740263
0.431365424534653
0.429468068850676
0.426877637737441
0.412674492853914
0.451129314466282
0.419704431767384
0.424725901499715
0.411856456715526
0.415202672674139
0.411752411267889
0.417542729431751
0.399220817375576
0.405806234672917
0.370521454277657
0.440186525609638
0.36607254388374
0.445971150687911
0.407860322177131
0.413062036959323
0.363703852530162
0.394443868319746
0.397465609761893
0.378280961473765
0.384237546396329
0.364851278356384
0.392062403672666
0.375831364890013
0.374490674163749
0.365659099004031
0.355190715164718
0.372804149041338
0.38473970579404
0.354916955992045
0.371849106576481
0.367903310437272
0.346523909216981
0.371760470270694
0.390534804353672
0.366528321484891
0.346542834723871
0.360167170272425
0.330274770848065
0.349125830514389
0.363849871640258
0.345072839859432
0.351599600043005
0.340308594520635
0.338107167464204
0.335814028897249
0.347857846408407
0.326661482485633
0.33583155677455
0.354459454628131
0.316266349601507
0.337725168275933
0.31195983473903
0.369293407826704
0.339508172265607
0.340107655966867
0.306395597804712
0.349281485935997
0.327465797561594
0.334584626918032
0.330309738126307
0.31782640173117
0.321282817787471
0.334299349853278
0.307793100015965
0.329248726860776
0.312737945146488
0.315717679060326
0.321300951844153
0.34365610171905
0.344267198158204
0.316880009343279
0.312913489686487
0.306877403437595
0.305793486925192
0.31533106677075
0.28407357439598
0.340959852233938
0.293885918770127
0.306196083368214
0.317712220216588
0.30994276973357
0.301806731277104
0.304513694721201
0.295544312006521
0.30184351936901
0.304388298271857
0.334654052393946
0.29031636438026
0.312121937111004
0.300949035213408
0.306296315555909
0.294967063475005
0.302542562869689
0.293505448312388
0.300136131694707
0.299583963592899
0.303559320370585
0.297273592459854
0.306104075868336
0.285016856170598
0.323951810203462
0.303967954049473
0.293234515708377
0.307050688982011
0.296448430947767
0.332522143277445
0.30170318231584
0.308073403413112
0.304395685281541
0.301105652884318
0.305089247401525
0.292653772091392
0.309525857501753
0.312974937625321
0.307614685052633
0.307292136359153
0.301914234468992
0.303702472767147
0.293376943408418
0.322225354211463
0.288140896127308
0.355203111212241
0.303971626746106
0.321523395844833
0.307153019402692
0.307953565897497
0.312283059433211
0.301752009651781
0.309054279199252
0.299216736069545
0.302096051409442
0.315372589374295
0.308012459400208
0.309585868043669
0.298328538021216
0.303350929878623
0.301582783537257
0.296577271268396
0.30581093828376
0.297635769307021
0.307881157276414
0.297640770101124
0.298805363684096
0.333354811128774
0.306041352761176
0.310924589096637
0.294244112701443
0.31231159781031
0.300953886051111
0.296774302861126
0.316161384211424
0.305122831325331
0.306744485986166
0.306429834456426
0.304794961020545
0.296870747678639
0.303689315768691
0.317540763678781
0.296210188837974
0.316599288059942
0.279771578858545
0.33849930678277
0.307315983498138
0.315232572028199
0.303407692933959
0.307225081044749
0.304849947058473
0.300377337288297
0.302787793099195
0.303719897031636
0.305077841598533
0.302467587142126
0.30690402358286
0.298293003662926
0.306650417333629
0.297865771897223
0.302564720436087
0.309238653342766
0.30229640618185
0.304999267093513
0.301862613820091
0.304304266651099
0.292825304628706
0.317205351774327
0.297368110589429
0.305809901652658
0.299785810915608
0.301478591332133
0.314729517109798
0.308488213408532
0.294726640997858
0.302335485807103
0.295255307753779
0.307199683139762
0.291811963464033
0.304834662114736
0.301043032470745
0.30177479178743
0.293522484963342
0.301633031142888
0.299116330576745
0.299234126619246
0.302230679802596
0.306567219676657
0.304140696844971
0.299057314111475
0.307217958271112
0.300058328808258
0.30539060560342
0.299498437373811
0.306852416155443
0.307577576505609
0.301374543480158
0.305149901481636
0.302429088205925
0.30367608244139
0.302967083382031
0.30179259092167
0.296872189564111
0.301920626168887
0.293527261092058
0.300869887521632
0.304273806475772
0.296842785014995
0.305693630886768
0.291576201665307
0.300287837682342
0.293268628860624
0.299375895538331
0.293919446357142
0.298813254332367
0.291694500903231
0.294146770474432
0.291954046390377
0.296420673545353
0.29176265559582
0.293121556340619
0.290350328896397
0.296142933618375
0.291229257591155
0.294924255687474
0.293390781459767
0.289962182324735
0.292371847714008
0.293040728998674
0.285939628611451
0.298540929116354
0.297223379739882
0.298481622761784
0.284272421951047
0.299274706589375
0.29035919464245
0.290886863852282
0.288001079851686
0.290685870163478
0.291413953190008
0.288636343278166
0.290164496932906
0.29169806468826
0.290691741780162
0.289769244746317
0.286126279487079
0.289153972324453
0.288328112555463
0.289766899588048
0.289985977615317
0.289573939089283
0.289986783176903
0.284956447075098
0.28996635596682
0.284975449351388
0.293102762147458
0.28885115482649
0.289555697183618
0.293645614768903
0.287692064313086
0.286284748284728
0.287630081855302
0.287606060229634
0.288357646351084
0.284034267935373
0.287788631196242
0.290374283807288
0.28748922633346
0.289034880883462
0.287581265125479
0.286809390327449
0.28496296662182
0.288307201661919
0.286729007524093
0.284489237416278
0.282918276085515
0.284433739247657
0.283190085528416
0.284325698789799
0.285953255491641
0.285489103186899
0.286085340821705
0.281732373698675
0.281188463651104
0.282608536107112
0.283535087148703
0.281737332070899
0.283736082146469
0.283197865897398
0.282510251420528
0.285937284107125
0.283008274745291
0.284430623000119
0.285797426321085
0.282528714284051
0.284054378419066
0.282467986077968
0.280816966256271
0.281485606640665
0.282105359998533
0.282543857481327
0.284628341930475
0.282585366810756
0.28088981203966
0.286296145996744
0.283784790873314
0.283581081385864
0.28290553897111
0.283501250418269
0.282582504875675
0.283281396086728
0.284340942704068
0.283412523064013
0.285009927678122
0.285650048231434
0.282307934381024
0.285726055572512
0.284347976633234
0.284179631987809
0.28472573302159
0.285054891696632
0.281745371996308
0.284192427340564
0.284567621043478
0.283140328099828
0.285012441924063
0.283549662860463
0.280256649653696
0.282007877540563
0.28251008923316
0.285439370051257
0.28222471024399
0.28428327871167
0.280283457179134
0.282769650182386
0.281676570404852
0.281215904478778
0.280641330438991
0.279112164993712
0.278630501558585
0.280455268542257
0.280703742861185
0.282924286078256
0.280496795785854
0.281357134480053
0.277634000017327
0.278500446044598
0.279104625661561
0.277473677267831
0.279139295559165
0.277913818765543
0.27906219075611
0.279701165655903
0.279151799582948
0.279205753096427
0.278662969873639
0.278692602539537
0.278061447098911
0.277556954965272
0.276923844823825
0.279441701189255
0.278570982145854
0.276416125357451
0.272823781043621
0.272926524010784
0.272802827095854
0.274295615463174
0.273170707375847
0.274996060085475
0.272842483718221
0.272692920949223
0.272300229575078
0.273799709618839
0.272082267130876
0.273101294317324
0.27159122986151
0.273862766754401
0.271105121854753
0.274315168766256
0.272893715498992
0.272182813892559
0.27348671981571
0.271656544321183
0.271959729288391
0.27290574989514
0.269664756847576
0.268034263630447
0.272097279450561
0.271371051992575
0.268703372320227
0.269123117382172
0.269316252395046
0.270141878399103
0.267885538904017
0.267941623029498
0.266209012822515
0.267813892366225
0.269648321773924
0.268544698633161
0.271463794381308
0.268265467088869
0.26975763847321
0.271618631705297
0.271709215113998
0.271988244023852
0.274319246761271
0.274166010088196
0.276369783228069
0.278165060651412
0.27870382798067
0.28031698707996
0.283321979693293
0.283552749598111
0.28667611675368
0.28854099452528
0.290848747018031
0.291127330871356
0.295057937390361
0.298710203240557
0.298726269797149
0.302705562471051
0.304006633843979
0.308124808712238
0.308182122529405
0.30885510988717
0.312741901878274
0.309205267986718
0.31161937223443
0.316157507986339
0.31069217965926
0.309999106980038
0.312281133581072
0.31304290335472
0.311040362046833
0.312676361221948
0.310541441802226
0.309907746224601
0.308729402399201
0.308226482543869
0.308192155720293
0.307461242727722
0.308170262788124
0.30753718168203
0.305594050323592
0.307100609524656
0.306084562901076
0.307750852113178
0.306425677494776
0.306691826599076
0.30735283763845
0.30794295917108
0.308349381556795
0.307936443699013
0.308716541210334
0.312540401730194
0.31239499511622
0.311019863910237
0.315922071577687
0.317104740714648
0.317028132331859
0.322855804967496
0.32119828215285
0.323801356840807
0.331129343973994
0.33184463196552
0.330699469940732
0.334300326577796
0.334079013605725
0.335408023566563
0.334780667302044
0.332917918979879
0.333683865380654
0.332195984717435
0.329620425215385
0.331158509857039
0.330726557300401
0.327100408193608
0.329129019085057
0.329035032239248
0.328875707875408
0.326110109502726
0.327324870219084
0.33048797942418
0.327477021405067
0.333885994118628
0.340266512738902
0.337173195878226
0.341632659158978
0.343112227110862
0.345019346544887
0.349379476116154
0.349205305442164
0.349802866078116
0.350820334865657
0.352742557623278
0.351811344299354
0.361660598761402
0.358213237324125
0.361779551151619
0.365362929543228
0.363401406321154
0.367453666524156
0.372453234547833
0.373263410561263
0.376817045248516
0.383802899236948
0.389784107416899
0.391742860425882
0.395795855257953
0.394121966417545
0.401636687589467
0.405695708389825
0.404197599477062
0.408535582023756
0.403428884215069
0.408084859031037
0.406925624996535
0.407959972174465
0.405561324438698
0.402994543478213
0.404610378924551
0.399653157035633
0.397123277307203
0.396546368452934
0.391403596115033
0.386356975372447
0.38447694858449
0.383549335197569
0.380249989490861
0.380883224309354
0.383114541181007
0.381905532017611
0.386728775299009
0.382320353080867
0.377942536815692
0.3844844926899
0.381646738298265
0.387343373241207
0.386027058293279
0.384102014495336
0.390991039029562
0.392873958819229
0.394057303891312
0.397421471508157
0.399470820275366
0.395450775312413
0.397369591806625
0.39977203946996
0.399739914367168
0.402454506678037
0.39789054521186
0.406143644588282
0.40615735019746
0.405818422015307
0.404477353688535
0.404469297723794
0.405605262976869
0.407284924069549
0.405504077084638
0.396998501288166
0.401212694422246
0.405386845241943
0.399432062221071
0.400261885660833
0.398883912511802
0.397775803575824
0.392170322343762
0.391906372688752
0.393485935066794
0.39307786784445
0.389928297538177
0.385723114379287
0.38961844063572
0.382789203146861
0.376258111205434
0.376740958697394
0.375721018915472
0.372863389668937
0.368460888504957
0.366823142980758
0.359884753257372
0.356012585365895
0.352706384501563
0.349075300443853
0.34880130128314
0.33981371847434
0.341555854509632
0.342495505375156
0.338831222015692
0.338099506949874
0.34176965898804
0.339035733014026
0.336554781694978
0.343636130774698
0.340551800529198
0.342610838765556
0.339506858607954
0.346819869105593
0.343787913979075
0.346122556580366
0.342836946262772
0.344243917108434
0.344454459872958
0.345682539705979
0.34538262085411
0.342639389111535
0.345227723962844
0.344387803970978
0.342205362378897
0.3443628695881
0.346285841085472
0.346936410439918
0.336280553643029
0.341989475285452
0.337214434744248
0.334422262415568
0.340822610338489
0.339702949249982
0.339239031152452
0.336364019237241
0.339866289948379
0.335550805187297
0.338994969133439
0.339315353899282
0.338721575428804
0.340897212937026
0.338465328790494
0.337907091680101
0.342319945015701
0.344523662273018
0.339756960290916
0.3428399112592
0.343476257148613
0.346661622560961
0.343861719656839
0.350529591638442
0.343055476738638
0.354934403449102
0.35248811282011
0.354061176878775
0.357869249352935
0.358921852151425
0.363901317956038
0.362723550607568
0.361548155179268
0.360174546884967
0.364692418842419
0.363777886863058
0.369238969168899
0.370172909931066
0.369189511948208
0.374299140472298
0.369275074887551
0.382412701680253
0.377560907014799
0.382670453566682
0.375419413309627
0.386076926313343
0.382218371957867
0.388712576268918
0.392286226777591
0.386529039187731
0.397892102359065
0.400625782336088
0.393227233656743
0.404131657120017
0.395872487817987
0.405179321938167
0.401265948805724
0.412563367675287
0.410650498187707
0.409555853121494
0.411711406554535
0.42128916136862
0.417162356273239
0.428720567845725
0.42920003671725
0.425992261160819
0.424475150139395
0.43230608828613
0.439083439447074
0.433475035941702
0.442470831594416
0.444707253028122
0.444553579026561
0.450531651953343
0.450862711417848
0.462990072261671
0.458463105199526
0.464779665418783
0.456641547914798
0.468931887252607
0.463550452195738
0.485813119420955
0.472746148409926
0.475179989690843
0.48403709635062
0.491639391300936
0.486171739579507
0.495328654468512
0.496641631460016
0.504087341496942
0.497774964001828
0.514543012941985
0.504898763516185
0.52825706836097
0.521452881518951
0.527025855241232
0.533307762959483
0.525260817978794
0.536540953817606
0.542303269843927
0.552338448119189
0.542575530031501
0.540539308779634
0.545527042210747
0.552008859296188
0.575425584162796
0.553771277494768
0.566460095347742
0.568638964411387
0.567318075872921
0.584522692846431
0.589911106027578
0.574285905650801
0.582724274527045
0.590017520946752
0.600076025645637
0.606675475456558
0.623591779994856
0.602415766487494
0.615089055919153
0.625616283843794
0.623382250211991
0.623718021601982
0.622485705785764
0.637367707493739
0.64254017002038
0.644570399349175
0.664113661668025
0.656765010128492
0.669680866158016
0.651530858888612
0.673066769730522
0.673635822070972
0.669473758456765
0.686852410309529
0.697968320259229
0.677867792052104
0.702511816882616
0.683657952781731
0.725354964621421
0.705212656355575
0.701183428305418
0.693519085607129
0.716772693314465
0.712760130372871
0.744002984563192
0.747283748280445
0.736317338247073
0.757828083545725
0.75085965207982
0.749899322897478
0.782038855895589
0.760325281611791
0.76114978539799
0.78310022144044
0.784117322910367
0.765169654125327
0.809787323832607
0.798891384230994
0.799731695688118
0.796035242015994
0.826520980308374
0.797355016699394
0.827245617883298
0.790537658919414
0.8461503572737
0.830009995183716
0.853821775083736
0.814751798267361
0.862129322777477
0.839962742123263
0.863721210956055
0.864698568895611
0.883755492690368
0.84601227247022
0.875930363953473
0.901547462946552
0.877715048960548
0.898764702941837
0.873946551274468
0.866136637538422
0.964232501661246
0.89115587727654
0.918418242310217
0.93890592175481
0.932362806694898
0.900225639528455
0.953313282199152
0.890683321289887
0.954300150785568
0.954634338556308
0.976256224978738
0.986961970164418
0.988415965791689
0.980549391091612
0.932434747554511
0.977976489775369
0.973031692109431
0.960593650409548
0.967112626013481
1.02320650122062
1.01290483422227
0.998454245451315
1.03237913713439
0.929564496928326
1.12748655307269
0.975256243295986
1.0329855410626
1.04541993374508
1.03329411189067
1.03001027324631
1.15246891892204
1.01907123760508
1.05479556056716
1.13290664735915
1.18406254632844
1.08257925750764
1.13085005382383
1.08388964913053
1.06869406085704
1.22645427425557
1.1745047360807
1.09060254557598
1.15417005561579
1.1000736366958
1.18034372564531
1.12260291732011
1.17402659618675
1.1617836677254
1.11956662858146
1.04281191445803
1.21313050471456
1.07534886516894
1.27642239285743
1.09451119231515
1.22183147130338
1.16346836955908
1.34072278945029
1.27472140951225
1.36475998997008
1.18726320132266
1.3892453753736
1.18833222946157
1.24647117965808
1.1075873717913
1.31489328486011
1.23941949375376
1.33267840865006
1.21380533717071
1.21197264009349
1.16777415659721
1.27137346568977
1.21049484595717
1.11233080645991
1.13684154806016
1.44686960177176
1.34339612882454
1.70661995885702
1.12469451338505
1.33880749303463
1.64327235923118
1.36557207020347
1.02455920154671
1.34398336047808
1.37629241151466
1.26465567498668
1.29773422199615
1.59944756949724
1.23177965848574
1.73869302688563
1.42340916447244
1.29814632308259
1.4376207987698
2.08911314453509
1.27007983714682
1.91679013562792
1.38919125060863
1.52114178826062
1.14770256324421
1.8118879940051
1.21087825306455
1.37859387425285
1.37387141606571
1.89611694269392
1.55755134080425
1.44777873275101
1.74633227180872
2.01241808963567
1.51115777640169
2.77550705621797
1.30219978127585
2.02715712232501
1.19643416618254
2.15676537225119
1.41145597243209
5
1.22584757291242
5
1.19717066875192
5
1.59890304242028
1.34867834117587
1.25477323736693
1.49829433797012
1.8251137755985
2.19013752387785
1.28426914586794
1.58537942235413
1.2025553225276
1.49385305433579
1.27941995676028
5
1.50011479972116
1.56580576714849
1.72083529520492
1.78749829878897
1.33622050880931
5
2.05287643998688
2.33688019840449
1.55733068551371
5
1.14189377944348
5
1.45724565609194
1.28002216292253
1.20283586323999
5
1.0826322648684
5
1.6582094090901
3.42874430702021
1.66074875971584
5
2.18483850213785
1.39667536794197
1.21277344713111
5
1.53022614860145
1.56542066585848
5
5
1.18784999299456
5
1.11589119070787
5
5
0.771228033783918
1.16391280891583
1.03649235901311
1.20375328467646
5
1.77900996849454
5
5
1.37784129995717
0.933266385163082
5
2.58796230725814
5
