3596
4000.36533379555
650.420452594757
1
2
2
0.059059406750515
0.054368756148446
0.0588997680344042
0.0440462688487325
0.0659833522446731
0.055264291456815
0.0589943088095538
0.0550174998952004
0.0625119300317581
0.0548746896901743
0.0680727289361596
0.0498787853704878
0.0612193976046912
0.0480314234121493
0.0646810447493452
0.0485830191466173
0.0637270445667333
0.0529386421971259
0.0609125178019482
0.0472808954819456
0.0537703088591092
0.044377672618824
0.0682200737300225
0.0530962901316977
0.0641486982179991
0.0485347520718697
0.066687888829959
0.0534057934981454
0.0614140929313021
0.0562355860545439
0.0633157090785001
0.0511977727656124
0.0615300108323826
0.0429747463361151
0.0674263923549442
0.0538305343687033
0.0606311235489872
0.0497957896018762
0.0623661796118986
0.0518393659754876
0.0658422524319919
0.0495571471664335
0.0616222310018993
0.0520215098350216
0.0627770190183899
0.0496443218956622
0.0664251942855256
0.0472523650391502
0.0706291648700873
0.0521513186282512
0.0639989657077255
0.0509284408870981
0.071138742714959
0.0490748095079927
0.0624669016086027
0.0607918122125693
0.0638500720622882
0.0487219932543319
0.0640754468585709
0.0423441387389098
0.0720585406463152
0.0593389274451311
0.0583834226085331
0.0560570431683593
0.0656328929931038
0.0492053209497211
0.065841081518886
0.0531311483469571
0.0564573930228675
0.0499967546878918
0.058306271350199
0.0532533013280213
0.0722016884865698
0.0423118882777637
0.061503206168226
0.0503215746544333
0.0667592227307031
0.0520272189093874
0.0564673513041419
0.0540716653354373
0.070509361203774
0.054846770392526
0.0683245440074546
0.0496722446243884
0.0612123372343512
0.0589196664958897
0.0599337228039674
0.0406083853983792
0.0745889567858868
0.0501592876823197
0.0584008288685405
0.042615134571588
0.0615258837233252
0.047491334288364
0.0662805740369618
0.0468364347883309
0.0585234683429468
0.0472461455896041
0.0587105525266157
0.0505628872654951
0.0622460703647433
0.0388097931085727
0.0756567066998807
0.055196895346656
0.0867482500863219
0.0660832990911204
0.0536151833335428
0.0744298513419172
0.0723648344289689
0.0428960852625024
0.065324266819982
0.0481682292121637
0.0656646769502088
0.0455189914219336
0.0518820000861926
0.0542759853496034
0.0871339694016928
0.05275670320369
0.0639548872215076
0.0507437930915387
0.051704525789405
0.0449718180720263
0.0912480320260324
0.052983680559064
0.0707353243882067
0.0562753321714674
0.0495964775603066
0.0609403217932138
0.0790235783064037
0.0487174926319393
0.062097990016423
0.0521564814129412
0.0604268467773229
0.0398709215193702
0.08243859114984
0.0604487429371329
0.0573080530140523
0.0397132069922892
0.0566097632474771
0.0788274372551648
0.0747334472061599
0.0559442825057308
0.0556717139783095
0.0430406115388473
0.0859899633395143
0.0651802775994595
0.0534386109773934
0.0547230268071273
0.0740503114062089
0.0477290868145091
0.0595152132555124
0.0436681470480326
0.0681238477745007
0.0534489201841638
0.0325251254723036
0.0463302624828147
0.113792687731073
0.0594711176052646
0.0909953627850841
0.0568787956880521
0.0655263717038304
0.0598772601753192
0.0544259020159941
0.048556692264898
0.0616364332474247
0.0477233134798735
0.0594638615817783
0.0641097950496555
0.0491521324370688
0.041018474848288
0.0782040987348257
0.0611081618072058
0.061233286153179
0.0793273945512994
0.0792707260783465
0.0384244645697411
0.085388448606313
0.0592061551444164
0.054760234688151
0.0425626919634351
0.0806831394994501
0.0510887866946926
0.0610440833871891
0.0452061565398807
0.0642825885635746
0.0624642116806627
0.0717220265054185
0.0564628339900594
0.0624190738098183
0.0410852658492065
0.063104869139551
0.0714504162145999
0.0895916950472962
0.0599594490119088
0.0631140458764548
0.0294614346153372
0.0750270080864633
0.0772969657412116
0.0694434671445188
0.0475456428932279
0.0543856696598021
0.0517238263838909
0.0592339182478013
0.0467501304351828
0.058055167721473
0.0251706206656045
0.0755704772741037
0.0734885693365401
0.0562351813978239
0.0477162606961147
0.0584888173676
0.0426501396740836
0.0809942250523519
0.076319745279393
0.0604131516997617
0.0563954529603499
0.0517473070882213
0.0612481366208879
0.084582523319513
0.0577936724848906
0.0634196342941442
0.0536707246783147
0.0659338771956256
0.0555399639845049
0.0578556313737099
0.0570738397395761
0.0627722074113045
0.0559942734877288
0.0657646075066644
0.0503871310611893
0.0613753338165169
0.0587444086094838
0.0581553308604902
0.058977996152428
0.0609673978684873
0.0501431981948165
0.081978122171847
0.0602255739987114
0.0674665359535789
0.0589983239271424
0.070182434273812
0.0560944389628042
0.0684135725832062
0.0658497702959367
0.0631343668109068
0.0464238232555995
0.08343154486248
0.0642335310511577
0.0649469122211764
0.0512866721816938
0.0692413292642956
0.077983276079194
0.0668034050361705
0.0576503714450561
0.067594150310067
0.0541085399604573
0.0566574327351862
0.0800042185526565
0.0778343083786471
0.0513164869685798
0.0793549531288096
0.0702211790278826
0.0725634386672573
0.0598156232534646
0.0501958875466207
0.0907674058628716
0.0776030424840261
0.0332796845237394
0.103911160722034
0.0790255289059426
0.0719925696408891
0.0567752176266224
0.0363388531663556
0.111835482053557
0.109455720345338
0.0620246872637475
0.0769968377476907
0.0741048990877556
0.072597371462957
0.0646415612099931
0.0802819322360815
0.0550709799826473
0.0792239053918312
0.0868596499051319
0.110157297291399
0.0529525570823584
0.080310979291785
0.0999215168341604
0.0774616809846464
0.0747007897107702
0.0780840792531433
0.0650030066839731
0.0826848517942318
0.0824535328656204
0.0847374767852325
0.0732087175305467
0.0732968848908264
0.0915706540582886
0.0968816360191537
0.0724978687012764
0.091108000328368
0.0931540700894142
0.0901113796854209
0.0807204950717617
0.0853714430750164
0.0829592318489951
0.085680546149933
0.0624017841299892
0.117587560549167
0.0917953417172988
0.0799518422347949
0.103352681456009
0.102548500930165
0.0891754538809664
0.0988888093783186
0.0901081603422049
0.0987383687359937
0.0834554225415673
0.0920495263031459
0.110857846110597
0.116198201918067
0.0912383863897524
0.110197245484566
0.098497545801359
0.111719789293735
0.0991128720484827
0.106180276868254
0.105537130324349
0.110270575745751
0.0898195075041353
0.129972132191564
0.128625325291148
0.10424576771172
0.118979277688339
0.159755030586645
0.122408833846572
0.133681846883946
0.123049305964705
0.13324955578873
0.131345303473585
0.142942611355785
0.126462349201476
0.142611125640723
0.153939648951412
0.165065842012632
0.130676883311993
0.14706815779827
0.173050071070311
0.210710606585869
0.165819831647302
0.170237689211484
0.148681865388123
0.177447861964462
0.197164158886002
0.199110749305777
0.193588237134001
0.191566296340182
0.189521160257657
0.199304516326294
0.202857760648586
0.215975081001765
0.204667069197887
0.219181966379767
0.21459740766719
0.230439056191138
0.226627624655504
0.223046743126744
0.229904618483329
0.276033260342798
0.24923155077244
0.253081199760155
0.248756946011468
0.255840970213043
0.252276989177109
0.284953405732462
0.282448482470684
0.297613017992683
0.271656866870017
0.317612733369032
0.277746100025525
0.292665179996532
0.278977137800068
0.297764636603332
0.295499972509853
0.312259028557034
0.305162208260791
0.317997147139095
0.311426960902043
0.330814678961045
0.313026417267227
0.335752403365166
0.327459739008337
0.350658569756652
0.341166692919726
0.344534457972211
0.33233632600268
0.359568964072873
0.367756430595641
0.401284979379908
0.35846682750396
0.371239517138616
0.37067039180864
0.384404377262749
0.380003236391584
0.393603003368597
0.383445165468023
0.399872143976753
0.400789802157643
0.425873490730578
0.408622966115851
0.421562679716938
0.39317978317561
0.417111481147786
0.427458384754417
0.453746141221059
0.446615782668878
0.445856831325178
0.424022676834294
0.463606336808431
0.464272431524521
0.458552000532952
0.447682195163881
0.465627971155087
0.459631414869558
0.473981834056533
0.466903129223657
0.484683736620925
0.476647234063806
0.486567545296222
0.474528965738071
0.499051999110292
0.481060358399574
0.5147262911981
0.524316037979642
0.535542251239853
0.505629020896174
0.533918433042886
0.512858418030331
0.555376764235633
0.528147866030114
0.558447326173174
0.53547660981537
0.573006089227743
0.543843077352301
0.55325501444825
0.549697531477395
0.560693812780742
0.54752457794816
0.576811994625827
0.572117295112054
0.586659407256163
0.566568479199124
0.619208235482805
0.596968869188991
0.61520470234217
0.597332777837717
0.621476243304583
0.588450637646603
0.636205759835435
0.617758750621538
0.657298386068948
0.599651921929849
0.670564230261872
0.667906789955067
0.693373612779819
0.622435748201897
0.668647850615815
0.64697985489412
0.679118182950009
0.647110999581782
0.689593880912202
0.664924667716005
0.706072732919819
0.65309183144664
0.7131240694708
0.679763801724367
0.741300434632787
0.709723399460285
0.756058564520562
0.685882397260218
0.745336275924839
0.748491987594488
0.749834713128867
0.740463461958579
0.756888224815765
0.723662319732706
0.758497150941055
0.72060977361356
0.782319584991383
0.76554572078552
0.788447518915441
0.768152302603511
0.817448943728258
0.764506073794407
0.826212788545705
0.784249443690128
0.848617163320859
0.779396378724508
0.895240305573506
0.817860288793571
0.84574503546169
0.825723681165459
0.864641554973244
0.845794877303154
0.872127323439525
0.823164047411869
0.879479128693096
0.830455217191363
0.895543506020335
0.810515505193164
0.859450641688089
0.845459122107298
0.903429887412945
0.902728068847962
0.898222221573372
0.846257173054835
0.912039954651021
0.911057270053944
0.948772125670191
0.910949277121232
0.933421869126251
0.92160997903292
1.00930543687923
0.981961585677691
1.03486737886768
0.909167767831514
0.981604119061203
0.946831792075076
0.955120520636814
0.909245211852414
1.01875085751126
0.952937365329762
0.996965312379951
0.916410459136006
1.03145656369854
0.96464214130169
0.968828314624079
0.931485647890308
1.05757404399604
1.02691467140024
1.03865068297417
1.00232858642634
1.07110677993445
1.03566233600809
1.06542601726084
1.02926169145598
1.13796128482246
1.06665842933998
1.1165348092526
1.06937143780707
1.16852852933464
1.01880011737901
1.03144103765177
1.06134727906877
1.14564025713368
1.05175377133026
1.14729254356175
1.06864936286527
1.15592458241357
1.12224315344037
1.14266044662373
1.02401065642565
1.1774436716712
1.06550549752227
1.16908389184511
1.12859310585723
1.24498255757723
1.08581288363433
1.14140500979643
1.18291576106033
1.19556931684984
1.12617030746244
1.29130127503309
1.15119287199513
1.31175342048599
1.25074852297461
1.19958290352355
1.10735570105757
1.20049656740526
1.13482157281299
1.30318682665539
1.19129733621633
1.32788963297795
1.19474002453121
1.31730188957398
1.22026160271045
1.22865456662117
1.23128553659957
1.35590889717459
1.17913432734961
1.30507142810413
1.18301275085668
1.3322289055683
1.25100056897681
1.31464891099911
1.22363626110021
1.26578464980011
1.32595057443449
1.4310851474579
1.25483042900867
1.32642179689413
1.36207984356986
1.39372045718704
1.22212960957347
1.3215144461428
1.15507867132911
1.41741831750366
1.55080787360118
1.48592527999524
1.25876065724172
1.35913452063304
1.32444006586417
1.46741781332268
1.54230692991828
1.4196747854802
1.39044520239439
1.67719244584482
1.41254836954158
1.56225620988544
1.35222229024853
1.40950595761971
1.34315361716223
1.60099913520931
1.4314687392556
1.58091153130439
1.38930677371217
1.77153251388295
1.46034753769114
1.4562851455899
1.29697038729607
1.49594846510057
1.31296253091295
1.59334632451347
1.4033995859604
1.52843730197443
1.56381852960961
1.81721655234294
1.45448214987869
1.5086163676688
1.56308586265963
1.51867807965063
1.43850933048289
1.54582079475435
1.39051984032401
1.63827713122241
1.48732570507593
1.44451548433971
1.53652886069288
1.54929392792287
1.39887645442272
1.58846706071815
1.36469837557583
1.5355877160104
1.52612910496006
1.59377787595655
1.43061270993034
1.82491505620611
1.65184655516637
1.63474120227028
1.62765403431819
1.67946971554437
1.59680427956929
1.86998045444465
1.77699226977686
1.45042684422154
1.40227330416738
1.71487190853928
1.65105020972357
1.87847692935927
1.54023127453209
1.69737896574551
1.7187587446305
1.72055458237764
1.45404988195816
1.7127282971575
1.52336138979015
1.73367299085334
1.48896915322214
1.73780646926689
1.56136317146816
2.42077519545369
1.78609388428166
1.63932693197692
1.4241297708151
1.63011151149181
1.6047572151196
1.61270458797085
1.59345895952887
1.76666085647009
1.50522297703181
2.06182321319359
1.65914318219781
1.60811178653928
1.46822913325583
1.6511219336277
1.66656915657934
1.70742385705384
1.6716407402197
1.8491344167381
1.54848297670168
1.66973946319251
1.73469957832111
1.74079347885333
1.47216729687717
1.77862283083776
1.53594439438924
1.86206548800896
1.63246437774539
1.69350720174649
1.68189969233555
1.55634707764102
1.62684462700514
1.76180370601146
1.43973286571171
1.58217479901077
1.67757011729516
1.59590295781523
1.72948600703568
1.7549570284305
1.48836085719356
1.76225164012443
1.64286646470029
1.67014208651894
1.48088324430729
1.60383260991279
1.54428695533636
1.82668293413009
1.5174031398788
1.73378904143269
1.57825453429241
1.61441029205411
1.66745199424044
1.60695207298586
1.4314655627274
1.63828103936338
1.56206092515731
1.84218301084596
1.59259774875496
1.62093133889672
1.63855458035396
1.72794635595357
1.62695907309149
1.70007124271856
1.4166014733551
1.74269049604823
1.51341853909228
1.66142269879768
1.7247150366623
1.59179681425774
1.47691489618755
1.73844848191739
1.51872021258088
1.71034126020984
1.63403471520952
1.84773566205012
1.61925639098965
1.75523778947141
1.50893949027667
1.67696287277465
1.66662895584969
1.73606840609993
1.68073669030587
1.46143095001771
1.51099702385134
1.8027070834872
1.52637569044669
1.75051830158778
1.50475278912017
1.72974833245678
1.66339371136737
1.55474495028089
1.55856208486069
1.63347896257292
1.689462497876
1.70614852160643
1.57615843911332
1.72901006769732
1.57967612830825
1.67132054454396
1.5097924232598
1.76622385013124
1.73816093654152
1.57436117690286
1.67277815127003
1.6967942850443
1.60260121435411
1.8760902682296
1.64338405278263
1.73376583407343
1.70543872929162
1.57054581989656
1.48173530552693
1.85336000262132
1.49538551429477
1.56679143457391
1.5694566964592
1.66650511107453
1.7110326422356
1.54983552191056
1.51238256256623
1.92907295679975
1.6164122488023
1.63638812553775
1.49464929406294
1.79089192266761
1.58650206639622
1.58037769129172
1.49524734788723
1.55981237466859
1.5696634935151
1.69390943003078
1.53608200934983
1.77701776729822
1.55988793087585
1.57866268868016
1.58076219437637
1.6935605698204
1.46328812073193
1.67719819230925
1.54562570481927
1.67592824854886
1.62275035354472
1.62143581940267
1.60236565376138
1.64632176128304
1.48151036957827
1.70468966666529
1.40156782511513
1.52501836530812
1.50897198644831
1.61383010197727
1.71161852859441
1.61648600861999
1.43480201332326
1.59419492698046
1.43917553752857
1.68480979000662
1.47421965921311
1.73935992265148
1.58989661010359
1.57892741695567
1.5300049794819
1.69348852046903
1.54074815117469
1.56054670362832
1.50509274370718
1.58892410747345
1.39327715562826
1.54192030348561
1.52609612991567
1.54481200837364
1.53571200289102
1.49569121995662
1.451620870409
1.42235113209465
1.49521622423979
1.50832923529731
1.37304241878795
1.57660119504775
1.50561873869453
1.45921610805014
1.40581262225375
1.46019509997332
1.42003040743228
1.48468968362435
1.38403682766831
1.45441060334903
1.47662077178102
1.51340517131367
1.37839169574197
1.43987057304551
1.37931690958591
1.43684375123348
1.32254196640942
1.38933198427001
1.35684870760611
1.41303643171761
1.38446098140236
1.41203424278206
1.33434543575298
1.44925600792538
1.36078507402714
1.38580980062502
1.34976992347811
1.36773265906378
1.29627021481553
1.32424526619699
1.28615396856177
1.36517667105666
1.26832947436777
1.27490471463139
1.27985325721159
1.32167438154499
1.23677414750547
1.32349914607002
1.24886254766113
1.27113597555803
1.21889703028321
1.23028591696371
1.22681838164761
1.252765525901
1.19607585453553
1.25284626166711
1.19762112814241
1.27830111588332
1.18113811583117
1.22869610968601
1.1924318771768
1.23487241458828
1.13382324122054
1.16780705113699
1.20225714523351
1.21552579358
1.09889727556457
1.16231444843849
1.1223341097566
1.14661521371471
1.14465323576506
1.12824540184813
1.10762136407268
1.10613563163473
1.09797442419853
1.09153917936829
1.0863948117691
1.10088485050701
1.07324521873844
1.11113706589903
1.05564854619278
1.07977555371447
1.02118605467781
1.05792503236476
1.0489560781695
1.07212638502215
1.01582106527163
1.03750891454862
0.99810880357139
1.02455035340452
1.00366409542302
1.03458031003209
0.972569149617286
0.987904925719018
0.964611990700762
0.982517170084795
0.982685264940769
0.978966634632917
0.945479746001525
0.950483573293875
0.92090893109488
0.977504413709903
0.925232317729771
0.926059434259307
0.913359020838259
0.927436282809156
0.899421718758476
0.888581500443558
0.880504781374008
0.915497918830529
0.880129500561892
0.895299848264613
0.863371606447521
0.88424621667149
0.855042504717467
0.852977134738439
0.859570784184464
0.877496908303387
0.818745046131039
0.835742392084436
0.830011516656148
0.852272789207338
0.815463944166887
0.842072904547934
0.814977238728939
0.812502729593075
0.809265055684291
0.804219644292118
0.765626807648836
0.787376734359248
0.769098230581761
0.784858162023882
0.766403344423753
0.774595537826404
0.761392960267984
0.766579865409887
0.74555473390973
0.75105805656064
0.726165076009301
0.737194827963563
0.727636609102609
0.740861976961237
0.717926718714765
0.73630614013645
0.690754439051779
0.72013011959068
0.703627165305778
0.696232159676732
0.700921296651867
0.703256633404684
0.679711453088287
0.684130537787714
0.674881119163941
0.67965114014655
0.64792466409976
0.665284919430599
0.655954261413733
0.671966304675553
0.637096709417554
0.648339230747162
0.635722961421074
0.641081599561263
0.627864121649152
0.639750727892058
0.622710919139189
0.622948091552556
0.611606952853785
0.634493695258594
0.603183978166363
0.610629927926829
0.594522490484502
0.611246827177093
0.58265381167235
0.601792146069341
0.58625369356628
0.588157815245054
0.578950469621066
0.583250218253063
0.568616761606995
0.580063536807784
0.56686029968458
0.564866100985152
0.553249782465952
0.549069006879972
0.54250494835591
0.546479056742831
0.524659510967953
0.550676519561518
0.53956014045626
0.542990765109104
0.523119661207971
0.538468076233387
0.520077615891778
0.524211023872281
0.514225115181327
0.518516258656638
0.503714962158961
0.512495536681524
0.499452880771622
0.495194498559946
0.488546184631697
0.504319611679685
0.486097674513398
0.484103669091659
0.475022109766924
0.498724887138483
0.480446196325085
0.48282434638491
0.463511743548848
0.4825382487443
0.465764774640172
0.463483306556375
0.459474961221278
0.47146166828982
0.463518135673752
0.460384017968347
0.453355531755489
0.460425769881151
0.446784554799087
0.456033571076985
0.44798012292097
0.443490322130912
0.434922266902791
0.439078600427324
0.428507323014705
0.445656340532402
0.428588329609179
0.433932863933453
0.426787818105294
0.426754747522584
0.425099124541647
0.431432960842323
0.421807821044712
0.42151769180858
0.414321649039206
0.420651427992847
0.416562315721214
0.426385870301394
0.415176534679445
0.423369068738656
0.411527930361014
0.408049949004471
0.4101285608652
0.411654837715504
0.405270442964769
0.412462202787806
0.400424733832597
0.412709871572889
0.407568986489822
0.411711171301888
0.405374147231946
0.412713363487034
0.409875880214664
0.415304273496283
0.402976468994457
0.425242375642821
0.414490540360202
0.424122702890945
0.414717635000077
0.419528248025771
0.414401655551471
0.421322928164155
0.41536044720905
0.427319411612054
0.417433312744959
0.425463585978077
0.421453280037044
0.429788097546282
0.426177437680529
0.432644805937001
0.428959658652421
0.433505119288365
0.416618622982852
0.429570227823741
0.427143196560772
0.439667660181997
0.424432389220383
0.425282491242046
0.414610137756092
0.42335134822332
0.414560273089725
0.416823977952563
0.411568180602053
0.419027875605654
0.410990682955569
0.416565409722454
0.399055757389605
0.417372231578507
0.40532270793491
0.411255922007246
0.404090305749484
0.41874671602175
0.408921217368594
0.425151851526168
0.414900301625308
0.422866923432823
0.415164779463258
0.421460746194328
0.41365615476502
0.420168298168675
0.410078294779757
0.424148248850087
0.416483851633084
0.422595931921798
0.418174921845627
0.416016118290736
0.406187290161077
0.414221314790553
0.404102608809438
0.408075671943838
0.397401649237452
0.410023803944309
0.394279351084917
0.400020241926756
0.377489677727334
0.38918981691111
0.377936959968656
0.378696728032148
0.362432450610902
0.374521672127219
0.359170768804506
0.363621844951756
0.354327103056688
0.362255268850269
0.351479716565887
0.350782968120357
0.343897931104356
0.348099887137158
0.331467771111709
0.338254776054926
0.335094393874679
0.335891652984363
0.329340773705728
0.334354208748809
0.323859063473869
0.331121553213567
0.321041820034247
0.325334141207121
0.318876131506261
0.318447532886775
0.316077356248996
0.318910913144167
0.309262870240571
0.310706074744572
0.304842015526529
0.304886853948888
0.302300793252988
0.30175451926467
0.298547286541673
0.299810947942416
0.297801361393887
0.301733113161349
0.295163495868441
0.298654353875433
0.292665374483718
0.296954687183107
0.293893715172091
0.300575745251898
0.291165817002009
0.305042786744585
0.295335385174536
0.297056121748183
0.295304067355678
0.307158686130887
0.291993921915209
0.296862615083319
0.294449240463593
0.299324006367906
0.28390344773531
0.292841733123446
0.286841119589639
0.291560372884474
0.289008147472482
0.292821945134317
0.2898565557665
0.296724041875052
0.290132445877674
0.292589946611783
0.287667701520803
0.293509871964284
0.290997634463146
0.288196918251533
0.283779047741751
0.290111064599433
0.277219618554634
0.281287603239094
0.272866685403538
0.278783859272067
0.264502275972426
0.269112524731268
0.263913793576975
0.26550546203136
0.257909267422623
0.262196983553257
0.257407455134667
0.25871523279407
0.244410872639626
0.246822649583654
0.241336603624299
0.238471950139934
0.22898064348518
0.233828199280358
0.227261517172455
0.229891806317197
0.223606023544096
0.223236403178046
0.214518708082636
0.21834663985152
0.211721507375085
0.213625590477969
0.21184772275308
0.211891922008499
0.202911999909238
0.211803417122588
0.204919191432836
0.209608140092496
0.202512008608571
0.202714300212376
0.197520467059732
0.203425237742417
0.194262470958876
0.19581872107993
0.192616985852838
0.195944461626631
0.189179015008618
0.190697886850199
0.188443818540787
0.190273910890478
0.183959057875112
0.191590216792253
0.181195318037822
0.185026325253131
0.177326274265583
0.18208160356745
0.177982068465878
0.176189237805815
0.175584390882568
0.179072857743412
0.17119147216852
0.17499567472407
0.168307597148879
0.171819219107389
0.168441439504201
0.16827170223323
0.158364009173427
0.170602342923195
0.165529288016973
0.164387198931795
0.161196987185082
0.163872022213623
0.155163078062305
0.161373924914302
0.155970758764596
0.157342820340964
0.15523417475129
0.156127263203962
0.155590799937788
0.15878746242978
0.151348863459516
0.152813580977282
0.147537715216627
0.150955765133981
0.147363025562619
0.154378961655722
0.152788921260971
0.152123167343944
0.145414069841876
0.150665992104729
0.141204708597584
0.147851075405472
0.145895807963535
0.146956578199768
0.142801467161481
0.142290025702667
0.139455177376456
0.144088268670768
0.142452874201294
0.144491534496826
0.137614283017857
0.138123268399594
0.136952665261809
0.141345522301416
0.139388106741299
0.137565637220955
0.134170780560834
0.135378295627347
0.136784059119442
0.138255976855085
0.131948552858334
0.134813706181194
0.129687555629814
0.134347253805021
0.134264460917446
0.135622474035299
0.129042518728875
0.137371858633392
0.127615895551674
0.131544052481206
0.127632926040774
0.130155896165619
0.125508009050718
0.131468754009227
0.125315022471605
0.130330371860043
0.123325173472143
0.127607520746009
0.121379290210274
0.124858382299853
0.122964492497374
0.124499151961404
0.122639680632754
0.121015640090358
0.121064601943043
0.125140398325548
0.118105431248251
0.120739516138167
0.120696345549428
0.12547746521858
0.117025217379471
0.123713878540823
0.121686516475723
0.120628131997076
0.115308531910671
0.117605045410435
0.118707359136486
0.119843602293975
0.117178299541044
0.123969822107886
0.116675077335129
0.117757699745562
0.110867599170643
0.115950682811698
0.115192013873381
0.119170136242532
0.115891135002856
0.116764694240846
0.111605622929055
0.117930202499419
0.1184699375138
0.116895039119435
0.114012448652258
0.115677604311939
0.110163459113622
0.115681115883671
0.109987781831916
0.114141029548994
0.102850094603605
0.110550769351669
0.108396944508661
0.113109985106681
0.110891569941938
0.110990941913391
0.106846406820983
0.113098954447536
0.106459236301632
0.10750015687692
0.106139664307807
0.111216802518798
0.105646327972575
0.109864400779094
0.104484005649169
0.105310271621416
0.105624576214071
0.104065542373829
0.101673597679705
0.106902015497051
0.100976135981357
0.103610449630435
0.100738907581198
0.104681512217087
0.0973490139830987
0.101655908471208
0.101039728795345
0.101855044654619
0.0976647557924907
0.102522473267457
0.0993191119855592
0.10240603808168
0.0982076739601195
0.100588809875845
0.0970069880374546
0.103828205035583
0.0987736318551115
0.101345193733592
0.0989127086854242
0.0975432364868627
0.0968007748996664
0.101282671469649
0.0957696175654745
0.100283331670697
0.09573246837507
0.0945760814082003
0.0972538249234811
0.100861290082729
0.0941187532581296
0.100539500508651
0.0968245054760496
0.0943422368746799
0.0959191362072707
0.0985365524746145
0.0927051167147198
0.0955869652493886
0.0931029680194833
0.0947248336040737
0.0940997207558457
0.0975246741085295
0.0900828603913527
0.0923950351266301
0.0927811638155222
0.0942311473532679
0.0902750910810804
0.093333548153462
0.0881836747379877
0.0941335395486475
0.0890105492159547
0.0889506653452909
0.084930621858859
0.0899857689053589
0.086437380352223
0.0902642087679743
0.0893470724035871
0.0921870843036862
0.0919322854363184
0.0885183956012278
0.0884461652808808
0.0920828286394169
0.0860254983347861
0.0885509988974864
0.0870900916936832
0.0877373924993445
0.0835777242730075
0.0897482129290639
0.089659273006474
0.0916240934127921
0.0891104884033342
0.086789528177446
0.0867581810973156
0.0878592314270772
0.0826474035699575
0.0906286573766813
0.0855769856634162
0.0897865268925065
0.0859136538878998
0.0881760915636207
0.0869528198539405
0.0873377939782082
0.0860515767159908
0.0873126664407298
0.0866532679169452
0.0907779812044338
0.0836141338679063
0.0870243990000968
0.0875016729552365
0.0883602375406587
0.087077643499335
0.0920904243590634
0.0856187283926398
0.0875881061574946
0.0844490094172738
0.08607268343984
0.0841578835113703
0.090558841494955
0.0883566305832131
0.0878708379658012
0.085552863792574
0.088779262685158
0.0864151983104047
0.086096478165178
0.0847201587247467
0.0875528758340721
0.0841730367914153
0.0858073404297692
0.0842372318339806
0.0881124445349858
0.086276013601155
0.0876170226327441
0.0822803753701855
0.0855366442228416
0.0834247525024818
0.0874452769138718
0.0795147013572816
0.0832756688579499
0.0810018821146367
0.0853740644432556
0.0833106510314181
0.0854835728783474
0.0791465836294874
0.0841702275303434
0.0837173147777002
0.0835308514766683
0.0815097728515441
0.0856283397866844
0.0842687338023768
0.0856643454049395
0.0804158035708996
0.0857554408750043
0.0842559813517529
0.0865325619193484
0.0840730001845735
0.0873566490080391
0.0826998505720246
0.0854182253622612
0.0835874549931031
0.0838116665899488
0.0815746722168569
0.0878669541541639
0.0834665455939592
0.0852643127560018
0.0838356338439348
0.086748257057352
0.0854176259537224
0.0896570649808681
0.0819663610603591
0.0867914827937128
0.0863255793469991
0.0864942141673442
0.0842964604398915
0.0870629330188448
0.0836282192654554
0.0859590155786631
0.084259450135952
0.0862291950342934
0.0839403780537087
0.085650240529306
0.0840764824909864
0.087096937161992
0.0830883005506327
0.0858724871419551
0.0855009822093452
0.0878133318211372
0.0854871029583696
0.0877163352634398
0.0829550112437978
0.0860024784614167
0.0861355599136153
0.0869150930371821
0.0843795913882182
0.0844417395797227
0.0818770409704446
0.0876045631385104
0.0855413890520519
0.08879103849199
0.0860827491219861
0.0857348578917441
0.0845674214504941
0.0851224237885628
0.0846483437816115
0.0851755571952849
0.0817621281045704
0.0865715466054856
0.0814570149270844
0.0852902446732443
0.0835869268120464
0.0884974858707027
0.0844329374267074
0.085448196719383
0.0868481643290807
0.0835845280377604
0.0816734897641656
0.0867820907630587
0.0834514547113255
0.0883993425891407
0.0857729228597647
0.0877826450961323
0.0843383415451182
0.0853660802741926
0.084848876406917
0.0867309625559136
0.0834989636282304
0.0856025989708272
0.0841110423126163
0.0881702228318332
0.0884695507971438
0.0866378983525164
0.0838343842844964
0.0878994219812349
0.0857510043214439
0.0857309048011969
0.0858843282801221
0.0871428493508389
0.0852338036122847
0.0865501672431454
0.0835558092003967
0.0855879512513567
0.0852511559328508
0.0871005539213676
0.0846357837389438
0.0864489405291859
0.0846258335820862
0.0862535657286533
0.0868594693219318
0.083843655030971
0.0815074589217251
0.0869248223066643
0.0817155237143455
0.0840505519371444
0.0852244418763173
0.0873545401641384
0.0806944414526809
0.0886136125286889
0.0841950562606154
0.0811926932547289
0.0857035356913792
0.0859524371871954
0.0836634928406483
0.0886154440450947
0.082953781972772
0.0852619351207354
0.0848130854357483
0.085645561003658
0.0826330912767648
0.0865917116716563
0.0802193825975332
0.0827146538323948
0.082225886023378
0.0851901410585522
0.0840142240689845
0.0874911910813521
0.082438889050223
0.0873402917443393
0.0829397388862696
0.0845223319848049
0.0860021580522524
0.0861266212874057
0.0851217118320533
0.0882390501008037
0.0848419648080435
0.0853734014434071
0.0871630118119083
0.0871806679073133
0.0825560275309136
0.0873610055019474
0.0856584681691296
0.0876786721571901
0.0860223005659962
0.0890824077955965
0.0861961276456716
0.0900595359258392
0.0840405679586064
0.0870374578575376
0.0875229428510079
0.0848682580003253
0.0868476732544407
0.0904334025595211
0.0863660904316161
0.0918904006608947
0.0882847073774078
0.0899610821532021
0.086838297956781
0.0923905831534925
0.0862295428594935
0.0873635455904062
0.0871173670235198
0.0868793057710653
0.0867351736642261
0.0895121534700605
0.0875102797056485
0.0897113071613838
0.0896570581784771
0.0883320706865851
0.0868697305392497
0.0911085309843374
0.0870656789786683
0.0877672655806881
0.0856562205033457
0.0878568563417176
0.0867576888875062
0.0902629316921449
0.0867212934462221
0.090061072006283
0.0901642226642495
0.0891237220247322
0.0890701167624239
0.0877412796561143
0.0886246002922106
0.0904210556603021
0.0876010016756076
0.0904327554621513
0.0897159002731275
0.0933073991140394
0.0893709408671877
0.0915098267098561
0.0893402003470919
0.0908749641555892
0.0909612466679758
0.0909206663967866
0.0908964351328561
0.09605467037198
0.0913936232830538
0.0926849430534927
0.0929268553287405
0.0941470932348761
0.0921893068603145
0.0938298177116833
0.0889508805442726
0.0947356246366296
0.0938507644797486
0.0952006289909683
0.095728737197335
0.096446790199747
0.0913029173181875
0.089327933799909
0.0902558344808308
0.0958057240809038
0.0990157720487719
0.102882940682504
0.0926647568401858
0.0939284543759463
0.0921064980802338
0.101477382317946
0.0963694394555489
0.0954348308821027
0.0954864963769105
0.0995276260205748
0.0965692800738796
0.0922958664449372
0.0937151944615584
0.0995100161580765
0.0965637020646442
0.104058907068093
0.0881690512426086
0.099550239144754
0.0990051490192799
0.102562061513688
0.0928946853077591
0.0969981887389135
0.0996953027380568
0.0942943885863887
0.101276361180384
0.104829903599998
0.0999587144605108
0.101144391885529
0.103294484519257
0.0988049047578036
0.105265318984294
0.0987434885314039
0.103701162413978
0.0921111984321559
0.0994637406965955
0.0887378569338468
0.103543177724572
0.095381510072934
0.112505101576718
0.0923725761186866
0.111002301019433
0.0857607941271198
0.112326955464797
0.0861867512559164
0.12407368609672
0.0864131923144086
0.119471852104687
0.081413445167602
0.135119368449314
0.0838937710108991
0.124298443060837
0.0816879770233387
0.131851881507811
0.092584934567422
0.114247883854661
0.0932938841806862
0.11199210039179
0.103719827315842
0.103709476665139
0.112381284561011
0.0985548381082103
0.114506696245566
0.103560647033024
0.113066160345042
0.0994169441603176
0.114452036078916
0.103032642620937
0.106674700266219
0.10615734680831
0.107577175836542
0.108535433425134
0.107591688395897
0.106455893916693
0.109927122340134
0.106391036621249
0.11041875532566
0.106488878702759
0.110119897246189
0.104920887594194
0.107705633567645
0.109713505364311
0.107179152527522
0.107462316500778
0.109302111016369
0.109039132738904
0.110882013569514
0.111602185768138
0.110782100962844
0.107668039983916
0.111065186281487
0.108854870615036
0.110016320967045
0.107509432656978
0.110430938008813
0.109836372886182
0.115506092423613
0.111193253116512
0.113562574757348
0.112977367522349
0.113322718174853
0.113450010052089
0.117383173711578
0.113578085285613
0.114475596078663
0.115822795604603
0.114974474208838
0.113264559496538
0.117282123898065
0.110824090003951
0.114221323275906
0.116819705148411
0.119035545765363
0.119561410649979
0.123354653091168
0.118088740699633
0.12026816847895
0.117401404000238
0.117896484753745
0.117057536606085
0.118832452866563
0.117488260252781
0.118247162732192
0.118974199020774
0.120773842687211
0.120673355536755
0.122537027412065
0.120188137573732
0.124024613352654
0.121785473741518
0.119534570373945
0.118816154821684
0.124581712567518
0.119230203526345
0.122941457969728
0.120696322378916
0.122742372694082
0.123429104941545
0.124504259731823
0.121911042378387
0.124800554432466
0.123963220572518
0.124154859959086
0.123357373952863
0.125164084082531
0.121638877812833
0.126659966301839
0.126017168883459
0.126781072867715
0.125629421322353
0.127534136787387
0.124688118763017
0.131442881740828
0.124439990380669
0.128656715967534
0.128191872613322
0.130469831970492
0.129923795082826
0.130012184963723
0.126394970985228
0.131019618414865
0.128649749515368
0.129636165795738
0.131632544443763
0.130635736887367
0.129949399293076
0.13467527147194
0.132069796355748
0.1332715200075
0.131210257214206
0.13363656536565
0.132480083655387
0.133412001141434
0.134049889317716
0.133562128212473
0.132841028338
0.13411091293429
0.131873595790305
0.136393165980237
0.133802317075876
0.137087518010712
0.138289054273073
0.137229877524591
0.135522240991646
0.137457917352378
0.136922084544408
0.13714810189023
0.136163052862551
0.137183560163634
0.136210556984313
0.138705995531856
0.137889223110126
0.138745203836223
0.140888866368821
0.140248128526191
0.137742151611447
0.142733394520375
0.137431983459392
0.139956182563901
0.139803580407873
0.138282019450101
0.139543971352681
0.143350688990171
0.139325184731866
0.141904833425076
0.141588242757204
0.142905001907652
0.141972831233691
0.142731742423085
0.141304027551736
0.144783727395227
0.141026943271135
0.141357736595475
0.140881369344688
0.145834664431985
0.140562772227175
0.145523805883351
0.14436794363041
0.144483060916608
0.14589560113098
0.144392699772718
0.143590861781748
0.147192849437429
0.145865570195708
0.144256074730134
0.143796422687451
0.14598260420053
0.143937639184938
0.148032188734508
0.145012194590371
0.147875489208474
0.145827907472548
0.149503722501916
0.143640472492823
0.147785806578323
0.147521200875717
0.148306704252338
0.147825606903073
0.148931493383066
0.147890289678168
0.148255973038992
0.147161508594464
0.146806191424405
0.147353843887239
0.149222893150073
0.146920750717834
0.150619734176799
0.149155693046662
0.149118132890737
0.146956668226384
0.149275992188292
0.145056951378298
0.149211311877063
0.146112220327227
0.150341277754185
0.148900858865089
0.148092310346336
0.146217817794455
0.148788679066479
0.14686316332374
0.150669158188127
0.14697801943753
0.147723217350321
0.147530182077218
0.150121303977252
0.146591158051101
0.148322998391022
0.146599352885659
0.145914204921014
0.147091077901578
0.152498896639919
0.147394698135389
0.151525656237149
0.14827536813958
0.14861781163033
0.145168056779966
0.148682267494293
0.145925562683954
0.146877705406113
0.144618201634349
0.146570160991705
0.144010469406195
0.149124681576703
0.145479483740576
0.15036360161643
0.145593735664539
0.146431674201549
0.146540489855121
0.148380038120768
0.145811196938061
0.14825705057003
0.144826166156601
0.146069117856164
0.144342154232447
0.146636666922927
0.143312942059833
0.147377052349771
0.144557146581214
0.143723674355408
0.146431578934922
0.146345386209088
0.141719068432381
0.149104197700347
0.143235683921149
0.145917167550355
0.14262363503548
0.144261433739092
0.144395451913592
0.144883145972729
0.141363618206043
0.14383267013017
0.142670077573373
0.142646068835477
0.142892407780402
0.144791697366844
0.139516952552941
0.141251992189471
0.139556465348358
0.140013839551739
0.138026811858672
0.140839729685491
0.137810852942771
0.141525033021552
0.13826558200047
0.139091847263429
0.137907856855746
0.139327590433321
0.137802760459452
0.13905015125614
0.135982445475734
0.138316602349792
0.135847975193382
0.136400375755527
0.136246524080848
0.139430693564951
0.137328366682032
0.135466051673684
0.134872181279339
0.137688094868877
0.134095891398618
0.136491768189513
0.133629258325041
0.137797355681698
0.13441469672749
0.13051984544725
0.133466167777404
0.136327014147245
0.132965637335976
0.133423401902694
0.133378796305691
0.134073867278155
0.130124664165435
0.133787046423442
0.130266761864312
0.13290358640844
0.128954537922508
0.131553139665303
0.129358124893748
0.128034725214114
0.129332280688967
0.13127060699357
0.127987280435821
0.130524147692918
0.128686713071951
0.131986718440335
0.128326020363507
0.127843698944249
0.127448980977231
0.12571384171056
0.127466596047367
0.127313148557563
0.125307521581535
0.128352639431405
0.12490370908657
0.12446886345092
0.126736096473059
0.12397186632801
0.121980954316198
0.129652444739627
0.123241426058318
0.123042143945283
0.122107389909732
0.122800966418436
0.118780652766964
0.122389958981718
0.119354970037451
0.12192801414211
0.119141850938958
0.118403275340849
0.117873434158612
0.120397994322142
0.117938992779347
0.118402981196222
0.116072693799736
0.11945592004191
0.116174366013826
0.116715877746746
0.115293526231039
0.118319831293081
0.115179885162889
0.115330740922049
0.112555557921393
0.118685246190145
0.111068256357042
0.119981343531761
0.120154488854099
0.114906624564995
0.111305307596673
0.114148965875669
0.109380112325817
0.115247521024315
0.112477827744206
0.112652740853958
0.111894185529073
0.112489140409043
0.110495346403913
0.111984000213661
0.110906371895361
0.111674077642278
0.108519779433426
0.112031530916255
0.109745229963855
0.109880704187576
0.107354575909766
0.109666129473461
0.108452516381738
0.108584907150922
0.106301205945095
0.109726127953164
0.106468506414086
0.104489691405012
0.108532095401579
0.110033196591313
0.10617606019043
0.10581576380181
0.105866139924934
0.103922749818482
0.107410463871562
0.10439913888901
0.105034141830792
0.10535195511003
0.104365549261128
0.102814206661283
0.103872504472721
0.103309483148014
0.10272635649046
0.106387758122222
0.103656749906513
0.103638564757014
0.103710167874646
0.101002689605074
0.10229689831871
0.101384715105771
0.102469728421707
0.101334970055373
0.105443734953591
0.0978558111736722
0.10253991796618
0.105708307131328
0.0994566915946205
0.101662088138143
0.0968441228752089
0.103074063572917
0.0960311235950322
0.0999667312227437
0.0987224397470885
0.100505407790442
0.0963665227675532
0.10208156511458
0.098996092190569
0.101327656039272
0.100031573222133
0.101912204535452
0.0983388874686142
0.0984922092678834
0.0965845069598745
0.101926135468056
0.0959119377963448
0.0979390489214347
0.106276091568328
0.101769924287942
0.0991103234989436
0.097878364178442
0.0930575504152075
0.112826762199539
0.0972404906384231
0.102858661726601
0.0951838982079875
0.102604204497822
0.0948772059880578
0.100529189392367
0.0913894996482188
0.100962018219676
0.0984250836797409
0.0997729721069517
0.0962260018352853
0.0990947241808524
0.097405509956743
0.0960363273310953
0.0944365121336481
0.0956183727324441
0.0941456033709159
0.0974880960213556
0.0959613349461697
0.0990758465224251
0.094805937988319
0.0995603940354756
0.0917151548434285
0.0993029450082039
0.0962748943015132
0.0991394804289152
0.0945880467944754
0.0984854633325617
0.0898690956473575
0.0996021290065987
0.0962366215207137
0.0963212593875118
0.0948673321865006
0.094080730840098
0.0968268914621723
0.0959908285117634
0.095996956200867
0.0952775017171276
0.0948660739806899
0.09354504559999
0.0960877970121908
0.0980955190605606
0.0955045084982517
0.0966643155985211
0.0948679246415623
0.0937833956546925
0.0971955621125604
0.0949354293407985
0.0942701778198544
0.0987366351631367
0.0901039599767518
0.106672627876402
0.0995883235412006
0.104598508563349
0.0971927601424339
0.104001417815651
0.0952692675487519
0.0988246298742803
0.0935787905179661
0.096578205696859
0.0967990117199215
0.100717292943721
0.0957733332854079
0.0982587272935787
0.0943006383927669
0.099485158906995
0.0949789401661434
0.0989424094114103
0.0974222626505032
0.0966075477515321
0.0977493480516952
0.0981697061172665
0.0968474736954287
0.0955668486803325
0.0990717354047566
0.0977138970514641
0.102292578480837
0.0823354247438882
0.118693568501288
0.100776466425672
0.107590694779302
0.0984116043108383
0.102542976994781
0.0995064341061063
0.0948138198131343
0.0970292293413518
0.0987718622766463
0.100046615860772
0.101013344061935
0.0970954368812178
0.0992227150891885
0.102538627358338
0.0928068719111122
0.107233514890295
0.116965096274096
0.101853157789645
0.10700600676111
0.0923448120073823
0.106593005050181
0.113907377476177
0.100447488425637
0.10355943810804
0.0981230162103366
0.106055378093612
0.099894864653736
0.104192938006559
0.102397257615699
0.110920092152951
0.100297070964095
0.108359921069583
0.102916566062503
0.105325034650026
0.105892768084449
0.103352501980384
0.106177669068119
0.109592053881851
0.102830443140544
0.112328322616479
0.104417573261049
0.108087107976412
0.103633609223597
0.109884614724831
0.103324189009376
0.112279881734686
0.110830371261593
0.113354717043924
0.114980377050495
0.115518271856111
0.107425851717282
0.115606311611267
0.107321240948489
0.122227861640723
0.0955297627774641
0.126229119547619
0.114608579935588
0.127036718910519
0.11908147314256
0.116896045582864
0.115845460785049
0.116428492758655
0.116170321942616
0.109988378535266
0.130975831562756
0.114306620066273
0.126362496929363
0.105813721214305
0.128500196039114
0.117700393639635
0.127732625723371
0.120462284148701
0.127715942243462
0.11442469746988
0.139802754399838
0.118917444707808
0.122537063087286
0.142161598886699
0.132269095455943
0.149829332034564
0.125499697489528
0.126004929176902
0.139694517400431
0.133368168215237
0.139414039659621
0.12793850190853
0.142409943842213
0.125043430221434
0.138697017247236
0.158357992444032
0.139859412395671
0.144771724728582
0.143173538229623
0.140639881947283
0.162416847878441
0.155055821617301
0.152406193814446
0.155103584869615
0.159228049301249
0.141285164891844
0.197526812019071
0.162834300942688
0.18637924843678
0.180753519484904
0.197170867221042
0.194087443551524
0.211316434532029
0.211583398990355
0.227915830062742
0.242981858171878
0.258263936296618
0.247241283935973
0.282035927229831
0.294301967468475
0.292968429407
0.30372208725779
0.299225440012191
0.298260511590973
0.321039004537419
0.337640732327323
0.328553256801909
0.307962088524363
0.304283321655987
0.312845545649049
0.299102855572463
0.297578861618478
0.289472408073929
0.290835663619293
0.286987550928963
0.283025267911059
0.289893473109112
0.278913575299437
0.289231029581675
0.280035573371556
0.283804958001478
0.275890907069396
0.319763206511796
0.306138016170827
0.285399736512499
0.302785014495448
0.288185880547927
0.298493310944983
0.29028431559677
0.298226489539637
0.292873992358998
0.30525838476081
0.30503462690829
0.297385587255856
0.325333419422105
0.307784022665361
0.337452622196653
0.325821459766222
0.331586410927694
0.317795191712961
0.315159276058035
0.452738570402732
0.34924860049638
0.38097038571757
0.32442819837284
0.384000417458248
0.389129394521915
0.389635690046352
0.379282690600383
0.39093996982923
0.383631646285355
0.406000329028453
0.407380401288794
0.418074463320254
0.426789260017897
0.440476979913025
0.414309217866752
0.44484699861787
0.464533448652481
0.511577718214706
0.472121662880286
0.477492927740664
0.478602264299091
0.502105420401604
0.488046238269223
0.518815485769815
0.49058211064203
0.528346656569559
0.543331554786891
0.548550905924607
0.533257218314794
0.542354726108493
0.562232289349223
0.54926614586735
0.602783429025295
0.588177197780302
0.603854800746263
0.58337059788113
0.612880856048441
0.60486939084494
0.605963465565165
0.646490207093122
0.641432601413713
0.6488712318383
0.644545990233589
0.654886816597112
0.659840123049823
0.671814020233862
0.65719703261438
0.670900914030401
0.677122783674754
0.718521770738751
0.850108113067538
0.716729517434712
0.713253321672116
0.697151835446466
0.699789296731134
0.722934675422095
0.704549003573996
0.75502132946838
0.745299699946082
0.73565470261333
0.727167516120672
0.733017532854027
0.73450091597909
0.747872550731999
0.731795805874313
0.725742778712693
0.770315870167545
0.700376556898538
0.769132323337835
0.78745438588831
0.743990819988904
0.723903217355275
0.72337094026567
0.712905555439245
0.717932976944817
0.699905575046237
0.712474485144379
0.698549199585574
0.699332643740812
0.692323934503553
0.665925570230324
0.705810976186363
0.669352111661502
0.672469318503569
0.651608810956141
0.653774669342128
0.658487470439429
0.621917081720756
0.636452407357629
0.657470356795756
0.617278598981852
0.598058648998632
0.58219350718299
0.584375771428306
0.568392854124504
0.57168086723445
0.566330068060703
0.563059254382345
0.545486539270311
0.548611462529234
0.531825443213425
0.531016336621746
0.518066595410995
0.526103801961085
0.512659479537396
0.510540557690621
0.493456795284122
0.497744422118477
0.48199771216086
0.486513206535721
0.480254487834809
0.468090314042875
0.46508573170588
0.466069059498733
0.455254277173856
0.459200166703891
0.443966163179019
0.447317770619336
0.431084552377257
0.430287004548674
0.420734059079918
0.42762304489675
0.410885663695356
0.413862272708985
0.408263964588665
0.414811560100305
0.40152713316515
0.408666687143294
0.397744032502596
0.404007766012654
0.388178928414933
0.372293025426661
0.4375108579251
0.401438718691635
0.397817154694329
0.370870444779931
0.380899688577178
0.365136812954283
0.36154173663139
0.401048983564665
0.38126302959536
0.372382221347158
0.356713467970654
0.353163878764913
0.365200622831233
0.359314289957289
0.354424420853701
0.355755364192419
0.325835479420777
0.380245297848715
0.322807294294957
0.424209217437543
0.359160117581556
0.374467281245617
0.316152541207066
0.355145032207093
0.346418557509162
0.339578171769685
0.32829273414217
0.319742268204833
0.340170460153347
0.330639744092745
0.329050608031071
0.319234349145525
0.310278042395954
0.329305811146684
0.337076951553676
0.309242489380269
0.336047332042678
0.329062096714399
0.307571920049466
0.327688813524953
0.353357145474729
0.324183318485421
0.303634382662738
0.311521658890675
0.291186622278094
0.31367766662489
0.313038743212084
0.302754805300922
0.317446066041802
0.295707691309515
0.304758620128074
0.297681737974404
0.322286379741993
0.288219409484703
0.310371675491963
0.317664564814263
0.298730834793484
0.309099852417004
0.298641054737931
0.343228727777466
0.329410152784765
0.330886934966032
0.295597797004824
0.343459968113281
0.312779670971644
0.325362239982694
0.317284200046347
0.299790677084555
0.306866925805718
0.315067530547234
0.28954897658983
0.304327993429083
0.289841842046677
0.300286119484113
0.297027368888613
0.320404616445777
0.323726209567423
0.300602125772738
0.285166903984372
0.28321126347618
0.280651983169391
0.292588048875278
0.269849765963686
0.321023678705705
0.284077957860733
0.303498706248637
0.30386883089803
0.30313285500175
0.290632656312056
0.29412433595573
0.283054439958998
0.288627633273943
0.287322612382338
0.31639821616168
0.275183835547053
0.302251775524473
0.285615527334533
0.297126786336458
0.281759518318199
0.294632360561215
0.286615141285736
0.293948575048181
0.29381314954705
0.30058052446752
0.294070439793097
0.307891696217086
0.288512644354971
0.326878781403751
0.31163801770852
0.312392875349265
0.31732430461313
0.319889224970599
0.352260691705527
0.334829441075327
0.344780495785195
0.337804730389111
0.347832666077765
0.3569011583055
0.341627289073565
0.369474010511646
0.369080232993546
0.373248127589897
0.367277403564791
0.368550962724732
0.368425443704878
0.360041303575986
0.379407364378274
0.352854332413719
0.431455605475295
0.374816236651417
0.389793003141012
0.362900445183709
0.362262896204123
0.369546121193135
0.35937193047103
0.364153494487623
0.348420226309224
0.354248845238815
0.366060889041029
0.356333869601191
0.347377633811312
0.346265868815603
0.34506420696506
0.34277335205784
0.343422984971899
0.343807561286376
0.340643628064747
0.349856065112811
0.332159900640929
0.341827450556079
0.378031145767544
0.352439480701332
0.349111244241547
0.337444126663964
0.355739521564702
0.338685842878773
0.345952365778864
0.354882295125628
0.346986306199329
0.347331611863336
0.347165334726956
0.351066172416284
0.344700068418414
0.359920496347766
0.360063135227242
0.351312283554279
0.372164097415706
0.333640682830413
0.408464494241277
0.366155015265388
0.380605559500005
0.361790769997181
0.370260973326702
0.356500108061049
0.360211648052379
0.354711813089922
0.356155988330946
0.355902710697761
0.356053304795909
0.360701420134251
0.353086925943571
0.357780051370903
0.347782302973017
0.352208928805345
0.357310934077559
0.354754747013583
0.348813541676466
0.349214736849902
0.351848954474847
0.340601585865432
0.357349092639987
0.349365620015616
0.36343287698061
0.348348450829861
0.359604250527704
0.368248780841745
0.364512338651727
0.354367538861614
0.358935967813132
0.35187398960235
0.364362494660876
0.345077340075023
0.362719262644589
0.361091857707089
0.367648924010509
0.354007451843055
0.364523757717098
0.362397806321852
0.36769109680932
0.367857214253013
0.372793016964751
0.373803499827104
0.370220948887573
0.375290687754944
0.365982415174543
0.369407808619274
0.36503982234607
0.373754800135027
0.374525549252985
0.363080189884654
0.365731031254933
0.357441319815689
0.364360524334772
0.360823723738114
0.366818856851838
0.354706073726429
0.362002303396492
0.345104480729048
0.360704864049639
0.360984209316627
0.353653678265504
0.363569323058751
0.347381059635324
0.356916463677454
0.348970861185061
0.354297471531237
0.347381553279393
0.349517382042501
0.346850630053985
0.348488608931497
0.342422323110186
0.34544054308709
0.344020715517208
0.343269763074287
0.342352759136029
0.341135268887861
0.341746918413681
0.344686578041722
0.346310116366242
0.342515886416947
0.343096714712787
0.339829252343725
0.336159062364097
0.345756236548945
0.339324366611288
0.341183187978493
0.334312712314196
0.341148317516119
0.337164766265464
0.336042839392307
0.330158579648741
0.33001399789948
0.328471159611072
0.332695554879545
0.330518362138204
0.331628042814734
0.32801722865725
0.327389995185218
0.328337866594707
0.334541032530922
0.328382510216521
0.33030508649614
0.332425496203111
0.331685258693908
0.334012775124299
0.332217624043961
0.334497225108261
0.329573747649014
0.336033562699582
0.333084786834523
0.334113609062532
0.33440237135078
0.330174988012676
0.329856314523761
0.332934537916652
0.330450285175626
0.33151939742549
0.334532615890851
0.334456467255381
0.332490864773392
0.332483775400581
0.331517993800522
0.330353761998195
0.332156694169091
0.326352446826121
0.331650557500708
0.327568091592428
0.327823378902564
0.324991034689552
0.323432724002699
0.324891024480802
0.323268898450415
0.322046964524328
0.32135953504619
0.32035110695538
0.320384837576198
0.316409558222225
0.319976987025968
0.314913728403229
0.320040842719859
0.320356068820405
0.319931544728242
0.316184416575446
0.314880250672627
0.318927296833885
0.315796713942588
0.314927953202248
0.314464279230014
0.318930133073276
0.315134167608119
0.314619777411337
0.314414142255926
0.317898926383568
0.320233516837937
0.321191998337527
0.32286238309262
0.321649324151879
0.325757263992301
0.323936644383646
0.325776002352845
0.327246081407683
0.328160997953318
0.326987929103779
0.328652762462479
0.329850669449114
0.330349981526043
0.334368754371765
0.335343832990819
0.333916076681129
0.337897383591944
0.335598228284091
0.337691645864766
0.33712953080806
0.341013612995547
0.336487445987108
0.337045866191721
0.336980200769911
0.335331444497151
0.336245786879503
0.335674639111991
0.337031243038867
0.336339231606377
0.332852492650193
0.338055040776709
0.336662970955735
0.335923873179458
0.332132134221495
0.337251832904823
0.334848717371798
0.333931092707131
0.337492934933687
0.334957388703508
0.33172263217962
0.330400386015848
0.329752913988359
0.33220963023396
0.334189093713424
0.332515931256941
0.330511432849494
0.331341615088487
0.32862779336418
0.32813624776915
0.330417328474879
0.328808821073784
0.327124357584498
0.326138353111555
0.325752931423742
0.323876496369751
0.323218166180552
0.324495236964965
0.323183616815928
0.320505228915727
0.320147577190377
0.321574763168944
0.320283052194933
0.316155502712725
0.318945031208124
0.317258581175414
0.319359613183474
0.316294342114352
0.315206083082117
0.31526739729044
0.316713389112935
0.315972324583104
0.315649552810693
0.315165264710054
0.3133475858003
0.316055749137824
0.316889366337701
0.314774070876487
0.315670495561698
0.317677986014856
0.316862183937677
0.31667851180117
0.317488156723399
0.318236166512142
0.315773870393238
0.319208237597945
0.315930831779219
0.317639546252199
0.319918848662048
0.320380653579528
0.318923837363489
0.320321646686379
0.318886000058868
0.319103868031863
0.320134763744825
0.323092586133597
0.324898779991189
0.326283149155457
0.328896226450952
0.331294578894622
0.336845913076991
0.338227277602396
0.337703612128771
0.344840561980502
0.347708123395235
0.352818278710191
0.358861278341364
0.362940257068161
0.367875783630443
0.375119448675031
0.380544347734729
0.384277877531305
0.387962592680711
0.392841103860092
0.397578313680112
0.403438344703705
0.404942805644169
0.413800416267926
0.415927687190763
0.420324698018653
0.424643696314502
0.428384732533065
0.435213904041092
0.43722608589234
0.440148771251956
0.446162115455818
0.445392529372718
0.453406450399257
0.451637372741962
0.453954660251208
0.452481298528839
0.452254807176887
0.456453041904305
0.451590990261783
0.451222182910804
0.448795939395801
0.446219885700129
0.444473451630235
0.444021897223218
0.437157473314377
0.434763744341323
0.43091262670272
0.429808084835981
0.428194316266882
0.427612674697166
0.423534549399161
0.420885309848192
0.419161448844843
0.422322988813383
0.420995709071886
0.421424958607945
0.423413003758189
0.423816125461308
0.424834692790852
0.429536727297294
0.433968487268057
0.439527118513852
0.440260093543614
0.444132427414406
0.446482759729912
0.453319476590724
0.456377952273208
0.463498567009234
0.469286071873991
0.478766386017871
0.483312175512612
0.483232721338496
0.490318784601336
0.489163608090965
0.487989154625909
0.494850118810326
0.491855369406013
0.484008552645473
0.487739759549022
0.484026071981257
0.479988420594414
0.477242178874232
0.474221979621441
0.470079464155641
0.471514020002607
0.469010262826237
0.472893423579293
0.471230872132893
0.473629661977856
0.472914501815417
0.479331016339166
0.488440028806921
0.494181556157379
0.495464180724683
0.49827563429349
0.50063834544643
0.509441174155902
0.508656554534278
0.512051042197699
0.51876509644696
0.52214996673343
0.525864568911857
0.531565130987407
0.532050955345756
0.540407884526568
0.541979924718276
0.549528196888606
0.550779534090365
0.562275432119415
0.566851479590183
0.576346470640058
0.586962454397807
0.589764399399136
0.59836283314348
0.612202428117372
0.610934445477895
0.6230414758958
0.625713809368686
0.623146934356983
0.629268427851451
0.632794632119166
0.638513395848556
0.630029287908457
0.640355761212299
0.639095153181987
0.632295422429696
0.6292093898518
0.61746940254188
0.618961325170622
0.611559323581595
0.605331237540032
0.595315919599403
0.591406222865396
0.591594230385699
0.592970465598984
0.59217396413314
0.596061496735158
0.595446312808783
0.598762135294631
0.600069784653476
0.603289340078245
0.602367762224525
0.609785758920463
0.612920555321429
0.610740374758888
0.612977133223374
0.628779796385463
0.624412191279401
0.631597509306764
0.630584146804813
0.638769898712202
0.644872176155336
0.644286953276059
0.650904632324217
0.649975431584753
0.658029779705583
0.656998575895086
0.664706737070939
0.65336517132212
0.661232081331074
0.662371582389071
0.664106856787063
0.66947260873715
0.682901707238029
0.677634992384331
0.711436055279868
0.729809636947703
0.709243237242234
0.705506998396317
0.703718389523432
0.706568710519494
0.711294653158673
0.709116059917395
0.726303935487099
0.729618258554632
0.743571743672962
0.754023296662565
0.750726579400171
0.755322947470716
0.780738052267342
0.767809973233406
0.788690305456954
0.782907870559001
0.782427399784457
0.779805715792715
0.776324025244607
0.75398470515885
0.757083314287775
0.731393049788261
0.721233895111773
0.696108061327471
0.67845897117818
0.658088341076356
0.639975153167169
0.61292849401009
0.599633487241936
0.578338492000355
0.572267677288901
0.55465109670485
0.554143789762401
0.534945208776053
0.531320929432182
0.520829695775657
0.524275082992396
0.508728883921352
0.513748164658919
0.497598687693002
0.495675870248082
0.489594109929512
0.483985868130189
0.473920227453698
0.465993474243853
0.46360283910681
0.450135087543804
0.4528053341404
0.440165510014909
0.438112217147816
0.439105352787556
0.423872509767377
0.419693203662917
0.40951594897999
0.409860384312894
0.402629296221085
0.396338259804773
0.391668973848341
0.385241103596787
0.385354844029663
0.380619488905618
0.380242311711657
0.37404816400997
0.372533502382908
0.370980033304425
0.368864896669078
0.364164106294047
0.367173655385144
0.367295556560752
0.361755537293762
0.363061769877942
0.365135964428277
0.362235667479195
0.362930456805887
0.36602136319508
0.362779507525697
0.362583419482323
0.363537087893943
0.366576682079312
0.371475806624242
0.368093151467238
0.363729041017729
0.366316010079325
0.364247214218056
0.369892502309424
0.367253859831861
0.365769714309914
0.371883981941434
0.370135192387689
0.376688378229841
0.375933710381177
0.373446291434457
0.372431235984893
0.379668469684178
0.380424708981922
0.37898777807611
0.382347748620865
0.381428452515763
0.380141699255693
0.376652493150619
0.383980381864395
0.38725230272116
0.391540347057299
0.389727741412748
0.39412216026314
0.387051989788779
0.393962461502884
0.391334549815251
0.402496730706705
0.402641713792104
0.40438223421529
0.405642305854298
0.412898062570096
0.40478160503561
0.419790923130973
0.414173140946495
0.411127312773076
0.418924114712153
0.419559706057352
0.421665668930252
0.428006426004997
0.425904640080419
0.435826093977326
0.431460473627957
0.428924482042927
0.434222235369021
0.449634966655603
0.439228335917581
0.445576373746551
0.445472382907259
0.456374899133707
0.449821295794094
0.46215562201439
0.458651051151437
0.461315087913318
0.468163355894951
0.471297043242727
0.468224853343012
0.470406191963311
0.480193055812881
0.484569877194984
0.486344262378162
0.489034139452743
0.49643046100484
0.502971766962882
0.499654160981252
0.503874631629863
0.51517384722428
0.507294899100417
0.513745102891192
0.523256422174458
0.520191799984342
0.52393955631066
0.514278907756135
0.524352392800579
0.533055044608975
0.544509831739779
0.527205420306474
0.548585455145035
0.542252527565065
0.542518888828319
0.539914449188666
0.558779903585768
0.543599573367499
0.564071538022797
0.552634745449209
0.567037917434252
0.565954642549429
0.587021309495629
0.561280581099041
0.58491889056752
0.581463559764056
0.569474144651589
0.597498540549985
0.580349183893012
0.582066853960316
0.590106694384314
0.605686634271341
0.602200418729502
0.603975018032152
0.613659087316407
0.603064523545394
0.625992775083761
0.623895535944665
0.625426448735992
0.623671285312206
0.626622399270335
0.639832980373105
0.632664033831767
0.636172917784078
0.660714476571105
0.644150480069571
0.662327893400772
0.670961729329188
0.674862002334669
0.661570836752325
0.683297335539089
0.662924859747662
0.685761091792763
0.681072349795356
0.688418431278636
0.690300003394607
0.700199148060584
0.701368940738673
0.734051443343379
0.684439649343861
0.707434817787634
0.696690081677349
0.713804267861672
0.716769957452008
0.727825623409128
0.734615048959234
0.756292488455707
0.737264299763284
0.742274896452126
0.744788434156232
0.77763853285092
0.741888082361447
0.763710405647189
0.715718849355818
0.763888447182343
0.759725663144298
0.778802574127009
0.779958322269096
0.784750009916761
0.78417379349566
0.813380457797525
0.785015351751256
0.831689669496815
0.812065245151976
0.824393119642944
0.790079892659433
0.800852450792596
0.798968246577643
0.84282652911858
0.831346655015441
0.867248856834646
0.847810796177758
0.834038590480228
0.857850956359836
0.881621149644529
0.871276677462246
0.892497368050448
0.837829418554356
0.903218691679871
0.854792994016816
0.868803972053093
0.844436639655484
0.892147847969697
0.854377839089581
0.957677051044085
0.859344517305581
0.927399797791219
0.90802189668376
0.93294958748068
0.937516449236375
0.959136524185759
0.884925344272644
0.92239134271853
0.928582599148443
0.977676311304996
0.970369821658378
1.0346121745772
0.947091171020733
1.00107237616021
0.971407885834547
1.0465700762998
0.97419022196424
1.02605853832608
0.992681778472464
1.00570765378967
0.975260239340775
0.993722261094265
0.957734871839596
1.01440799117265
0.914062604661124
1.11182954270574
0.998794670086963
1.05477462092617
1.11540888176179
1.10203166523438
0.991524254498489
1.07130749566627
1.02843281651584
1.22139421000409
1.07016026064171
1.06455779908962
0.996695857992206
1.11405876962139
1.03461769686927
1.21740907704179
1.14447244125278
1.17978513598973
1.01306977713425
1.18092590385628
1.08899187347893
1.17451264792918
1.07819000693645
1.14701389155793
1.07021781485346
1.11523968721527
1.05182964783199
1.14127066291725
1.09461604857574
1.20834251934796
1.24365449561094
1.38013530883075
1.2600593410626
1.03229321343849
1.03838728053593
1.1348109626404
1.08460556491574
1.34995707373219
1.09828041899803
1.2787687319283
1.17255781191399
1.25258874468009
1.13890574750255
1.4387590447225
1.1122071386757
1.24372020414042
1.17513880215756
1.25607570533705
1.1084965946317
1.46385996388192
1.13836757774005
1.5040691948025
0.986625739033097
1.24895632333896
1.20184883149057
1.6646489013187
1.22640584217769
1.50758482015623
1.50718538233611
1.80132728934805
1.45437595448732
1.34371898803275
1.17221477120671
1.41578268117244
1.03318877250989
1.36627382541628
1.12478766221349
1.54057518098455
1.08285673856569
1.47435806715599
1.31953877085563
1.25537565347459
1.12059372931525
1.55551534542714
1.11894606571914
5
1.10445008162937
1.59580382413479
1.28219597402385
1.38380022431893
1.41832741887686
1.64737857118597
2.08696039976209
1.67523627271991
1.19397654470622
5
1.58434881669184
1.64143890560646
1.95152469424198
1.25881680309543
1.04382374774932
1.72992776559304
5
1.25479959701577
0.999929088220546
1.65164143384025
1.49295973229652
2.42775864919737
1.37085871854011
1.78654990665277
1.08567931983766
1.69023727444198
1.10237126036983
1.99774722690907
1.1620617235255
5
0.84351771754176
5
1.34166589181469
5
1.51403378972311
1.45191808934526
1.69633684945116
5
1.19887112779137
0.929117332761147
0.772228735133574
5
1.70619320346402
1.59950354345426
0.78946616404496
5
1.51522675023949
5
1.18472773420785
5
1.04409847254254
1.39128644449033
1.07683142780373
0.775949789691253
5
2.03019813770207
5
5
0.952699331304514
5
