3596
4000.36533379555
650.420452594757
1
2
2
0.0440678464693443
0.0330889605115862
0.0382096431266504
0.026775842860147
0.0410634609672795
0.0348865491400628
0.0401069749767257
0.0383631940437124
0.037544631783018
0.0350160522793503
0.0410396270133249
0.0253170827317035
0.0445671806275982
0.0297387812092991
0.0375958591678507
0.0268608011475988
0.0422728250816019
0.0329255255981187
0.0366826942666179
0.0280373465912313
0.0303238310107033
0.0263284411040087
0.0419598293940135
0.0273916368951368
0.0366184935947987
0.0301699116709527
0.0335939988217656
0.0240805927021267
0.0417477139204162
0.0349716633294221
0.0366864534375051
0.0318507039539877
0.0349553327917277
0.0254184783751938
0.0400944887418392
0.0317711243627747
0.0393781972215858
0.0270896190698135
0.0384161272510596
0.0317720713678897
0.0405503406924712
0.0314233236027438
0.0352518923830192
0.0316720517375487
0.0328438434570301
0.0287992992450981
0.0464762457072941
0.0262631944727394
0.0438357646097573
0.0332262596807701
0.0422257724331446
0.0291821198184158
0.0484203161452898
0.0335112259154158
0.0320192360520542
0.0310788548618818
0.0396507790319081
0.0279059663046252
0.0353218943980879
0.0232363726220565
0.0423726293311114
0.0393062928195984
0.0332494346702515
0.0311742171867999
0.0337274712588939
0.0300087494899898
0.0418752067888249
0.0308973993941335
0.0356486637921514
0.0228138152254177
0.032317452771007
0.0308704244869004
0.048198182706723
0.0249245611896622
0.0352240151384553
0.0294392550858025
0.0386866932322964
0.0301507620887864
0.0313106072192891
0.0339659886070061
0.0424676045745867
0.0299182954145604
0.0419563381247321
0.0314384097720146
0.0380171446944277
0.0294802781179332
0.0359983271526641
0.0188160027156152
0.0496825441562697
0.0309510633062919
0.0387861242087604
0.0220670183321309
0.0356373767033574
0.0195537578326313
0.032687267866377
0.0264623009036544
0.036570281010549
0.0187450708698488
0.032822351737115
0.023583024603441
0.0417701286664057
0.0136918111549432
0.0546616433466507
0.0288336653028272
0.0541978710216589
0.0458349011376138
0.0186067222620721
0.0516635530743812
0.0464576098397709
0.0239897296564401
0.0330570119805787
0.0226549913089406
0.0335074730123152
0.0235776172636808
0.024988499902613
0.0262172983073019
0.0598798270998924
0.0248890502873427
0.0389722816685746
0.0263869808241939
0.0287024211282276
0.0180969997080168
0.0673677631296181
0.0276192886115311
0.0487581033223641
0.0334708173266536
0.0239662786663064
0.0345277084991268
0.0584529210713417
0.023816690530254
0.0358986277488503
0.0233809705612436
0.0375706052496785
0.012740363413202
0.0510434596332501
0.0331981727001069
0.0261203863854587
0.018988086086675
0.0311209068853544
0.0540019587192824
0.047357977817451
0.0285299166209906
0.0274748732148994
0.0197950731673192
0.0627112845200336
0.0399558355419672
0.0263332614239086
0.0250835367176038
0.0485231052174194
0.0219025139823469
0.0328649030955079
0.0193938021821451
0.0411869014492137
0.0283585487895769
0.00537499166187755
0.0164525313437344
0.0984825125048304
0.0192316697581516
0.0763460701511531
0.0344540082962269
0.0400173189028755
0.0291021187911461
0.0238291091431571
0.0271760454081603
0.0328287954682639
0.0215650862692324
0.0237665703791056
0.0457049492782208
0.029991231012044
0.0149826131849937
0.0439706606970783
0.0378157995389669
0.0253376646377636
0.0480280750549247
0.0520773471436003
0.0105965785071957
0.0574368406063993
0.0306363725540538
0.0336133643382442
0.015816993223291
0.052406656280994
0.0296375838087292
0.0327642192334
0.018842778177484
0.0356747513614157
0.0311007429078183
0.0472389031701633
0.0247484812084749
0.034023128127209
0.00925912271395437
0.0309237026137102
0.0424479640232816
0.0635777344581961
0.0302837235251555
0.0371638617665226
0.00364574375203453
0.0364469431456939
0.0546184053776211
0.0403556592330652
0.022271386894502
0.0214901982109171
0.0231262396825539
0.0318665967944525
0.0203875308571794
0.0312305952417747
-0.00687033942209514
0.051972928948996
0.0491163898035549
0.025549884819899
0.0205547170848023
0.0251662000745281
0.0158456398947266
0.0496330074691561
0.0537781236851605
0.0226664873441063
0.0282614178151771
0.0228124649999057
0.0298721082413099
0.0498958435065462
0.0282803290693913
0.0272648246201197
0.0266941448111127
0.0290577814956278
0.0246224017833067
0.0299041870888367
0.027885199859521
0.0326555427972613
0.0278654867827054
0.0341657744894893
0.0264761907542458
0.0337536600311579
0.0256140765824118
0.024887162119008
0.02777350390095
0.026345181781182
0.0158185263340468
0.0531823674200444
0.0288648016212998
0.0352742811978777
0.0245253108973424
0.0388015443435107
0.0260209922468796
0.0369979229507784
0.0277936890457725
0.0263790864333383
0.00786890218936447
0.0469603923796082
0.0296343977473586
0.0279090873383426
0.0207077679295588
0.0344723196744264
0.0510020165376857
0.0260822311353383
0.0299343477383672
0.0338768952232377
0.0254983371827575
0.0224985722159601
0.0533176845536406
0.0385418220919104
0.0241650088832584
0.0380536305439543
0.0367932706698512
0.0245726786192907
0.0294363752760786
0.0151602443026859
0.0548016374916516
0.044901481430835
-0.00310623339301153
0.0698237606022654
0.0518090742852901
0.0302576455842432
0.0243718649732098
-0.0069594852479252
0.0786272903658082
0.0761638955239372
0.0248286726984721
0.0347886179722476
0.0415434181979753
0.0322333062683553
0.02010794607011
0.0426746304964062
0.0175768252649394
0.0445825950484085
0.0402861056773917
0.0747693369446309
0.0163965736469529
0.038179247324356
0.072223743336554
0.0330206963889115
0.0366893905335097
0.0343371406770255
0.0259893759317152
0.0402395378704821
0.049070807600648
0.0402785327576862
0.0376674361782249
0.0286396824296395
0.0462767066076417
0.0467162280344437
0.0347424275717799
0.0395899965095886
0.0484653322046458
0.0375505311241432
0.0327200381696299
0.0346562138589287
0.0377272893700887
0.039122363544995
0.021564072329289
0.0701829380915148
0.046484435336978
0.0292427456920275
0.0556502109779932
0.0493835076519832
0.0401651373932402
0.040718732951016
0.039070908913973
0.0389408907748336
0.0323864304304592
0.0329704369816448
0.047583475296469
0.0577470701297301
0.0298318078839338
0.0419332469422939
0.0342102768189202
0.0439791097568087
0.0333443399915239
0.0375968340769877
0.0381065937493843
0.040964586414232
0.0222471728103987
0.0483024065224365
0.0553793197041502
0.0284646076021851
0.0348903925154326
0.0715514790714664
0.0372234539435377
0.0494045289393881
0.033788352493637
0.0473789383843361
0.0382425280631844
0.0460691697839047
0.037561884232344
0.0459282676974775
0.0506903593553029
0.0616306326979248
0.034285244603305
0.0422832009212247
0.0637819200258339
0.0984889767066835
0.0607972518382056
0.0587863488600923
0.0295358267442881
0.0456906715969114
0.0767076880230098
0.061614984453737
0.0770132373847126
0.0572662326439763
0.0546947671133247
0.0528367178907919
0.0585352777031834
0.0634975233593523
0.0569997518538863
0.0622554991906581
0.0543200008793914
0.0672837853567732
0.0594365152083013
0.0590750579439448
0.0495450165678832
0.0882846518709473
0.079218803354512
0.0653256156714331
0.0642453376330322
0.0656268032217493
0.0625498128483616
0.0940788265545013
0.0744138846974592
0.101594380512874
0.0690072686029161
0.112782217159069
0.0763122445228912
0.0827028071988611
0.0745257505129586
0.0829556652263257
0.0853619020766624
0.0873638986207876
0.0754942086416137
0.0860654235459408
0.086610810096157
0.0949473519098119
0.0791390270500375
0.0999884193703472
0.0853219317157198
0.109224556762488
0.10145991535801
0.0942014749908327
0.0850588759311535
0.0919256409899695
0.117589020019935
0.132925293422502
0.116831642445851
0.110784975919908
0.1176320777609
0.113696494679485
0.11338824904731
0.117663708662447
0.117134999949251
0.118048963534034
0.125964674532472
0.142759957443982
0.131542121967491
0.142749230919757
0.123627766959217
0.142517532942834
0.140171519216214
0.135349139070572
0.150139196493446
0.149636483367246
0.13621878609638
0.151149107558438
0.155442593592183
0.142639225893516
0.163649410766689
0.167148704232278
0.154752171338074
0.160002320393582
0.155903419340647
0.170524237039271
0.168779520585789
0.180480891029757
0.164050222439977
0.175618791813274
0.168942602293804
0.178423836801897
0.181592580891787
0.195471645583539
0.178479008876796
0.209932324925549
0.185258684920173
0.197148984395986
0.190181505780783
0.201649483013936
0.202300437210669
0.207859713212281
0.228672803008011
0.210819192052691
0.207664756297157
0.210823168033605
0.215069226414082
0.225389877058693
0.215395755450897
0.232953194603251
0.225413281936611
0.236055935778497
0.228055836303188
0.232294882547749
0.238862384006802
0.244546390123492
0.246133514231617
0.252479475342164
0.236746117923218
0.265442524217787
0.246478106901479
0.259588928486569
0.278000269966216
0.282911398590376
0.27111490430002
0.286373198363188
0.275175495520897
0.282835760119689
0.273866722340284
0.277978200866646
0.293930061273997
0.314772395002746
0.29319597410371
0.310727017183595
0.295920369684272
0.311343427239976
0.301370478838906
0.322598424909657
0.310666997321858
0.328027057645786
0.329385188729522
0.323607793154333
0.305936984294633
0.330443742562758
0.332407548703947
0.338530673962707
0.343424136982146
0.354961817111007
0.333622997123982
0.362712413175995
0.343339843122983
0.369149861862672
0.363578901300742
0.364438520299588
0.366823707073923
0.392997341635207
0.37278113145665
0.392065491627402
0.388665742187869
0.408311496696901
0.379678138687435
0.402257603559436
0.384333072421889
0.411706156396048
0.402235159782686
0.410382474574866
0.405713067886039
0.418079620143029
0.399721568606945
0.428331150558668
0.433590584645138
0.445953972979978
0.44308701084608
0.444027512388452
0.444329322853276
0.453783576401827
0.430822153787189
0.458136885462942
0.448781151689944
0.462675325980555
0.454074035324904
0.489239352633994
0.478564074740084
0.479396478400732
0.472451305203256
0.504292941436964
0.485271028343556
0.513654420407652
0.481616619385671
0.496482403167471
0.490997817278075
0.501971312219521
0.51089081768669
0.524765829947292
0.499047256548683
0.525357687181507
0.516805678101512
0.522191259243414
0.53544875135127
0.559199040288154
0.530932547124935
0.544237389146858
0.542661792346367
0.570532704299699
0.547875524692984
0.569592219713168
0.555185483472385
0.586804661513697
0.554966559118259
0.578649821271561
0.566653167897954
0.584101321676733
0.583283098521633
0.606922877087527
0.582123768821071
0.585298633752632
0.576989291185227
0.612255023136063
0.603498559616551
0.610599228800045
0.598241143650821
0.619665720139265
0.626456835684709
0.628456705353032
0.626008202150811
0.634373472637602
0.621861054204371
0.636706664590716
0.665571415646238
0.655893011135129
0.6282302982891
0.672135597338394
0.62595469206435
0.667130611410446
0.646904719334216
0.678392207400473
0.68628716723327
0.691059609272304
0.668337244418081
0.70159510440676
0.68742027854725
0.688441025268937
0.682131002661979
0.727197854994392
0.711610618229419
0.717079769037844
0.689623404195055
0.737246654763752
0.70201242014488
0.733294264410201
0.69723123256531
0.737596230689901
0.73779390945585
0.727408259231636
0.722200529357564
0.763294081343994
0.725372792950939
0.742603986147021
0.761165607174372
0.769209230793594
0.760183000964793
0.773320757220593
0.730537961614973
0.768739369222624
0.726845510074902
0.768975476894919
0.760187674648692
0.814343801714032
0.776526278715866
0.805715162860988
0.782340344704937
0.801829394433977
0.80899016939594
0.800899622917801
0.793520330565157
0.863162557996599
0.773867301416467
0.792030873958151
0.812544095313453
0.828164708653148
0.842076948762471
0.854565169485187
0.833751905674185
0.873343187206882
0.81671438290102
0.827363568484718
0.814835269683575
0.853954062590096
0.839326734226636
0.849953755935627
0.855988456764741
0.879989785154843
0.821268152610388
0.860882636617304
0.83377441909471
0.901525241274931
0.901147109683387
0.866274612956076
0.851140961178888
0.841939954892092
0.861822269268373
0.927462414896036
0.855314572158755
0.900664032631122
0.885880690329336
0.907738885507536
0.877801698902124
0.883379956806754
0.878953277462739
0.867240255330178
0.863558444255146
0.923305657887782
0.93132818033325
0.934277014955103
0.931559851543427
0.965323690811006
0.919712992625309
0.979174940900541
0.919559610511777
0.95473588766695
0.927113792495733
0.915454309547076
0.910020716280629
0.968066841314809
0.988854198862689
0.973465107843555
0.925221302531464
0.932355019156022
0.914764749871153
0.958165680189854
0.936360008616562
0.995522830053343
0.93788535965539
0.933480192447374
0.937030955792555
0.957390376270718
0.966858633254688
1.0079238451572
0.974838447917861
0.968441996299494
0.959386943690071
0.996375675989517
0.973032620186621
0.982195744769752
0.992076049966689
0.996007872488833
1.01545324837718
1.02141194384285
0.95050077621576
0.988787670423371
0.961077419802516
1.0154053212007
0.978750006786692
0.970818244603521
0.963914044538558
0.977775168278163
1.00326514837523
1.03672327334057
0.969218101875678
0.993070591253573
0.983837332763668
0.995640549862334
0.993595020458031
0.99765923663617
0.954141375770094
0.981441208445099
0.983500862948176
1.02234077536502
0.981581204608633
0.994409229557729
1.00816956496444
1.04475664206872
0.995871124077641
1.00514556554511
1.00388497559866
1.03057005514989
1.01178290339631
1.01127341811199
0.971340926340188
1.00993594135717
0.986160725089451
0.97070319667685
0.965109371035022
1.07744197928439
1.03272268697137
0.976950439319034
0.992922738931856
1.0364672557212
0.985268703895597
0.994993075805592
0.995213018336317
1.07848346763172
1.00673181578591
1.02721098203386
1.02806958130729
1.05483334370897
0.999851829926708
0.999396532841161
1.0151938732862
1.01925749904485
1.0227889746493
1.00227532907242
0.965681329285336
1.01145158532036
0.961654391283239
1.01544290953784
1.00864494598631
0.976183547395161
0.958512593478528
1.0424888306556
1.03307051078633
1.00943774402635
0.975903851605591
1.01219779116063
0.988551392918779
1.01657190556529
1.00942728386804
1.03408414031934
0.976875291654533
0.976079664555938
1.02319109761778
1.04885221185272
0.98691316979608
1.03802061447916
1.00519835475503
1.01610306498998
0.969625081772116
0.995935283956582
0.999658211733194
1.02580115084254
0.996719455955198
1.00571441218556
1.00521780606872
1.01880267603063
1.01240860981032
1.0122323949528
0.977035200436111
0.996065542916518
0.980315342772711
1.01210850891278
0.994041884420484
1.0232181537596
0.974243720831223
0.961968188200755
0.948698777029525
0.978655889668149
0.963962975791434
0.993036419240338
0.950183523538601
0.961605849738974
0.970733610414934
0.978568354863458
0.983355445118864
0.987646906594024
0.961533685907599
0.957710057827487
0.96749804765891
0.962146870977889
0.946033461713294
0.989163246362219
0.97032126307665
0.938343830245995
0.940980641371248
0.946911880215547
0.92180367444479
0.964731451826528
0.952650966404124
0.953927257780449
0.941901406887419
0.975345031540579
0.960276450756629
0.953208668630991
0.926041507786585
0.95327816318325
0.917183391795919
0.938906590325297
0.923259323011204
0.928427736944789
0.903782979372684
0.920539167690639
0.900810026799119
0.888990761337065
0.901503104398451
0.955258589302879
0.914124530268729
0.915044470062736
0.887250476771263
0.922830239466845
0.897981167543969
0.912866344554158
0.88923678086057
0.895889862804079
0.885725000327747
0.914026547166918
0.880267671008487
0.865289726349875
0.872794814166006
0.889551237327453
0.869944101976787
0.874063034553521
0.875557363274428
0.885237586951721
0.880080824078186
0.882678810247484
0.845807615289279
0.861749148125772
0.84053383902916
0.860065884634221
0.868967465750914
0.853849623928724
0.830174729193143
0.833028496388212
0.835979094341633
0.850704562003915
0.811539385765034
0.842889669026746
0.829276099360484
0.819735274864216
0.805639857079897
0.84642926053511
0.815446550396942
0.805679420845728
0.790128601161963
0.804186918424707
0.817234374875957
0.807516631217294
0.788109219170774
0.802497761486606
0.793506414159898
0.800062254624097
0.771586513566498
0.791872549897207
0.773991793441153
0.767282896624359
0.739585317630915
0.756417259569575
0.747906786274663
0.759925890310541
0.73849940548824
0.750927744677406
0.754678394764405
0.751987288496234
0.719675612177259
0.746419977109827
0.738087682284617
0.730601739490309
0.716555599795525
0.748013895239906
0.717758909077663
0.715986117743299
0.703194493895275
0.714214309705135
0.711197061060262
0.685989314356695
0.679402765440485
0.694122620420221
0.684324902780225
0.696402908154973
0.670889704739353
0.674968018766232
0.66444771018142
0.676372479886715
0.66468995270768
0.677529068885953
0.664255167921962
0.660991190707797
0.644821529195364
0.651857230012812
0.638334279865246
0.652764104067488
0.649088666702199
0.653852350201695
0.622414212740425
0.631057328097944
0.624443746365621
0.632209639140016
0.615914080827641
0.619129398294378
0.606465494774089
0.607362081740061
0.60492295491183
0.605148208555273
0.586032599820233
0.592115430903027
0.583263003469184
0.586433689323248
0.587549252207605
0.598844560517301
0.570527570099567
0.572766429080253
0.568586671666113
0.581231403224015
0.561723204200631
0.569096387667252
0.552349787084534
0.561774555953601
0.558027746537547
0.558306498022729
0.536634543497554
0.543828716544509
0.536711226721613
0.542226886895544
0.522449193432145
0.531458991164584
0.51470148548508
0.524077048236202
0.517661157354699
0.517963279861925
0.51849784071754
0.515297550943315
0.505683550933413
0.512970264854382
0.500188240900847
0.504445925269722
0.485787899239937
0.504958556347142
0.492440454827812
0.492925584799672
0.493096152239468
0.497994814138603
0.483033045949576
0.48816652327691
0.464656722247581
0.476379789855971
0.472075072657674
0.475144218411427
0.464756748445452
0.473116236163181
0.456346982534008
0.456429417502645
0.453255866247065
0.453275644441619
0.45246245955874
0.450197670597193
0.44216114888561
0.447996525787284
0.437953149497362
0.447294185866256
0.422168779230828
0.432078898653651
0.424831737327433
0.433993632820671
0.424991823591628
0.423486440464695
0.417337232872195
0.4158651790039
0.40992057418485
0.421865785082295
0.404580837841322
0.402471052463336
0.398153591731083
0.406675762330415
0.397556328171728
0.397670798835401
0.396747849092028
0.396767339322849
0.388531004600325
0.387414162849354
0.380534928176519
0.38315402647212
0.375154340946753
0.379493112897491
0.373960278289446
0.379437918611316
0.367763056615717
0.378318617754036
0.376206455486764
0.379489343608334
0.358452721434085
0.365290604437773
0.358336425721077
0.354549251504929
0.355573010281978
0.352659164334967
0.348404331261897
0.351943273722841
0.342524815304599
0.342668637980584
0.33860664481197
0.343315034120614
0.336350986056163
0.34483562971932
0.327692133135494
0.340933734741894
0.331802496008025
0.334506769134761
0.330904836864988
0.329086251728558
0.320918764457822
0.322476651101561
0.313808624090131
0.323307328761428
0.313504044761679
0.317669288665808
0.307233371151158
0.318974110445268
0.311573219312277
0.313469819906472
0.304947248542937
0.306670257533183
0.300379130653595
0.303496805587121
0.302532121947307
0.299300413132284
0.293749898682369
0.295219232316406
0.292501282472758
0.300154394237855
0.286449192850445
0.286439637692636
0.288839389814624
0.291085921148291
0.284284515823168
0.281163615502896
0.278040103610345
0.286706353692188
0.274822318833361
0.278818767681213
0.275599591866242
0.278366707663543
0.278620499021431
0.276033335335776
0.268682343609858
0.273352946561191
0.27302467086211
0.276274127477536
0.267577848098264
0.266706269306091
0.267296332203857
0.274375995749476
0.265800070004212
0.268362711736971
0.256782071550282
0.261461497026596
0.262576283052141
0.264940228644299
0.261728522728941
0.268358538162005
0.262133590561044
0.269692103570245
0.265946861436783
0.270116354375313
0.26108808390387
0.269429304045773
0.266735550826506
0.272495982444776
0.27066738424259
0.272773887256573
0.267166913698765
0.275289322190687
0.278062736198996
0.278993087657065
0.274167010623395
0.283760996028048
0.275601334522173
0.281633361662557
0.278908644307803
0.280120751096309
0.281236866068941
0.286433731994741
0.284965459449045
0.291077597964866
0.286124824491669
0.29556959734192
0.286075752055403
0.299915480081574
0.303220062455476
0.297682660671482
0.295321026350447
0.304312651786339
0.296062806990168
0.302551726499645
0.298459602432938
0.30497113769587
0.301352339717015
0.304194076579911
0.309275277259365
0.31522080275704
0.308580909380094
0.32062790904276
0.314963412192304
0.324025028022131
0.317108970339791
0.326310602141052
0.326632167245239
0.329270078622041
0.3301464726006
0.340956950488465
0.332560374566049
0.345280836373956
0.343359803450974
0.354601528042298
0.343162267920103
0.354145355869739
0.351291534406779
0.358958153961928
0.353883607594625
0.369910239508285
0.359791660435789
0.369403982442687
0.363285989926223
0.370532258890007
0.369335184608422
0.370236135486827
0.367755445064034
0.378267861166552
0.372223868143715
0.380024838337135
0.377382548748501
0.380488584444157
0.381836835282715
0.382781985018528
0.374472622144668
0.391042002757043
0.378121888633032
0.380585625233405
0.377298045551523
0.383216709505154
0.367337355290117
0.372945405577353
0.372435288575939
0.372961787839958
0.372041441350458
0.370572663584277
0.360231431716295
0.372456308441459
0.362342909577472
0.362134767854867
0.363327032973197
0.368839866829405
0.358198907609629
0.365161703210399
0.360326726595039
0.365494451029357
0.350667229833986
0.360797687678373
0.362922030556671
0.366832371860199
0.357650584768512
0.362295889654797
0.357525547298744
0.366199028456367
0.356090467229371
0.358894259822037
0.355084766693556
0.360594103797854
0.359607924449834
0.363356353137217
0.349936581217085
0.365686651447345
0.358012435566235
0.362904580991511
0.358691155526779
0.355648377035934
0.354944642994808
0.359730515482398
0.349091308090746
0.353912850115781
0.35467790520181
0.353694335403676
0.347028501513147
0.354146553214576
0.350929044637464
0.356323158141668
0.347119086551659
0.347574335560367
0.34119278424462
0.343392798061514
0.333657113075083
0.34493535853065
0.335453728311233
0.332974780300349
0.330580708278809
0.33460746357935
0.323265101800656
0.326441194751697
0.319942158439969
0.32032963760902
0.316414377706571
0.320903173290641
0.312316332098136
0.310629197623647
0.30656121344907
0.30456716121436
0.300483431506654
0.301038968340431
0.293832511674014
0.29826924659892
0.28724081900541
0.288373769621161
0.285250334320272
0.280328975194004
0.275729448379898
0.280900336339459
0.267197478571208
0.27571811217639
0.271476152152242
0.271706364633675
0.264886989491252
0.267545262423754
0.259190888129698
0.261948938657951
0.252255817690877
0.256346026845793
0.252721273836057
0.252599907511284
0.242257266765797
0.247425125403205
0.241056959264136
0.24517395635581
0.239404153645072
0.241096774451581
0.237403731068029
0.239326803301426
0.235227759567807
0.235522828646895
0.232351075334544
0.230464787347686
0.225925845738485
0.230174767854588
0.23032412302067
0.228869643104732
0.221001119582202
0.222456351439117
0.22233053485269
0.224019040324352
0.218513778176761
0.220037040919887
0.21670815126841
0.221214086420461
0.207817740199525
0.209184270722443
0.20699740902174
0.213890040346838
0.205889446343421
0.210432344869308
0.205761144939712
0.20731198889527
0.201831207443004
0.201790994418877
0.193364783477729
0.199403974829962
0.201660309189659
0.202235431305628
0.19046854523412
0.195165919972926
0.196121191601434
0.195864648635735
0.192827033509309
0.191526076174295
0.185046896717066
0.193573990350253
0.186126863395624
0.184988412072376
0.184355632885242
0.184092704063116
0.181800060506298
0.185910356102147
0.176661448357684
0.180245158073321
0.179825070820872
0.183429159963574
0.178720480633825
0.182074153072223
0.176598090743848
0.176464116048071
0.174743039108817
0.181458861345758
0.172696229627989
0.17864849946836
0.177500457508352
0.175526473149098
0.171225474551961
0.175519444992714
0.168776367819786
0.172349002312522
0.173626335583269
0.172355718506433
0.162600979566956
0.168268249994964
0.164567115137494
0.170714780489393
0.167068910355237
0.167218778357505
0.167410930352243
0.165769329243486
0.165119279400097
0.165961288793429
0.162039659635575
0.164995019396985
0.163608800180716
0.16180952658712
0.158729830717076
0.16471020881474
0.163212102464327
0.163578958839995
0.158566753941578
0.163482647535864
0.159537498052497
0.161583620101879
0.156165872057804
0.162635050844999
0.156330913473237
0.157040685245349
0.154652663040348
0.157803199259193
0.153612654729442
0.155850960325319
0.156343531829654
0.157865254709863
0.153739407237392
0.157080454895717
0.150474199073084
0.14956966456597
0.150563013556438
0.152801073624716
0.149265812870668
0.147756390003314
0.145653912990136
0.15314007664264
0.148178242502818
0.151008829662382
0.152454488716174
0.155773739676015
0.149208711041156
0.153939472008571
0.149569865723255
0.150607256225357
0.145484132319551
0.147021734788807
0.148818305336903
0.148865645185713
0.145309655531013
0.149292421243678
0.145129807479746
0.148175730287079
0.139263056276821
0.145664627326025
0.147357497841246
0.145149472396621
0.143661843101437
0.145391606514669
0.141655740383109
0.145916938735751
0.143772771848629
0.145552318865312
0.141759353715065
0.142813497054603
0.138370282154713
0.140923592518205
0.138802375186689
0.143661085740866
0.134248856231184
0.139574756644839
0.137419410785418
0.141887781672682
0.137329557301045
0.136463679152405
0.133631064768048
0.134696774618613
0.134524091592086
0.139160526923015
0.131516520346312
0.13516951439213
0.132539062833358
0.134690504406763
0.131700622171522
0.130801663924943
0.128436676461037
0.128956345471437
0.128496227800962
0.13405555964454
0.12968722907405
0.131263131465705
0.125311368409964
0.131855524522609
0.123189518634467
0.127070007101807
0.12721836550433
0.126462342530914
0.123706469904665
0.125655247947626
0.12331112769384
0.124341807192225
0.118168270673609
0.122042532173375
0.122714788228827
0.12362411268653
0.116671563457293
0.120487828870365
0.121315600945297
0.12147010578919
0.117743638862763
0.12123177540285
0.115159310860286
0.117484450955519
0.118207725796445
0.115052504370712
0.113830252242225
0.118860437748567
0.112038203080965
0.116765551475446
0.112735522326425
0.117142868369809
0.114917062036847
0.113161439882463
0.110378142956086
0.112806218106146
0.109349466739243
0.111342258418798
0.109133200422279
0.11218862793376
0.106556586815217
0.108238998282089
0.107818960831227
0.111668312667643
0.104942641760347
0.103955797376663
0.102825146609641
0.107756276628321
0.102902596400392
0.101080968159276
0.0976746637100176
0.10293004029681
0.0975497446953721
0.103127084805898
0.0989337813674145
0.0992666529169904
0.0991368085534901
0.0972616780374914
0.0982193708078028
0.0997877843585124
0.0935225686070019
0.0978339212591968
0.0954728816690785
0.0974152707389886
0.0923463474053375
0.0965621334919586
0.0937174772918994
0.0949003164285735
0.0914573938325583
0.0939597797660405
0.0912879130030636
0.0930403326054789
0.0910170636115554
0.0906364469521199
0.0889102857460768
0.0927700859259015
0.0887443405428144
0.0933374430105263
0.0891911252256576
0.0894889178446026
0.0877804038129797
0.0891586267645
0.0890643994744239
0.0936401009514988
0.0851206761741611
0.0858049408555874
0.0872933566981189
0.089048173990594
0.0857992153369165
0.0888535483861254
0.085516261318091
0.0862508180394303
0.0863582676988957
0.0863101566596704
0.0842328952855971
0.0888915736299736
0.0829955442636284
0.0854974834720662
0.0826871321105053
0.0873680044469465
0.0835201669077101
0.082453905597688
0.0818283343409884
0.0844166705029484
0.0795566513331802
0.0812110896209985
0.0804442041419703
0.0835461191440795
0.0811853985820638
0.0835696181808875
0.0806222445684623
0.0794142177959101
0.0779733579286772
0.0815616790433209
0.0753803488145296
0.0803289686370123
0.0777470243993559
0.0793679743346956
0.0778707353864487
0.0790324741744404
0.0746604606008612
0.0772167885355899
0.0754721541169219
0.0774830707416861
0.073701646600212
0.077488549904994
0.0768329112586365
0.0769966895504419
0.0742536101030688
0.0778503828140575
0.0738934691308545
0.0784021418140155
0.0753114017332471
0.0780821696263673
0.0731194524183938
0.0771610918561823
0.0727697812474173
0.0749816655152448
0.0728369312021916
0.0756336458092382
0.0732337013914136
0.0757783355596967
0.0721852924964146
0.073359968371329
0.0725459758437855
0.077217871771065
0.073212963458541
0.0766346769024531
0.0731140247587811
0.0703971659265596
0.0724204984021634
0.0752891976774028
0.069925778455198
0.0732590750634396
0.0727667126926563
0.0723746932890571
0.0697106609209794
0.0724529599187815
0.0703700415705503
0.0734822841667846
0.0679826583016336
0.0716488190420196
0.0726890376945927
0.071851355320052
0.0692813755382075
0.0728555129211592
0.0662876561878665
0.070460472124318
0.0703116460694118
0.0715097632602226
0.0675809327269257
0.0703907997819396
0.0667150984623921
0.0705557525233083
0.0667964456901606
0.0691596005925075
0.067151037664305
0.0672194457490224
0.0658554429620212
0.0694268821368749
0.0654859839036507
0.0673178806181828
0.0646439481438061
0.0673086608337582
0.0631950221093912
0.066144940195604
0.0625435994191352
0.0648977756059777
0.0647446576699446
0.0663811133445282
0.0643739603511787
0.0642284923510535
0.0634925450950983
0.0665541375317349
0.065384782724241
0.0662346300407696
0.0623565604973356
0.0667649991426166
0.0611710935673619
0.0657798875398225
0.0632623794640406
0.0652270747183408
0.0637974967535333
0.0643956552870141
0.0627791582289434
0.0645468503954375
0.0622190682162446
0.0646390611857908
0.0622466443918521
0.0634207244360311
0.0624069387202626
0.0637796867295277
0.0628939677318495
0.0635301513888888
0.0602794099073678
0.0651336538711552
0.0586606929774033
0.0595230610624847
0.05867727742811
0.0607091235770667
0.0578958102340586
0.0614993996320525
0.0565847927017874
0.0599191121647745
0.060747219069142
0.0578888171557456
0.0571315105623704
0.0618750471821786
0.0565086497648564
0.0565319296640696
0.0582156354402497
0.0568230408532619
0.0554488899216302
0.058220316273396
0.052854269836274
0.0558168628606549
0.0554226563880306
0.056444923255129
0.0558602841097808
0.0564699613618232
0.0513944566502695
0.0541652124819707
0.0533357682080781
0.0531284528666233
0.0536898142497501
0.0546558149706043
0.0507788459216434
0.052277870676773
0.0509947546047727
0.0526229626026773
0.0515506058300024
0.0529726674756478
0.0489036476392864
0.0530491636229936
0.0480765090353811
0.0525483269112375
0.0520462947470887
0.0509700992770776
0.0504210653609272
0.0522411978040891
0.0521097924934951
0.0504660264149073
0.0484864499579409
0.0510971210091374
0.0477249964508008
0.0526754328975428
0.050676625645897
0.0522824121722814
0.0498470437832347
0.0493148251525923
0.0486947976686295
0.0510390285296689
0.0480693487828764
0.0479754775911232
0.0504474010154605
0.049618025356422
0.0460490622926123
0.0464985778550983
0.0462757439730018
0.0489177493674359
0.0458254416332061
0.0476288910883053
0.047687038375703
0.0493633615894052
0.0445545708255903
0.047715902263073
0.0460621565971355
0.0444435789931969
0.0446826814526892
0.0458571540028982
0.0433711686930836
0.045248317402041
0.0450309468829684
0.0451507696209418
0.0434107134597637
0.0466209480335044
0.0439184598236898
0.0441999879912151
0.0434310170867176
0.0428728516610834
0.0424290387722564
0.0450731165274553
0.0413352873016809
0.044128684757747
0.0426749704928818
0.0417195344742897
0.0421528858110294
0.0448478933574014
0.0405714410509407
0.0444844359137863
0.0433234198617451
0.0408959691574683
0.0412382417128047
0.0426608834857733
0.0404118213372598
0.0443449190632111
0.0427546637022475
0.0416537800156851
0.0395978623981572
0.0421037710383555
0.041194656069791
0.0455444923527631
0.0418162432394842
0.0418545988641419
0.0407467724457644
0.0434705250495045
0.0422664205916424
0.0413844284301251
0.0391409714495951
0.0433546310708766
0.0397133405483109
0.0429058938362411
0.0424175133034791
0.0446257171583625
0.037229373366511
0.0355985150105056
0.0359391159461691
0.0389665409308182
0.0434959164200449
0.050493595679878
0.0426062467592607
0.0373915353492976
0.037054433180726
0.0488643439680804
0.0400032967642583
0.0423739304571833
0.043827523870278
0.0430065557618429
0.0419081965846416
0.0392564459548442
0.037359840950207
0.0435553411134686
0.0394691151327665
0.0459091449899252
0.0343550628680446
0.0423966050397779
0.0459037517682466
0.0482588828412619
0.0350811883992114
0.0397886451244337
0.0389306158208448
0.0361939585855278
0.0420182140941957
0.0429778432599968
0.0380091259881342
0.042233778358846
0.0439639140470525
0.0432092636807642
0.0411407743585696
0.0384854060185511
0.0421383662215599
0.0340156970358889
0.0335936567497033
0.0304805624020805
0.0391953783273862
0.035667571559964
0.0479111596040031
0.0382054690974983
0.0475495857146066
0.026898857492064
0.0439820928627666
0.0286404564382936
0.0588642828206441
0.0319539013732609
0.0468808361899305
0.0196399562171624
0.064053235362068
0.0245285113905274
0.0521207200765004
0.0207546231952106
0.0607672667137406
0.0310104801645886
0.0480959149960025
0.0295163401487693
0.0478341258908186
0.0351278104448601
0.0393884808268506
0.0440846373585936
0.0350510404842242
0.0425137523635859
0.0370592947207326
0.0420639110799834
0.0324810827643995
0.0418257488684098
0.0358789530300128
0.0361242803483528
0.0393207792373058
0.0359039882504366
0.0363174322570608
0.0366235817263457
0.0375999043891067
0.03719146531266
0.037130396938347
0.0361696309720548
0.0348077462028956
0.0384550812049641
0.0349790843522495
0.0346031405402814
0.0365231705778475
0.0359108305489116
0.0344591228371383
0.0369836109179539
0.0361129201352871
0.0367377571534103
0.0376455171804344
0.0366883734546865
0.0341168695174079
0.0366251027392541
0.0355497578398415
0.0350342966763381
0.0349231670874083
0.0359777466207289
0.0328176635896161
0.0374877802206837
0.0351469857774031
0.0343631752657383
0.0364587281803044
0.0350509845945152
0.0350184691434049
0.0376399715154949
0.03519317438901
0.0362504415564788
0.0363291539983908
0.0334124427858023
0.0343942230549763
0.0370281999164299
0.0338723140000616
0.0349862780900109
0.036586430753419
0.0368796080892908
0.039074887008296
0.040672136387458
0.0385145334805258
0.0373874622267136
0.0357943553431287
0.0367814351113249
0.0355812487747799
0.0359351808615776
0.0362772804363658
0.0373500421081737
0.0367356564375659
0.0369889609284399
0.0375695981944924
0.0390353494852746
0.0369354200120521
0.0381989094029012
0.0347158615089908
0.0350002504696778
0.0356060885158199
0.0367704519282571
0.0336861214179042
0.0357183645814513
0.0344680251161115
0.0367444278640594
0.0373643259254185
0.0382585919207536
0.035604008570668
0.0374719213375245
0.0367804211175352
0.0367814797282557
0.0353794085156284
0.035666510406229
0.0328689849408595
0.0378493690353604
0.0358575339666378
0.035291836336528
0.0369944646614846
0.0375452426927401
0.0348860153219115
0.0392846675183425
0.0347321583714037
0.0353112348669678
0.0370999780557209
0.0380968950059203
0.0379265445062314
0.0380451091107402
0.0348585174694415
0.0361047429864865
0.0357447720975234
0.0367112570205371
0.0364917547236786
0.0373807617763585
0.0366667104078593
0.0395154329184211
0.0373430334528661
0.0393668881887298
0.0376592278760015
0.0389421805119371
0.0391903730906284
0.0391190721395364
0.0379452973274957
0.0382748715469458
0.0384377608491651
0.0391824904048057
0.0363821377503581
0.041193010807686
0.0377196660371896
0.0381906550433157
0.0403888305455324
0.0403980714528402
0.0379838553093984
0.0405600044096796
0.0378018620251618
0.0400199912714348
0.0396320967778226
0.03907237051157
0.0372700623265376
0.0408591117871014
0.0390813107688243
0.0409681447089859
0.0396790765069374
0.0414989805095596
0.0403393991357369
0.040781817850515
0.0392171420421139
0.0395329479487686
0.0387266660892618
0.0389006620375586
0.0388068772450302
0.0412553528416156
0.0370037623188351
0.0394765039713506
0.0392491053830312
0.0408270760320534
0.0393481469845807
0.0414352156694328
0.0400002652139818
0.0397303302678797
0.0390620510949385
0.038802843835429
0.0386282314799081
0.0426280683517487
0.038844748275415
0.0405359620477754
0.040607417933312
0.0418488657952372
0.0420353037735326
0.0425221612765217
0.0426734675567936
0.0430817800925476
0.043192727320148
0.0417857573911674
0.041443447641754
0.0405052966979231
0.0392229363605359
0.0422548096187335
0.040605298674766
0.042492049435811
0.0418192590595924
0.042044421336669
0.0394167019158655
0.0432289327608854
0.0383735786223951
0.0408005130848853
0.0415703359569761
0.0425927232488843
0.0429405712657777
0.0423395859180199
0.0395899134241103
0.0410372891463107
0.040778389702626
0.0438308385177356
0.040768105747759
0.043553979651486
0.042538588647429
0.0407515238325286
0.0404857479104293
0.0419976502298922
0.0396643576250894
0.0414240691874442
0.0396133449195652
0.0418492679360152
0.0405594371780688
0.0379916098544855
0.0382283916947449
0.0404920104139621
0.0399962005661357
0.0420979436964366
0.0373640834440388
0.0403808263580768
0.0392441020212001
0.040749825570191
0.037362877413686
0.0399580722388836
0.039324655003789
0.0387066027104791
0.0401674460985523
0.0423442671111841
0.0385155728082995
0.0414072632699378
0.0411177064878471
0.039949638308468
0.0384062104487316
0.0388757606080384
0.0373237710745941
0.0407395637417015
0.0380707297277685
0.0383315227185426
0.0379451769871776
0.038103395119051
0.0366391658339959
0.0398554426939223
0.0397693369543731
0.039252575775873
0.0364632854103675
0.03839082675809
0.0385076363610595
0.0389649621569306
0.0376843302876081
0.0396866977033333
0.0380936525924246
0.0396988512966035
0.038013056263993
0.0388297340715444
0.0366496107517382
0.0386061688089037
0.040138086919236
0.0380257137576079
0.0385144841804308
0.0400265311276891
0.0391123838383063
0.0398760979606131
0.0371416926035186
0.03826022188072
0.0382773033397052
0.0405437060643781
0.0382303368041809
0.0383182965316393
0.038674324667108
0.0391386049460403
0.0385213951137749
0.0392860321805067
0.0365546559625555
0.0386093846717077
0.0379286065203532
0.0372762294336075
0.0366236872514622
0.0361933496113272
0.0347777141559017
0.0388108618990648
0.038114697795442
0.0379198717237288
0.0365987657121191
0.039051649598314
0.0365775704252903
0.0375577384091296
0.0368082847731706
0.0407212100296191
0.0366656002354847
0.0352286090902915
0.0366303595533013
0.0386420625542969
0.0354239349488878
0.0358241761964412
0.034776332675846
0.0370597063405068
0.036377181266306
0.0391185273076009
0.0347723063277131
0.0379953690300622
0.0365091953684005
0.033044754516568
0.0339829258449682
0.0368163727717017
0.0357108275160646
0.037362990457771
0.0361075144318587
0.0358400287182948
0.0344079611005221
0.0376906048039988
0.0370867278649417
0.0360740935042158
0.0345874747208757
0.0351389330826646
0.0347393985665003
0.034457817922091
0.0334132320734525
0.0360461680253001
0.0341976164976217
0.0366480421782712
0.0353280924571392
0.0362702707359845
0.0322508558755426
0.0335195150191372
0.0347111525150536
0.0337137806296045
0.0346324537565349
0.0356171159051782
0.0335724388062295
0.0353865253929069
0.0329113195026094
0.032698638453266
0.0320739715107805
0.0313449283486785
0.0318361477431254
0.035995333224661
0.0318213309195831
0.0314074007212407
0.0318553202526133
0.0336347643862453
0.0288866028308045
0.0321889409603028
0.0303073436463216
0.0314413996176504
0.0301797120277197
0.0307160838179301
0.0292223204497884
0.0322918638844661
0.030188630094332
0.0316088601717794
0.029749884454803
0.0313552003338768
0.0290015253624635
0.0291307511458466
0.0285888221310829
0.0314697297405351
0.0304229445794824
0.029569403530911
0.0280944850929234
0.0340751642868746
0.0251169610456548
0.0336376176747603
0.0349762478517877
0.031038921838993
0.0292330946683072
0.0314274592538102
0.0279094896108955
0.0305121497395537
0.0283307368218019
0.0286324262096243
0.0300679891577492
0.0311569967566061
0.0290470846857955
0.0302995734513735
0.0300855556362975
0.0293559272249639
0.0291411853570422
0.0295115657478759
0.0305146617264249
0.0295809367592466
0.0274648408941891
0.0304416958645075
0.0284252186586399
0.0308720871221244
0.0278399489158895
0.0308402155845395
0.0257394906466278
0.0263371022443947
0.0315035128995978
0.0326894895410205
0.0318078666248579
0.0281878554417222
0.0278312882382471
0.0280354241476847
0.0294006254264896
0.0277340282731294
0.0275787278197766
0.0289172872980591
0.0265706470798519
0.027281748550648
0.02658042131896
0.0271296094814779
0.0274060791111906
0.0294908830687407
0.0278711126033367
0.0249859411595611
0.0284381408885255
0.0251521564750628
0.0276115018413031
0.0282305627709619
0.0285788583584034
0.0274011757281208
0.031531718988217
0.023678138505553
0.0296937017232123
0.03228185522798
0.028146677711864
0.0275523484594546
0.0273687698735368
0.0290946266283326
0.0222910424058842
0.0260352099087023
0.0272186610321564
0.0261993641922349
0.0248440379069306
0.028246531697102
0.0253328323211476
0.0274726361337475
0.0271408707992681
0.0286840184421855
0.0238014486338394
0.0249504337214787
0.0260573155055423
0.0280156485515695
0.0239032102419213
0.027922643612536
0.0325769855786267
0.0296558707236824
0.0285288865794631
0.0275378393182318
0.0216766285602291
0.0407015159186562
0.028600915738866
0.0305579281052784
0.0229477146918838
0.0308961058966139
0.0232714777829055
0.0296673578905659
0.0209265238259515
0.0285482221352241
0.0272017550191938
0.0292823402218702
0.0253222451978287
0.0285998501927417
0.0244831724104286
0.026005767434187
0.0263842591457289
0.0264035263213038
0.0247803913920864
0.0275068688760676
0.0253659668965224
0.0281974769030453
0.0262524305070979
0.0284341581703493
0.0227403082438853
0.0301930969510309
0.0263468863253007
0.0290046388652457
0.0233924709332572
0.0273358214744591
0.0196213843158007
0.0304003035853016
0.0276648747711356
0.0263885800861903
0.0238088267615579
0.0241859039477864
0.0274725368349881
0.0247216327263258
0.0252552426013169
0.0271386100921447
0.0272056906254098
0.0257612993343327
0.0264439881347305
0.0270411113754199
0.0245852818461878
0.0259355818658782
0.0272512606800076
0.0243892657429433
0.0265545536473994
0.0253351275286225
0.0241836166038681
0.0289459152359506
0.020592070206238
0.0365739848226597
0.0297529251794638
0.0340052145018073
0.0269725062469858
0.0337675465197582
0.0246880470530414
0.027346681237254
0.0241114929930765
0.026891822210501
0.0273634510289798
0.0297929544619593
0.025284615985416
0.0285247845909986
0.0249018002653758
0.0289476871258992
0.0242674221686075
0.0271008327150517
0.0249827176715564
0.026166483602232
0.0259292305601562
0.0272771290111049
0.0238469167712035
0.0268013180989411
0.0282006012163966
0.0272761036080436
0.0285294395135947
0.0139182325763231
0.0459387493090282
0.0308223494466746
0.0346522017077412
0.0264439900192533
0.0312594860312402
0.0252801450744717
0.0242542741436838
0.026874935028684
0.0288952852915694
0.0270469062047359
0.0290066378093976
0.0258812840165289
0.0298713816212408
0.0299728597436731
0.0218310285450714
0.0360410802207792
0.0409068338106573
0.0302671561469312
0.0339850513206702
0.0184943987718318
0.0332785958515024
0.0403742533847432
0.0287446354501597
0.0293225931986878
0.025639812424305
0.0300196428569651
0.026355565088636
0.0286426495757402
0.0261084419596508
0.0348313570554006
0.0266888790718362
0.0322376960899017
0.0270624833237871
0.0295662795164163
0.0279626198414431
0.0249159894674045
0.0313357959729186
0.0325450352135632
0.0284793406535164
0.0345090274886161
0.027921185464745
0.0307031269801159
0.0263223248441068
0.0303949848105518
0.0243351678732284
0.0359753479403064
0.0318746728701711
0.0312821197680794
0.0368363871638455
0.0382324592713
0.029764411615416
0.0327895134980069
0.0283533653876983
0.0407013715569199
0.0174465371752532
0.0461754249335143
0.0312984434685208
0.0468478372252665
0.0334964189488331
0.03475613573589
0.0309047222928136
0.0335664474268543
0.0294111617482606
0.0295697707886215
0.0429481585490186
0.0290677763224
0.0397818097547948
0.021028559421981
0.0397071156790085
0.0295685902806391
0.0383929534809773
0.0317018351069182
0.0365505957671212
0.0259567107540786
0.0471075357371998
0.0284828671118355
0.0313304212037271
0.0487210456755191
0.0374890458876506
0.0547766692693711
0.0327715249979809
0.0359475940296491
0.0406267060821872
0.0382911072023563
0.0410810672598318
0.029124801988819
0.0424769357397532
0.0253821794140266
0.039804864384075
0.0560369334596025
0.0376626752744653
0.0436892001774
0.0366147942375084
0.0344408163601842
0.0509033053155967
0.0454125877401651
0.0398629591282705
0.0401333201231296
0.0426280065826036
0.0269440629684427
0.0720135401989396
0.0367173584589717
0.0569804469393855
0.0435578873590517
0.0602029987298417
0.0434805501290977
0.0529162355312322
0.0425485663632638
0.0527932292244733
0.0519027747867441
0.0561764476554471
0.0343021556251386
0.062748115955415
0.054219353202481
0.0540313978653052
0.052736951935159
0.0494558536397661
0.0413614145112997
0.0613041911275497
0.0761082050803358
0.073454078908835
0.0547633164955463
0.0598519456016887
0.064191441088134
0.0597351419566437
0.0592128201839287
0.0539741595972134
0.0588331970077709
0.0577303440562152
0.0553538856385482
0.0655104655902459
0.0567506630514703
0.0675222348330337
0.0574505957488751
0.0648652094669556
0.0591618441483075
0.0959686402257237
0.0722509383685877
0.0706346662347067
0.0751841026501768
0.0721621609185954
0.0768382214102315
0.0672900776281279
0.0717174605975304
0.07147219090046
0.0772283204868788
0.0729896235213721
0.0681641965767695
0.0921237093325102
0.0697119586350446
0.102150561425403
0.083880944000864
0.0932451731623865
0.0718258429994222
0.0833620262616563
0.169705747166127
0.0981503109686396
0.119674372866581
0.075915838489133
0.125396541311156
0.115316581932462
0.124791757338946
0.110262967341132
0.114962418723467
0.107879797174153
0.122354131999671
0.124010489099921
0.133211684194228
0.134391093061745
0.141984673972469
0.12222627438546
0.154289423801836
0.161866239557917
0.198560428825394
0.159537112086349
0.167895811399992
0.167697391140736
0.181534375641487
0.166854803314881
0.194201177245812
0.163505947244202
0.20542959148685
0.195073432704491
0.219632627807871
0.195449127504601
0.209660629984932
0.215935437840999
0.209465076039324
0.247527581758589
0.226231952881946
0.24427755653487
0.224596678130657
0.253222663998091
0.234215409457621
0.242817526214412
0.2661397946941
0.262316017663359
0.267836109926863
0.264170754599687
0.270311919542808
0.266622981062975
0.276833535487857
0.274110568976227
0.284601670177201
0.268955453910714
0.262662072264711
0.386887548753345
0.300418842606099
0.300406879152837
0.278846712183801
0.29444818443903
0.294607455452109
0.293750306845209
0.323691077150624
0.299331258907913
0.297101425327459
0.284120785944628
0.294481170875545
0.290097871959094
0.294012464745076
0.287370658210337
0.285288749818616
0.312151185558416
0.265454550606783
0.337762151088024
0.309863104113569
0.299867686280061
0.279564121555034
0.288017460682902
0.273207932499865
0.291750402157997
0.267886529991732
0.292720389662195
0.279046646808097
0.277392591114118
0.272011539100102
0.258033297587617
0.281460920228774
0.267431760703998
0.269354789004029
0.258187494785679
0.250341257934141
0.262793353274945
0.231373587034356
0.255420665065835
0.252345452232005
0.25482994199404
0.241157182224872
0.234035580768569
0.230676440830891
0.226101925303523
0.22626802518416
0.231644063150166
0.226342464514673
0.225743646217804
0.223068471751715
0.219259421386119
0.221676536477641
0.215399415426094
0.221777946633981
0.212107120547483
0.215731219175782
0.213020180460478
0.211147196995093
0.207064454821544
0.21314501062469
0.206034062815686
0.205330758551937
0.208039441791131
0.206596316538736
0.203973998345813
0.206438732046418
0.2050888913223
0.205399205903878
0.198111657009181
0.204902654112135
0.197720620645461
0.203886015468105
0.197593301547303
0.199556803356866
0.195993955075734
0.20144506288556
0.192887170771918
0.201956648861517
0.194079791665991
0.200438906111847
0.186485843488482
0.184154481481315
0.226871017069718
0.203146910541543
0.204954704072144
0.178458848906009
0.20012317889442
0.179987029547921
0.183373470980894
0.206019448563297
0.194165305515428
0.192067133047661
0.18135137609454
0.176188959406673
0.188782900869132
0.181381595168798
0.180641158640369
0.17536126196436
0.158571426026486
0.210985378012993
0.158622109209292
0.255837320150983
0.1924202354083
0.203001441616072
0.160446402592189
0.195406472597673
0.176923773144016
0.182425884925701
0.167238165411632
0.164152161375754
0.183688336394635
0.171180590962735
0.172229159539286
0.164905788087268
0.15834347837701
0.173262230814232
0.183783846461765
0.159152646829539
0.185552124016556
0.169088292042205
0.164717522799459
0.17115791227206
0.200032912006883
0.171157136235254
0.159696037162433
0.160674347899131
0.142533048513089
0.162057383313251
0.158085934985893
0.154005455718759
0.158236262501171
0.14275225865031
0.149351977654339
0.142246496806328
0.168757584270453
0.133012120291384
0.15674245179066
0.148724525167455
0.139612525543768
0.143176154865979
0.13133347751431
0.173718401145878
0.159361844433169
0.15275942179812
0.12211006565601
0.163123168625739
0.136357646304185
0.14767121376716
0.141116612419997
0.125961992499104
0.136491763341543
0.139530069497991
0.123068847317136
0.136989199485232
0.123304986036517
0.141435464951853
0.130752257009381
0.157187587427465
0.158360705908554
0.13470252365565
0.12642817468443
0.121902823612122
0.129115391341407
0.127831656682268
0.110779042553317
0.155934598026502
0.118336017566112
0.137225782343504
0.136895278412302
0.140017345270806
0.132451668044311
0.135541302710187
0.129551523313597
0.135597253424513
0.145044639018113
0.16952649286195
0.134137023560593
0.15554167240305
0.142460275107948
0.157669370830028
0.14399557351385
0.158462401097032
0.150023017003381
0.159517264337863
0.158788281652002
0.170059195695772
0.163254657040591
0.178661684311789
0.156831647791575
0.20631946826231
0.184278250519567
0.194995161994763
0.19336060515119
0.201307242577905
0.227054524546773
0.21089623190537
0.217770029410738
0.213540488912814
0.220777636278752
0.224347060294209
0.213278354135941
0.243148831171325
0.236559440404627
0.244699363790035
0.238423594493663
0.243004886917117
0.242788719745706
0.246936808210614
0.264463784452262
0.244373007492866
0.301967027189831
0.263928463748776
0.287299123656144
0.259928865037677
0.264197948690449
0.267178114452269
0.263503363248151
0.270287768353772
0.259353485577497
0.265667333357778
0.276192852551812
0.272682161229385
0.272602166802837
0.268024185018191
0.273948537626556
0.26818795781287
0.275103323577796
0.281602007587522
0.275944850512416
0.288986395974216
0.273678168070294
0.288421208729498
0.318792087191779
0.301452128856716
0.29851346286482
0.28769663596759
0.301924022910029
0.296595796535588
0.302152731811777
0.306237039030424
0.30602343830704
0.306590308448776
0.308290293822793
0.314384767298013
0.303624174998523
0.317693938966377
0.322280722299565
0.314089153545748
0.327123157773981
0.296409915701519
0.355307726252116
0.325447695690715
0.34261069321717
0.322994767911218
0.337390840520479
0.318649665670241
0.327462373598958
0.327026660701823
0.329445837692279
0.325339728483285
0.32940175945086
0.329191096722103
0.325272600511348
0.331652502291089
0.321412110390695
0.324852868590109
0.335180157545357
0.327474770063086
0.322353849438598
0.324667691414001
0.323714916827192
0.311613825070218
0.338161836041201
0.323360515949604
0.331389820436029
0.314017035486693
0.31541731101321
0.331966661415684
0.328072122242246
0.313486424762615
0.31970797955082
0.313279982014799
0.325747361773872
0.310866832820251
0.327354762448863
0.32386875178356
0.33409383425191
0.320269936433607
0.330529538753106
0.326013158923184
0.33547956515629
0.331542455042659
0.338024209327417
0.334203092378449
0.339280625715571
0.342958626120751
0.336660728237188
0.341486587683176
0.340403857240287
0.34371556554563
0.351379146227706
0.340828575471371
0.343264977315572
0.337347174277832
0.342670226645793
0.335592082506139
0.338792619151904
0.326152403551836
0.333312532413661
0.318981316548576
0.329676966681654
0.328914017950871
0.321626160883296
0.330204656692682
0.315179283396606
0.318808188641777
0.310822266005507
0.311809689850561
0.304214676850032
0.303866974567305
0.303320234293815
0.301067625350997
0.29947525757395
0.300921722879995
0.298049622999645
0.295420407502173
0.296807382578134
0.29554708678497
0.295024479909184
0.292824618525954
0.300146886965466
0.293197667328958
0.297029523990852
0.290535971577502
0.288478606228924
0.295938209503446
0.29822365765038
0.299299043893807
0.287388326074423
0.299041759531329
0.290618362410677
0.292681133008088
0.286690193544085
0.29046397500613
0.291473514232342
0.288708071806264
0.287969234912207
0.290829008904823
0.284992927807703
0.286045143785744
0.282383629064241
0.285401657209098
0.281558542502055
0.284066118831457
0.285897576334923
0.284098365340644
0.285601182343011
0.28277302011813
0.284017173149423
0.283623609962097
0.283336243024584
0.276635961513773
0.281906296107729
0.28095645695606
0.278650741745527
0.28102373284333
0.278637119507798
0.275227822802773
0.277984117579088
0.276375413305829
0.278407419068425
0.278196241818718
0.274760601921894
0.272771767434409
0.270774450447268
0.269838816287777
0.271806859984548
0.269466584776416
0.267185918691545
0.265121064099095
0.262056947008194
0.256174291094913
0.255941830164284
0.254435771640629
0.250568658449854
0.249918314887815
0.251399345157019
0.247721532020284
0.243162840668905
0.243125610269733
0.24162521247828
0.240605413614549
0.241968733290607
0.237752756736449
0.238576343554302
0.235493147815938
0.235557557281245
0.238248737819474
0.234899003206479
0.234869740702669
0.234752091861502
0.235205833340992
0.233378518166002
0.233528335033272
0.236973464332895
0.235889131401999
0.23669672025971
0.238127646253077
0.241342836042107
0.243459358103729
0.245117766983781
0.244616727276303
0.242604505516237
0.245840732186079
0.246211893413076
0.248454119907278
0.246266302608362
0.249129647095214
0.252907728162033
0.252097223231064
0.253139833899183
0.253799253407912
0.251859392876038
0.253186691029339
0.253837021970064
0.253979851200703
0.252089579622106
0.254625388411989
0.252339262040564
0.248565789660496
0.252067816413631
0.248878934549633
0.247467695843519
0.247137471822822
0.246399618530231
0.249593662471929
0.248409141710859
0.245387363600194
0.244832850922663
0.246046914964292
0.245018930492001
0.241423143527412
0.24420223214993
0.242051615766493
0.238155197992339
0.238856800284067
0.238113820703432
0.237213382134269
0.237192746912425
0.236073306176874
0.233543984012691
0.232801490331083
0.235209891337408
0.231725334314918
0.230460828693879
0.228125614109961
0.22897094080563
0.228033456731369
0.228944494756784
0.226821026851485
0.225304257491457
0.224334684393492
0.223099637624811
0.223814491879805
0.219585775204901
0.218748159154671
0.218707206552444
0.215268791285169
0.215417298814931
0.213114902876704
0.213660640178275
0.21365991453041
0.209950373942288
0.208906617789049
0.206904688737972
0.205212044167642
0.20571248435816
0.203644217838427
0.204379367986219
0.206793066164058
0.20485090582512
0.203417467509089
0.202166369957898
0.203746434459275
0.202475666433487
0.201669413033419
0.200907701800793
0.202350903663929
0.19964976944204
0.197487927513411
0.19596770701533
0.194853778393699
0.193114301581903
0.190958649866399
0.186979954192323
0.185170208450681
0.183376387447816
0.178766258280899
0.178341514119562
0.177274697288708
0.176386122101979
0.177295886976752
0.179346300665591
0.181019336203928
0.183613873283436
0.184345913119115
0.189253473400099
0.194981626778478
0.20023555009456
0.207265805372502
0.215358165132627
0.222712318036916
0.232293808695592
0.242745246322461
0.251563668564655
0.263155964896828
0.274839066465443
0.287043375781891
0.297093931643021
0.308607504818577
0.3193798685527
0.328600672235296
0.340865917977095
0.352743294627758
0.365501682677481
0.375048013819966
0.385804685503998
0.400803162042419
0.41021210251324
0.421043620614888
0.433071584336736
0.440451375465539
0.44784837376183
0.458300836033181
0.465411508186728
0.471483946608659
0.480972792255502
0.482405423586271
0.48690662171731
0.49052760250967
0.488513893722753
0.491094295048384
0.49057597559654
0.488084981897594
0.487301465948934
0.487241378489729
0.483224898495987
0.482315512595628
0.484589882461322
0.484081093140169
0.47965728010247
0.482551769670579
0.480944080285736
0.479078492084077
0.480021693897923
0.483066069784173
0.486077279831088
0.488023584292417
0.491497596456712
0.494997579624118
0.502474403652531
0.502460983334153
0.507171871460018
0.516220288464203
0.521743508269957
0.526408225790057
0.53956488658489
0.544270772037996
0.557451471283727
0.559835829459732
0.569054143076349
0.570466735242073
0.581986225882327
0.585533881229295
0.588069555359644
0.595775695266926
0.592753935212567
0.598486463269778
0.601634739958926
0.595714806914419
0.59611773708098
0.593133200645895
0.594372291828365
0.590839352828774
0.590905364879086
0.59305833446327
0.595271305311119
0.595905830690772
0.596742948049731
0.605098525733432
0.614314361200192
0.620038423288202
0.627424754117687
0.63755377974974
0.643959160626494
0.655652196455617
0.663382529423725
0.673163721508526
0.683510634548908
0.687337768994482
0.700649473524639
0.706863617586795
0.719412350889871
0.72659829865433
0.740296035080516
0.756033084524608
0.770054111077219
0.778032429887713
0.79159686589329
0.816223667160419
0.829135443811199
0.845654177481078
0.866737036734877
0.886458075926262
0.895209964420358
0.912802098758192
0.940553706595677
0.937355113161437
0.956133788031067
0.965903872560482
0.978116756494425
0.985321323267546
0.991671618366869
1.00408203535854
1.00905459192607
1.01059317157102
1.02181950676479
1.00714516430785
0.995435729774692
1.00074892590356
0.991943967987802
0.995058844423896
0.992250887036974
0.987506450246638
0.988515791898209
0.985162426098646
0.988974795159865
0.996117900826075
0.985270918576149
0.993992738842686
0.996398476728876
0.992619311014685
1.00679664387875
1.00491575247817
1.02235451547508
1.02254649886272
1.04761698989838
1.04294274649455
1.09206944578223
1.08299156867092
1.08695785233439
1.09804121197931
1.09555337309029
1.10492161570328
1.12608625096638
1.12891767490789
1.12713933971493
1.11768327142836
1.1548987915426
1.13419396192046
1.15529337205504
1.18436295194464
1.19278034372048
1.19412052878511
1.23151705514485
1.2580552488973
1.22849582152726
1.21410041858062
1.223631885022
1.19190680399945
1.22539740909621
1.17634646109117
1.22368498366886
1.18928046914113
1.20972047403749
1.20900484082937
1.19925076397145
1.18234465123406
1.19821377143108
1.15650030174413
1.19353107357904
1.16947070543639
1.1488160990902
1.13089475915244
1.11732663541892
1.0619037574688
1.03640831480756
1.01040671325223
0.973690768338028
0.957525392645661
0.905602355787144
0.864445427984012
0.842256713697455
0.809279658331449
0.778288456403572
0.740576039466371
0.732193934040523
0.701043889776156
0.716411007200654
0.684647290868372
0.681365687765126
0.663741198736279
0.648600360664817
0.646661146999495
0.644036007734955
0.625081593951009
0.615852804426757
0.612158417295859
0.597247839534273
0.583371536419778
0.566296110673626
0.553437377445684
0.53671239816879
0.523523778925582
0.505124718777091
0.492651999062594
0.471128938397332
0.450449987525666
0.432384155711973
0.413645376762424
0.399473801779583
0.374706600563386
0.362135190119017
0.340196135221658
0.322836815119636
0.308525429702032
0.287730120788324
0.276675693480242
0.261403579007875
0.248446670167166
0.238047761065605
0.224502628021849
0.218887798089423
0.212131311027734
0.19942991822437
0.19603215792601
0.191136805080505
0.186311628468175
0.178210648362781
0.1719131835843
0.169560630658278
0.165817657444987
0.161877250295197
0.160854409576357
0.158403501636107
0.16249241476963
0.160475405452598
0.159739506301358
0.161361979769022
0.156786624518859
0.157247228676401
0.15998658794357
0.159905467395851
0.162212009717178
0.164115190338079
0.166484284050867
0.173883122855917
0.168938760914945
0.172041255527628
0.17214440612584
0.17450968208875
0.172710010489891
0.174184895173307
0.17251737231257
0.172094634168726
0.170091778561009
0.171332040499498
0.17055730310901
0.173384344202626
0.170036029662989
0.171282156094839
0.16859484211799
0.173964639841819
0.167422182616082
0.171580283050152
0.176166719997822
0.172440481079829
0.177206099086217
0.178819576338711
0.177313234239387
0.185668370552913
0.182317953700113
0.179948567594929
0.185056574354336
0.19073775797374
0.182938480504873
0.188861114225283
0.189318879359508
0.189184707135187
0.191032926401452
0.185866310057792
0.184991766912235
0.192111274997934
0.187000454373702
0.186049176367555
0.18457276570284
0.189559313644357
0.186679832379404
0.191589760401593
0.190590841050413
0.19079324983518
0.198687272520597
0.199278202463222
0.199155450542729
0.208973164165587
0.209059170387246
0.212888532489335
0.218329499304774
0.22608070768398
0.229350007951258
0.241593025099702
0.239193543982803
0.246481631306547
0.256470168698228
0.245207164412847
0.251741494513571
0.254606611255793
0.253023212076703
0.246034983448012
0.236918110714057
0.241462615576143
0.231447745773304
0.234174869568051
0.223744627731727
0.222737641530446
0.222148786640787
0.214887265694574
0.214480821623994
0.219093016101665
0.212270743592858
0.224119595095618
0.222329106979955
0.220533951561543
0.225629777249226
0.226087357419848
0.215095249572757
0.220445184053939
0.217834937541215
0.21036622012467
0.217732018623706
0.215616565884005
0.210740856636415
0.213928500917592
0.210724326990268
0.212479282042566
0.204840781360808
0.19804595185098
0.193753712453789
0.215553004414067
0.205756934720076
0.199713964144042
0.202421388853003
0.19694825933584
0.194497054112549
0.200647080763711
0.199161537785727
0.197927006425757
0.20448886969017
0.192067411971805
0.201766308447648
0.198472052819802
0.196211038090789
0.193526307050085
0.188863500369625
0.192674291134509
0.192181313191823
0.200338640106585
0.193095211527775
0.200607376234034
0.194405861290106
0.189261577397143
0.188777236955733
0.193926872837162
0.184147273214035
0.193301516914434
0.181027671720537
0.172467627665993
0.176659333218499
0.183004665955157
0.165109269530116
0.182920473047982
0.181060462219649
0.185514730246072
0.17724177942311
0.182586302420704
0.168841644173397
0.181538752600261
0.179945830047238
0.177764339750437
0.183196793444383
0.182073662013376
0.175960065891668
0.18497171693024
0.187045207052018
0.188424762511777
0.188738959875524
0.200288377256292
0.185660983301049
0.196800950148806
0.184628761379719
0.198186677195066
0.19963443169961
0.197981106122617
0.20026071048642
0.20378596912087
0.197068581275888
0.207778178119689
0.212411553693019
0.203738645056367
0.210628462687922
0.223942406820233
0.200777385505853
0.22836284412484
0.221694649713987
0.225953470026479
0.233341012476848
0.254690774612305
0.243786335057205
0.254726590585671
0.267459924023451
0.262899348287514
0.271576422851482
0.274940424772987
0.27800904386872
0.298438753447893
0.296386023873682
0.305548552809265
0.316906223122517
0.321081151047424
0.300333170673616
0.332398110640101
0.330656988042589
0.339518914443411
0.333958958112388
0.343821532107291
0.319953551174933
0.33268642003478
0.354989790567612
0.345119967829968
0.329062578454642
0.331015248579849
0.301692219254258
0.342476989210755
0.339600109808505
0.324462277067231
0.326357081683292
0.318207444874543
0.311464787562604
0.329591243473101
0.303623374448041
0.321259627899307
0.337711510533523
0.32645927542371
0.298239235857406
0.309028171445907
0.294690966870378
0.326488993820431
0.31283128472354
0.299216500785993
0.310778000268162
0.3247376850058
0.299481680376803
0.297886540494947
0.311458140385802
0.283525671179628
0.29814847557054
0.313049600398797
0.281061217549372
0.320214464898113
0.276206163714267
0.265891054263355
0.284650406150328
0.285956356756789
0.29752305813397
0.316797656984043
0.302561955511615
0.292543613290838
0.312015614835376
0.290495122011846
0.270504980553719
0.312860965600685
0.288161092962108
0.291612698492912
0.321918847636542
0.312172187317952
0.309163455113556
0.324658196796965
0.315003418218744
0.312101200770494
0.323767123529973
0.346251090709291
0.309929400875169
0.371746549520758
0.305132871247796
0.333945824736528
0.306077559310267
0.350253542163976
0.315049201066289
0.355738892147909
0.320136415201272
0.36243891149703
0.338250725975221
0.363996313241451
0.285894287379705
0.431333507300294
0.323188697178712
0.381328575713765
0.385841812193469
0.407760396524031
0.337945845677481
0.446196346030038
0.366105973371754
0.391822811341524
0.393911547334482
0.328422670171721
0.366623999601019
0.447185120301656
0.376399598314652
0.451515044724332
0.431169232203322
0.383994829865826
0.396411810530419
0.472900072770644
0.362119477749082
0.462813580709838
0.393072488529509
0.377616426091367
0.368742652089961
0.447583484470806
0.403853817381178
0.414225244198155
0.403158290683905
0.393821631998716
0.310467378211915
0.397712573446163
0.31234169963561
0.449000805820437
0.384919145245231
0.395924735112652
0.399271447837564
0.383761519621471
0.329827952743737
0.392012718163198
0.324101888820135
0.347719308434755
0.394899056320315
0.424318018173793
0.347648523796402
0.463455649268972
0.328809277637185
0.274383809129972
0.465414456179713
0.439748744493443
0.361822203424474
0.482625459742915
0.381464210318067
0.313237123399875
0.521378385558279
0.347343874701673
0.305462069141708
0.429868316504999
0.302578958555638
0.5665738919616
0.48255890029783
0.354898594478442
0.227252603103716
0.578088451314699
0.416547659675223
0.491499548516071
0.372287048635262
0.376941758226244
0.303792981421422
0.360135019537762
0.0198125100999258
0.479444701269275
0.463918828260111
0.727294058822063
