3596
4000.36533379555
650.420452594757
1
2
2
0.0830364047809009
0.0640177965139076
0.0764121176540642
0.0636467818138712
0.0781072088779157
0.0653281132331596
0.081857380315093
0.0731901930950297
0.0825258102065793
0.0726423258026471
0.0827225226334129
0.0586653035103777
0.0807830743266661
0.0628140267828813
0.080634383400327
0.0606894030536348
0.0838376057748491
0.066442421622854
0.0782800834227802
0.0622073934394388
0.0724154053413756
0.0566394939975873
0.0861904376234243
0.0608462653246886
0.0845753189120348
0.0667406266286986
0.0750581531049448
0.0708654883446511
0.0853402950359375
0.0749673885134195
0.0779916395324489
0.0667774733351584
0.0756082779125164
0.0623692077038282
0.0866940306582133
0.0647349699585057
0.0739916230010222
0.0691391054415889
0.0714470716744795
0.0714516913900251
0.0820673458738982
0.0698071442989408
0.0843022554035043
0.0662385584650428
0.0794271053361009
0.0615224862072862
0.0873209145924845
0.064676673432917
0.090135561422459
0.0593530284257935
0.0777590969026998
0.0669760496878462
0.0985512459133453
0.0697990859653533
0.0840248374374985
0.0781696616517322
0.082305783432633
0.0575703976375775
0.0803856918488878
0.0672033907169271
0.102405341591527
0.0734368849290395
0.0723873820817588
0.0696584626135909
0.0785458591591428
0.0711945801055007
0.0845282311040808
0.0660725729575093
0.0771898002504684
0.0642466635271118
0.0817898791425259
0.0854729210473767
0.0985773521028468
0.0645072559489827
0.0795255207006731
0.0685655200245278
0.079539724901093
0.0677144856771785
0.072255379285505
0.0781123211608604
0.0994076594111745
0.071764731089734
0.085073840734417
0.063348077015566
0.0870366347246991
0.0892331106342316
0.0700041160642193
0.0749274815655288
0.0972371044341421
0.0727346847430723
0.0778953306103589
0.0565321020640424
0.0681947066571281
0.0590365457806507
0.0769716538094093
0.0658836952022146
0.0690218933820375
0.0680060162286618
0.0704220047878875
0.0779712369518901
0.0821671986445625
0.087162395930377
0.121572759931986
0.0649292119922995
0.138385209215442
0.0777031920639877
0.0861556984605896
0.119343418174086
0.090397251630032
0.0644400569496329
0.0774001027756135
0.0611518634899876
0.0763087751726009
0.0700379182730436
0.0664022078363612
0.0935940939646723
0.11583419125017
0.0694485125470721
0.0784454884826894
0.0705249473505053
0.0589339621362707
0.0933002577423854
0.118704904260834
0.068913760355308
0.0993952155594182
0.0723488224926578
0.0752542010936405
0.106475994488124
0.100529005232316
0.069946718277942
0.0771716427964359
0.0628558298107118
0.074543751181694
0.0637401578611521
0.12122808693147
0.0723937010983035
0.0772781229705846
0.0579980930576549
0.120102633964454
0.118408170783105
0.0912031166007126
0.0740519872606281
0.0709575728808918
0.0765074157615439
0.119831410984828
0.0810044333994499
0.0761980199529494
0.0869006196852129
0.089704922143046
0.0672011819010881
0.0734930076639685
0.0599376079556765
0.0925875742049456
0.079094485014549
0.0467491610908533
0.113394323123675
0.141083113145196
0.103621501617882
0.143830628945141
0.0723449123937157
0.0905971847218121
0.0741945779592013
0.0805071544492709
0.0627791322139517
0.0848532742156345
0.0558493688445408
0.0967373282457414
0.0887111193982848
0.0720280057269726
0.0708144428046849
0.115074235571768
0.0900938738399173
0.0890971992581727
0.123700603619188
0.0901581625362608
0.0674819144298739
0.122402572058795
0.0794408432569071
0.0698677063458007
0.0742967539223182
0.110124237969883
0.0638540745825885
0.078542969863055
0.0608414819481132
0.0884802679639602
0.0838770339001501
0.0865688819873237
0.0742407070808754
0.0778084058950094
0.052573971679551
0.0983307028328679
0.113288645242209
0.117686930295254
0.0681250596096519
0.0864946299233416
0.0486246412972796
0.135605034538616
0.0997048767293321
0.0942296144667662
0.0682218080889277
0.0657168308006205
0.0692404804589478
0.0795834329979014
0.0648032744504111
0.0718602487579838
0.0454066389266609
0.135671056879374
0.0938981838843894
0.0749134061149596
0.0617558168557308
0.0875877339715129
0.0537666578359205
0.139951050013247
0.0956274283279043
0.0782643561076952
0.0760047750810074
0.0780745547305583
0.0936353778412832
0.101157682604291
0.0768915021836313
0.085275670040991
0.0730647263417088
0.0761352219014986
0.0694176159071594
0.0815415147616437
0.0741297903035648
0.0777989124391524
0.0734304848890412
0.0840511156400685
0.0692941042275355
0.0891999860474765
0.0714519056424758
0.080135475025018
0.0742034967526406
0.0763332430967713
0.0750098945357777
0.111267336113892
0.0782615207245598
0.086467284206329
0.0744524706628557
0.0925658119912131
0.0732079105420297
0.0815267197300851
0.0766286556504611
0.0783912022137025
0.0657391943994448
0.130758824758415
0.0736073105867312
0.0941394770398788
0.0648867599684682
0.108267250077124
0.091858647130018
0.0866377256433232
0.0680192700419981
0.0932548528716014
0.0668270833568445
0.0865507421295718
0.112644598809335
0.106081341742899
0.06719393813635
0.115928770851528
0.0868347375905902
0.0914721212356181
0.0755810279482552
0.0889867413886797
0.153054208820118
0.10119207758292
0.0636070389413597
0.172034644653149
0.104312822024641
0.109136372484511
0.0785398635957547
0.0585674549440208
0.20822409661474
0.151758995579427
0.0865406565604732
0.10472243118176
0.103959935288779
0.0835939097355146
0.0971113946087158
0.103033843981976
0.0987683713549193
0.126073665019492
0.127532101409141
0.163644760896782
0.0682777369686599
0.143933666166643
0.125446588182071
0.109685334119886
0.0896160564213098
0.10629814114719
0.0845790079546983
0.122352308535534
0.109971003622115
0.128857366697537
0.100607751064748
0.108742989299132
0.121691335581969
0.119449184404017
0.0984997142373753
0.122536032978051
0.115805880534983
0.114297517933
0.110015324747627
0.113115667953852
0.116798216671825
0.110170917840756
0.105609431058703
0.176745743078105
0.118575546988691
0.129403548094716
0.146585295959486
0.135620265449312
0.120117221704575
0.122071551700799
0.116392275885941
0.12655252305951
0.111856225433676
0.125521964249834
0.15014292051669
0.143716045554
0.12261077206916
0.133087528509703
0.126512101643941
0.145854228208013
0.132837970995199
0.143536252152944
0.138032213940563
0.149330320273522
0.123442252944647
0.187128333853535
0.180665251958839
0.148325372682893
0.186827045112221
0.208361940067993
0.154700216305586
0.171456568776327
0.156800505012866
0.177584242423209
0.164325597893546
0.187279928339282
0.171199477543707
0.196611179407824
0.204021855856697
0.214502162040608
0.181866901165015
0.211117184545449
0.26684033565267
0.287874416376045
0.221886307040024
0.227504369826655
0.189937518426423
0.267857039508011
0.248162290709926
0.262372318374765
0.265121802653053
0.245532173163224
0.250711256653391
0.249654308965177
0.260038948599674
0.268024756269556
0.263988308776641
0.278941233412518
0.277466763385702
0.290716110062713
0.28945352731816
0.2896911421677
0.294452286581483
0.36205746668482
0.311026856072238
0.313658936164374
0.311679536579986
0.315024594933965
0.34755042141998
0.376149578387154
0.379145272298894
0.384158757200103
0.363409144988187
0.424692571572683
0.349579493668337
0.377335249636423
0.345767602483262
0.381606445300064
0.371750475396707
0.39979672737348
0.371693866273639
0.394684838407195
0.398006649598408
0.415143430550052
0.39407488934231
0.427756540285678
0.398966878606327
0.455449281435906
0.409339603665114
0.445007653903842
0.407359524381622
0.473572450743683
0.491439961044052
0.518565597773978
0.443574003179461
0.480475828692704
0.449164234009689
0.470995547782367
0.446162122337836
0.496233658629377
0.468097987027289
0.504379194822148
0.518197582095403
0.526046290876583
0.502733338136883
0.5334884715532
0.484508376962608
0.543520183552766
0.525357203354237
0.567318324148396
0.544479549309685
0.545882045386047
0.487108469225178
0.598992874808278
0.53169565161177
0.578023417020003
0.554062601316813
0.564523810178243
0.540795219952657
0.581043048674364
0.555167590052881
0.582213820237371
0.572516950811105
0.613216224389431
0.57381475790355
0.616432381741795
0.566457146776309
0.620475262201237
0.597482145433306
0.643886276708323
0.588162730778776
0.649060984040508
0.582585825419721
0.664553592713203
0.594532462507413
0.720769323667074
0.627386731573531
0.686143682901838
0.642637725320405
0.637199972944317
0.6294096116608
0.677803720078449
0.638616211420864
0.691493321761842
0.676838101090427
0.703379262001929
0.653397701728372
0.652555039769912
0.684574376367432
0.71495552772789
0.69539880949705
0.730182493566818
0.694957484830287
0.742019411573743
0.710728568288972
0.746200918389611
0.685283383561978
0.818630270562716
0.756384011583628
0.839840444666341
0.736152877163614
0.800389690797107
0.762003620029006
0.798599088439334
0.726646059563391
0.74557785147915
0.734228752174831
0.81823874619259
0.764326327274823
0.84021738291754
0.761747482886633
0.817113984539767
0.81352476783493
0.892698810261271
0.818007136428292
0.856366505116761
0.868505110855887
0.89382611864062
0.818717637062499
0.879124873966022
0.791004915390699
0.856398371770714
0.820574143969373
0.928925558100642
0.812641647331592
0.919213515231052
0.884107226901048
0.957319899930049
0.879974127207908
0.975813534534168
0.895309173397029
0.964762234791963
0.882554350616435
0.992952962966045
0.888036215553544
0.951469842207759
0.875671485675448
1.02195837936552
0.983572347193681
1.08041604821489
0.866313110547119
1.09032947374617
0.899275037582917
1.0502401682045
0.907037426596809
1.02570086545674
1.00700076341564
1.03457797863796
0.962620262636124
1.04109994590881
0.995932774113378
1.06206843743273
0.941080625546157
1.19478842980348
0.964447251644469
1.10187855037642
0.994166809628384
1.1347491238355
1.00662835003697
1.08506304213918
1.06637110234911
1.13334974279742
0.980194200283115
1.13871352233801
1.0109207884301
1.15178846620935
1.02259812209267
1.16142653974321
1.04566707100328
1.18404672013781
1.07807501200685
1.21031572542423
1.03252554000858
1.17693168536232
1.04517127611712
1.24545940440464
1.09414688440339
1.27243157061099
1.06788851162779
1.32344458481612
1.2515332963117
1.1975258649297
1.13035141374558
1.32374925857256
1.05436860787829
1.21668997859084
1.12809090222072
1.29619018968825
1.14860454695886
1.28582737833237
1.09267559459856
1.25444580128199
1.16600544519548
1.35334677955006
1.19646931530293
1.35567771400793
1.24638994752289
1.32268856788738
1.1826849010122
1.38457227195924
1.21581811892273
1.30613296816297
1.25006149060546
1.33230949844004
1.194392425398
1.31632612025386
1.12234632550511
1.38883281496022
1.34397267168263
1.56560208556244
1.32004111439501
1.42423650387855
1.35783287391607
1.42626829257084
1.24677665117863
1.54486147506988
1.2739273501938
1.45954338118431
1.45125546535522
1.54580022492539
1.28246702110211
1.48369054147609
1.30239273187548
1.76061558512458
1.33234122434688
1.34262931367577
1.20932846188122
1.68224428819774
1.51923379098861
1.83330185460948
1.32100235309294
1.80650339019556
1.40399047937504
1.65157503716659
1.36693472273422
1.62725104904476
1.40618153717097
1.56425458604235
1.27695805573756
1.67400472816491
1.33995574832919
1.94524777961768
1.3342992724995
1.69365129464091
1.37723156906961
1.66136323709671
1.36854658894855
1.83990797756114
1.48432074077263
2.15561728338181
1.45816163152707
1.77652552233503
1.34778165939919
1.58052939418249
1.49248264048799
1.69723563389292
1.45522543781575
2.17886119059394
1.47071709576137
2.10638740790106
1.5181499641187
1.76472808896181
1.50516729378927
1.743518071421
1.55620296982062
1.5369826400822
1.56334658373279
1.9688456172433
1.56046189488837
2.39748309513844
1.81921433809473
1.7294255742229
1.46998547373213
1.63239697160831
1.50350802181936
1.7417590519602
1.37284878693069
1.68271498995366
1.55768569509362
2.78834590257087
1.43558010062845
1.98181794735332
1.66477875485045
2.05130561669405
1.69854232115476
2.48722035376304
1.82464313329825
1.62950604158267
1.52769256351644
2.53098929366036
1.63314785076
2.33544444063579
1.71844347787485
2.4596660528146
1.75129409087325
1.89021454514507
1.58128426772676
5
1.9006064435043
2.01251180137462
1.62573480657881
1.68004066837229
1.52494587582173
1.75947111692266
1.537829874131
1.75980749187382
1.66332170497634
2.0410093946359
1.71887253721176
1.98312829586077
1.57447515502378
1.88050670623183
1.57509411854336
2.3566946203006
1.64985757895647
1.72757750182554
1.76380180812389
2.25895379039694
1.70227439656139
2.33381758411243
1.63684217326991
2.05756554354083
1.77722570754414
2.79836409687772
1.63107411958938
2.4199345475505
1.62581745436251
2.16386312671973
1.66565108049416
1.79718582566567
1.70388115853932
2.27529628903851
1.78952082792468
2.1070987195441
2.14780092314758
1.79544949910373
1.69100562721715
2.08035189663439
1.56846973259347
1.94596815704212
1.82420176585926
2.57965995624559
1.6221991616727
1.91116598879183
1.6616138989463
2.15577428771783
1.74116554838898
1.67129172954672
1.88553411005542
2.41702418064292
1.7948249626403
1.82017722032641
1.79663317913635
3.14478346594204
1.74558298442288
2.15060706091542
1.51743419927596
1.98338615327631
1.74535513428088
2.09707261837307
2.06199721190842
1.73340295488343
1.82777637224643
2.04468361517056
1.70559859552094
2.34729358716374
1.72289918050779
1.98362936699106
1.84169450221654
2.15525197414241
2.01590444305299
1.73686481680823
1.71494456366972
2.08658524370116
1.81626862720826
2.11503236389252
1.67707850598018
1.8323140103783
1.88213561604575
1.62780406882856
1.96668305400076
1.80856848948074
1.7088673308239
1.91931412450018
1.8741221119997
1.93375824892855
1.70370016709595
1.9067214277327
1.78839884205588
1.67633357119015
1.85865809156569
2.35856900072973
1.86963582416823
1.88177577045497
1.98894110820084
1.98652641540553
1.98922411338915
1.92818369826219
1.67926092085777
1.83831768420188
1.66571872752878
1.79878181273531
1.67451437192016
2.19185624161857
1.56800773295226
1.87901574361834
1.66655248898356
1.75994106354955
1.62463817650911
2.05570749952352
1.80714426351891
1.75679572020395
1.80811224449427
2.29273334095501
1.6850952018243
1.88974016370342
1.97679348506798
2.08781425580356
1.62357908303421
1.90958384729139
1.67535528644298
1.78324156492346
1.70404496385409
1.84747987925441
1.82649200022191
2.31466012297899
2.15824819226564
1.91394512288997
1.77587432759077
1.65543147378118
1.82377969324198
2.13413659801252
1.87377773011244
2.32040536941136
1.70462833911154
1.81759535192213
1.85554843262158
1.76549687562649
1.7123232418591
2.02770268531647
1.69375464826546
2.02201161605966
1.60427168107663
2.00451097337485
1.84381854801214
1.87230625342295
1.64591615713755
1.87558119008186
1.63423677643405
1.72225758478329
1.7113967864662
1.90088936268898
1.69187792815863
1.8265887040536
1.69595672678137
2.06337112117816
1.73147590320674
1.79109006743473
1.7556987674522
2.03297504568674
1.55464554240844
1.9000898852032
2.2508340270629
1.68528578764492
1.62249140323085
2.01419943022802
1.67433947650728
1.77155654583801
1.8809402502784
1.83423604808735
1.86012465270875
1.75324562114509
1.63643093097808
1.96267380519326
1.78943554637136
2.30530563860744
1.60989981126915
1.78327409335
1.5891399440375
1.85945400994259
1.72357395105136
1.81930320832846
1.61843509414154
1.89313405797639
1.6161748699175
2.04097981518482
1.90695116721563
1.90965729413358
1.55638609990866
1.72675626608928
1.7402114276104
1.67914101227871
1.57477718960586
1.7371700269365
1.70897816336579
1.79408900025588
1.52041225882839
1.7665573720059
1.80711910595151
1.68187369247087
1.58563098476632
1.61046330043776
1.56070283611042
1.5973215382172
1.44432527437122
1.56048275313047
1.43347644081934
1.6015448997087
1.46048728162641
1.56534187308092
1.60027842565743
1.91871330437734
1.46960674654392
1.5844063642366
1.50998187705889
1.54400710649482
1.51136580256929
1.47457672715148
1.43323355576915
1.63671658807788
1.45722782927139
1.47869804528521
1.44184702448409
1.47791416055186
1.413101969581
1.60000560569485
1.41963695114335
1.41012148906371
1.44262055038514
1.4572138941869
1.39835277638485
1.40646389989154
1.43374641411042
1.44057477345872
1.34304978656006
1.41596363117845
1.3551031628378
1.39460018310206
1.41524500898905
1.35132914830479
1.29329057147567
1.36578450273877
1.32080716716849
1.30709109239199
1.30009403229341
1.40087045407699
1.27584779783419
1.35540290723125
1.35902942760313
1.41780606095693
1.26942340229511
1.33624587256031
1.26573346177836
1.30173464563186
1.26789747057066
1.30201408667054
1.2103052938223
1.27291554646336
1.24852499275053
1.26169248628787
1.19393321908444
1.27055772933486
1.21364474532532
1.23388886055379
1.16768138731483
1.15966245413424
1.14804432302586
1.17865693196217
1.11101247965572
1.15582724451119
1.16957708208818
1.21099907011441
1.10463590613137
1.11128110828097
1.12103910362063
1.16099459784199
1.08447457582369
1.06797587829238
1.05714085922588
1.09331919633008
1.08634839738093
1.0729011020927
1.05385283003094
1.08214939884741
1.06041237137465
1.10628945629692
1.04537960050666
1.05036592494776
1.0304364943374
1.04422658260451
1.00222623788422
1.02331472622177
0.978156540693315
0.992716228765012
0.976389784156622
1.01054171649527
0.988240912250913
0.994717314541096
0.95216130454964
0.977304627110958
0.946284671731441
0.948771396295544
0.938254951341408
0.955128494396462
0.91536854950753
0.94577106005437
0.910610790751652
0.940309581370328
0.902338097757642
0.906297656886416
0.900327578515369
0.900638369744052
0.879222954457768
0.887712402979575
0.849349920211172
0.88668842482003
0.848385290043883
0.868876325679654
0.85896044914619
0.847090267468933
0.834388934723605
0.848403063235861
0.824665263916623
0.819597523842211
0.818325212190646
0.819945089814204
0.79965515573378
0.815335733886049
0.800956922891496
0.80374328496873
0.788667935134116
0.795644984656968
0.776828534934275
0.783790068831427
0.76394826862451
0.763170910498317
0.747310100409479
0.762582364981832
0.745427494222328
0.745975272817363
0.718931226187427
0.732895788867558
0.736470612637603
0.744933013118152
0.719144785814648
0.717173051264812
0.704479737411199
0.70098803785039
0.693491682067569
0.701303543186064
0.689902486123038
0.698395869021374
0.679101512020817
0.688943479223575
0.669605852593372
0.666158533201237
0.662008942966125
0.676158180437949
0.651195587069325
0.659915616992758
0.64482419692725
0.646287058965478
0.638709248115873
0.638624321810062
0.628120800740433
0.633111908488198
0.619567747563519
0.626341653451782
0.597631558728172
0.618203290448774
0.608315671035609
0.606597528606451
0.602557560381651
0.605878058812516
0.594338266676104
0.590073790828052
0.577281062626135
0.580162713695479
0.56980026669104
0.58116249148713
0.569303005848337
0.565370087981737
0.555638692424211
0.566162815356565
0.556255876006733
0.559660406346382
0.540342667509014
0.534793627670611
0.538246453128874
0.535913011364685
0.527147845141455
0.530912495656323
0.52548828287844
0.529321264879387
0.514183227427255
0.514792766536698
0.51059921178242
0.520088668743052
0.50883278402312
0.515162732235238
0.500791912878226
0.509157749017295
0.50238987892232
0.497569296476322
0.480913928832509
0.488310514584022
0.490120266988714
0.493220956860305
0.467791072757101
0.479941371525867
0.47787156944761
0.472533401561932
0.468033460480598
0.474734246543202
0.462659362952227
0.461929307795578
0.457464637717845
0.459687039289265
0.457384385488469
0.45751899536892
0.449036785204736
0.458193272748139
0.444800713954193
0.442936016337799
0.434350127136333
0.441914024213709
0.443442690211487
0.446236683308472
0.434229474092971
0.436057589774965
0.429746537440806
0.432079160574587
0.426264212577149
0.428019405579885
0.422808625070312
0.41980912618424
0.412566876848344
0.420713704382185
0.417272687430378
0.421367682969762
0.401539427335554
0.416473067311428
0.411171203283217
0.408458770698508
0.397258236987114
0.403850195060047
0.392585651219136
0.395933565939842
0.39231761303148
0.396840294373365
0.390417878742149
0.386651000504279
0.383332368651555
0.390638881192905
0.38109748781039
0.381253559723762
0.376180120517406
0.383982052277416
0.379108569496512
0.375439592113092
0.368956860050474
0.377455694400252
0.378813187267368
0.378559835884976
0.373439786488808
0.373473095400858
0.36916209315847
0.371977997289068
0.363546520633083
0.374773093280739
0.363614736476585
0.363988131443439
0.361660028445618
0.366962198769999
0.360588850545335
0.367034734000698
0.356611063985045
0.356909432928789
0.354990037230979
0.349818363555084
0.347268553801985
0.346624644004442
0.33744969383499
0.341553176258116
0.343578398766426
0.341017180500155
0.339134661943263
0.344008920036183
0.332381039973036
0.336120480752874
0.331443464126621
0.333871808616955
0.33026819802861
0.330350478138108
0.319298584227094
0.32757204022752
0.313106879683654
0.312311540533468
0.316688259541749
0.316168390077148
0.306468398712616
0.311533332792479
0.305599579203885
0.305278245601999
0.308088060375843
0.307056555122629
0.296480943464682
0.308536680918595
0.300322928481907
0.302878595270209
0.292932553961144
0.295890533928088
0.296018912157209
0.298491803680196
0.29545553890417
0.293539278910757
0.288533719191583
0.288273651192586
0.286395778696376
0.288433399890795
0.283806323067715
0.288132676686989
0.289438461498826
0.287595873407814
0.278965698830745
0.285882872553605
0.277636488866066
0.281107308354119
0.276072006701966
0.271310302072097
0.266109046405615
0.272135105674079
0.272959091125055
0.268045599059313
0.267126050609401
0.269825199623768
0.265558534437183
0.271321983848748
0.271249673739129
0.266559508290904
0.262648714470231
0.266397984256327
0.261568956750526
0.262444149263096
0.259581587300359
0.265527790696975
0.256058655001398
0.253598936650134
0.255315999578945
0.259438508941369
0.249843734925401
0.252041959646499
0.2487752025324
0.249433495520646
0.247089816180648
0.244092912465107
0.240364020521983
0.241523676427054
0.238114471988648
0.236347024851434
0.237309311102119
0.233389860300737
0.229705627040038
0.229751520736021
0.225260823549948
0.228130094973371
0.223442283321534
0.222881147985518
0.219091974502275
0.216248380887791
0.21258559965795
0.221981390221618
0.220977868222787
0.21837468451099
0.213904569970197
0.220185465811639
0.215646935960163
0.211571923351412
0.206896710682987
0.211858612538686
0.208573421086449
0.209901466980533
0.203258140777345
0.206618336916638
0.199853517684139
0.202831440203616
0.205493401982753
0.202204361043352
0.198943185511129
0.202803612289732
0.195401547530062
0.196863015740514
0.200975378193525
0.194725850182034
0.188288971199617
0.193192589028525
0.196416390764931
0.195763347571251
0.188881023238241
0.190943244852837
0.190037416575332
0.18986192136319
0.190152492736834
0.185524666291858
0.184686292401119
0.187291060591277
0.180465926622369
0.181880637604748
0.18100401589941
0.181836484700258
0.176607320091795
0.180478219237651
0.178782911695357
0.17730283634162
0.172159979949989
0.173999971136763
0.168818230860406
0.170334302562308
0.170596886566974
0.169839814755208
0.167400937849915
0.166114357317937
0.166586336633986
0.165539911739453
0.16495766987001
0.161445506235696
0.157206005768743
0.162848133841722
0.160896590748737
0.163477390690656
0.160763485592974
0.160378850918678
0.157641503846594
0.158951610501685
0.15422780954424
0.155328268164341
0.157704792905856
0.155748965062297
0.154866387138854
0.159822888976447
0.156249322257071
0.152134481782092
0.150556677481488
0.15046640393388
0.148672038048082
0.152712713911619
0.151071596924307
0.150326911961338
0.150673252185127
0.150449794383153
0.14578078476968
0.145834533461606
0.148684247911466
0.148260326239628
0.141306563805657
0.14401589650195
0.146984886159915
0.148347459049448
0.141219161096554
0.146559461998382
0.148974060976698
0.142188311015146
0.140166091983552
0.139726422869187
0.141750462643756
0.141489792050814
0.141716265262231
0.13899067072942
0.138812228402387
0.140752656937544
0.139097025388934
0.13652287042981
0.134192320676347
0.139276751433653
0.135060011573516
0.137622560688651
0.136661558416168
0.134428171656725
0.134549620286716
0.134467912958828
0.134149740363612
0.13312719226798
0.132015760340672
0.131377406223203
0.128787939051637
0.131827643894074
0.130603191759767
0.128935540511386
0.12870689148328
0.126900648460217
0.127069494882118
0.129304677578341
0.128947044624344
0.128239864882305
0.1274264440522
0.129294967903403
0.125060337693149
0.124831555230247
0.128118434670964
0.127891288888225
0.12431068473376
0.127885438828552
0.12885277876412
0.126524343296399
0.124241579005582
0.125457700859895
0.12631214629324
0.126436784617609
0.123512557219491
0.12796638847043
0.124624200517821
0.123604407693513
0.120811784859236
0.122139163054251
0.124657970472555
0.124170641612947
0.124458436248199
0.121864786546569
0.121326947063234
0.12264179140164
0.121749782902864
0.121302879546652
0.1207567985483
0.120051715808134
0.117720942497244
0.12244964442735
0.119681734849708
0.118243077589818
0.116672522713557
0.118321027349192
0.117513296717753
0.118147763626054
0.120008651411456
0.11788416258623
0.116504231249698
0.113674207232634
0.113448644375104
0.116294487263719
0.114371558990425
0.117867253449003
0.115459893050818
0.113456728242239
0.116366236634746
0.110893850509838
0.113263405776479
0.111673954069273
0.11185447110268
0.115716821230221
0.111628500528097
0.112427653993271
0.109026526755001
0.109240018087706
0.107866555611772
0.107518181076147
0.110655197883207
0.109310292130588
0.109125762941952
0.109745777526267
0.109349917760416
0.109217440991211
0.107321334947235
0.107772562852911
0.107996520637025
0.109793031918329
0.107258419793531
0.108452632888586
0.110424762626952
0.10781304811175
0.104966452504753
0.108146097361611
0.105957962542802
0.104951786666947
0.108160386433572
0.103660500757353
0.105134528861325
0.109253473702413
0.106247414537238
0.105342076697149
0.105033233660342
0.107513575723284
0.107356866485804
0.105440617170271
0.1034154744648
0.103609738421665
0.104120301743129
0.101376439780817
0.102735798220433
0.104176191318601
0.102316752494115
0.101136405782736
0.104430547961618
0.102633990906601
0.100317878802883
0.0992880095719786
0.101758996601781
0.10346391119519
0.102179545582911
0.0979742560380475
0.0969037774175672
0.101837151112025
0.0969331970730109
0.0979138202282249
0.098486166240529
0.0945473613908508
0.100302208254842
0.0961278773724831
0.0985666285954921
0.10098190131965
0.0938869976318572
0.0946596306823662
0.0977401801913427
0.0957558569214807
0.0938608310382459
0.0966360122931604
0.0983080985800007
0.0966820672663609
0.0958993865500888
0.0958433649923826
0.0962720424794297
0.0990792170416997
0.097434747575984
0.0944738550327895
0.0961063783065677
0.0982609540925224
0.096877651828419
0.0974405492731513
0.0987213073807186
0.0946923316360901
0.0973848995728614
0.0949473382696623
0.0968836249138425
0.0988608792197574
0.0965877962100422
0.0959334568606151
0.0991334909293534
0.099817413191921
0.100302711158769
0.100184390032677
0.0968330440819389
0.0933916097121919
0.0943604250559902
0.0951023117402256
0.0978977485811013
0.0973962648645804
0.0970927458808614
0.0954529650235196
0.0938805139938889
0.0952922744970866
0.0981917961644119
0.0948187099724795
0.0937937954854776
0.0925311388386646
0.0931552827088718
0.0945105186869299
0.0939952698649177
0.0957296479582491
0.0948725809711406
0.0954514725355252
0.0971116726825938
0.0937297538385303
0.0950192203964246
0.0928465187930838
0.0922567591262853
0.0917303695982321
0.0930454513481152
0.0905659396758895
0.091938025731361
0.0942439859356988
0.0907903095606137
0.0947043278230443
0.0945301219778843
0.0906206221911361
0.0941614348239452
0.0949624957410962
0.0932340809228802
0.0922519583719199
0.0914746941671797
0.0930716925973465
0.0930426124383285
0.0927389399048349
0.0938387932737101
0.0945213462745591
0.0949675577591864
0.0916365646946969
0.0950394600877801
0.0921293946500547
0.0947222927889408
0.0994091748500851
0.0963298838195573
0.093115475186777
0.0962846991624999
0.09401094587431
0.0956526350285104
0.0960982192586031
0.0941980703807189
0.096968623496967
0.0960530526381461
0.0927929476064382
0.0957966009278996
0.0961606670792408
0.0955904141571217
0.0954314313383768
0.0960754874252552
0.0948512990609989
0.0958304905602019
0.0946944835763824
0.0950837566583409
0.0970797757581759
0.0948579330880255
0.0958594621773402
0.0983822664947281
0.0964592067033964
0.095507661606306
0.0941172719768859
0.0922054770797597
0.0938026367875224
0.0945088986562608
0.0937447486033171
0.0930552404933362
0.0936638308191163
0.0949137943763504
0.0952486526271851
0.0962820972735299
0.097750775556045
0.0954280238139246
0.092745786303256
0.0964827404757648
0.0927821372591466
0.0947720951198751
0.0942339604238062
0.0937671190027727
0.096331715562795
0.0936785284476889
0.0930090686730117
0.0952100822125793
0.0950384962582563
0.0965503510955394
0.0964830418831938
0.0980897919773983
0.0920876599796398
0.0949124131642919
0.0965038010199132
0.0955623910004214
0.0962306293474898
0.0976967896975309
0.0977622540922858
0.0980062621583484
0.0958398795703208
0.0961173206146139
0.0966487591287522
0.0972308413737932
0.0958611526092548
0.0966796324291635
0.0990804231694123
0.0994676211866756
0.0966402502519746
0.0978831225454126
0.0975835487464344
0.098843087767079
0.0980119742023746
0.0988212924697174
0.098120545567683
0.0986158099458556
0.0990450339858121
0.0957181894086259
0.0945053166205173
0.096030160044663
0.0964294367571282
0.0966930849163859
0.0967554718054274
0.0983765887172364
0.0984629698086215
0.101151210585427
0.0951222955396567
0.0959229365173025
0.0993592209290764
0.0978426130368898
0.0969294526188776
0.0986854062752372
0.0969205837077659
0.0971653526459887
0.100754526063497
0.0964550704838276
0.0941024679051621
0.0991767744921003
0.0957616804783625
0.0994291984270924
0.0986807602230337
0.0974689123029347
0.097200676640147
0.0992473488377536
0.0962297366129056
0.0988613254138433
0.0980261004317574
0.0977365934125718
0.0969270638299747
0.0979332469402929
0.0964713396309694
0.0976612565133448
0.098406648112053
0.0985619246794175
0.101786918830191
0.0967092803933621
0.0958164639260097
0.10047590662125
0.097382659417395
0.100182015169073
0.100325294709191
0.0994790028919257
0.0988143006415206
0.103185248329882
0.10062175845573
0.100505076382923
0.103064849180762
0.104310017017479
0.102988140144075
0.104337762364131
0.101810822040807
0.103622241579972
0.102317103861414
0.102717846243463
0.100885244694982
0.104006237938797
0.100702139176636
0.100933948999247
0.102786283393803
0.102284747122445
0.101581147134767
0.103233008016742
0.102811789904996
0.104873309313302
0.105264507836059
0.104022065439653
0.101855902171505
0.101958276128954
0.100486707524304
0.102702222574613
0.100444858770553
0.100036335636947
0.104112558646295
0.106378166553854
0.101886843237414
0.102600309558211
0.102850339769464
0.103972828958963
0.102937333054787
0.103972408119185
0.101054990950512
0.102649546814741
0.104251813668402
0.103484754257074
0.103232513887616
0.105473866067777
0.104488550031533
0.106185256329164
0.103895413675711
0.107352632484167
0.105776305415534
0.107170872004375
0.104236218472308
0.107893453529036
0.105792984651481
0.105813214901246
0.106713927022318
0.106643725155495
0.106048847583172
0.108939944485911
0.107604679775045
0.107882748533474
0.110853353018302
0.111983267679097
0.107509448978878
0.111457439902083
0.110789595566532
0.114152200788305
0.11012925480575
0.109893334645552
0.111036807477494
0.114623210817076
0.110180300485368
0.113849340842632
0.111388327504474
0.11230570320926
0.107221513855676
0.10851826220616
0.105917254931798
0.113170315222443
0.114008461379619
0.111543819511274
0.103390688348865
0.107161235814381
0.115480186622927
0.112490090358022
0.109077614741775
0.107704714452826
0.108451507399341
0.109499309100715
0.102339549536603
0.111859529911969
0.106638660254424
0.113318350590944
0.110783064477982
0.109402789156138
0.111298955992634
0.114675865851693
0.114128511238774
0.116231471122556
0.113115572008197
0.110005089950772
0.110917613877161
0.11423320001058
0.113409849578025
0.114419068668881
0.112692785977699
0.115611548132505
0.109785927318711
0.114675423528756
0.108141723025737
0.115835850000379
0.107911290491559
0.1140286183426
0.106834433265624
0.119859601665685
0.112473557325687
0.125496877295871
0.108816910252055
0.125365365083006
0.105673518274428
0.131278876198379
0.11077270652372
0.137198304921194
0.106840670505244
0.135933120704911
0.104001415141445
0.150643667150171
0.102600237862501
0.141982218983592
0.102845255041592
0.147020727551474
0.1087003840524
0.136519643591308
0.111765745081285
0.133373727831726
0.118967752934686
0.128736916076117
0.127822430796598
0.122835185571392
0.127042793667401
0.125034614039573
0.129685226523388
0.12100901094168
0.129337120645179
0.128648637846954
0.125065663195275
0.12831519278599
0.122174373867358
0.12841310634139
0.12500667854296
0.128319626857637
0.125395962511117
0.130268403923755
0.12804986465254
0.12773044232946
0.126532374302832
0.127350753058687
0.125772393866049
0.128161738200061
0.124200684590937
0.130200850481883
0.126341382154657
0.127295282989761
0.126652629060845
0.13100384327674
0.124459335172831
0.128148766955156
0.129462648077084
0.131419391932753
0.127742539229744
0.12982398648034
0.128155837959569
0.132080388087547
0.132119868804115
0.13170661809157
0.129301332971778
0.132509451039818
0.128571294122377
0.132662363711917
0.131441710969583
0.134000629750333
0.129884606949416
0.135656789012652
0.130346480884079
0.134933931787632
0.134336523674026
0.136173350028082
0.131889096433406
0.136178618511668
0.134020194942104
0.139361918193672
0.13832607273697
0.140266730858597
0.136129542142684
0.137284290668643
0.134506812170038
0.139013567020187
0.135001792765964
0.139623763365196
0.137681595041363
0.141234611441525
0.13889923294137
0.14259450396997
0.140312428891743
0.139281412315608
0.137532757735425
0.140330753870356
0.138708275742811
0.142854063400348
0.141363991063806
0.139979013249823
0.14153399430831
0.141695622586084
0.141341042498189
0.145258704810666
0.142289535544781
0.145384058709874
0.141540686355867
0.145369218236748
0.142424003517012
0.145557079115339
0.143177126797713
0.140939990443146
0.1448778320544
0.148906280706514
0.143488843566803
0.145595145189849
0.142010905900385
0.146734811355192
0.149114919612176
0.145958588772265
0.14750443500849
0.148560172774318
0.145757059306411
0.151885654455512
0.14730044118365
0.149582451071621
0.148421730935597
0.150110519267364
0.149726930997591
0.152386793372354
0.149177274742626
0.152779931162285
0.151616274329386
0.152899291042056
0.151059537379637
0.152323544918917
0.151220154550675
0.154115943735629
0.151814546839321
0.155429766321708
0.154656526999812
0.158280643444544
0.154769163497643
0.156287085041928
0.157724236178268
0.158264555252954
0.156674278542469
0.159844942920709
0.157231243045912
0.159665178320651
0.156366948623754
0.15842787598099
0.159573358008427
0.159877333166796
0.157815247200643
0.158137906992899
0.159945762113727
0.160184832127113
0.158265141590024
0.162484661800061
0.159882920084609
0.163371320086475
0.162174809513742
0.162170886872297
0.157982158115736
0.164419470746797
0.157402268496829
0.160842442550289
0.164196414757558
0.162460350552363
0.160763167280907
0.166055672228081
0.162568260348619
0.166018353641637
0.162857204447016
0.166986727194419
0.164845580669737
0.165889801844126
0.161287118348687
0.165583555361571
0.162800477872591
0.165738562859544
0.165456592423938
0.167609681618635
0.165085540243091
0.170382342258537
0.164489574083798
0.169235213739902
0.168231910455387
0.170211542867762
0.163781624182038
0.167578883566441
0.166859504426266
0.167463354163638
0.167515574233754
0.170744151216281
0.169224957694631
0.17058207794191
0.170143830180953
0.168538752647776
0.167670298884542
0.170640055036842
0.170558727765589
0.170716125816718
0.171214741150765
0.172857706086967
0.171293100279022
0.172612435113596
0.168226378991823
0.172845458640616
0.171504412540619
0.172704420129839
0.171051841899661
0.171873425483078
0.169884838483927
0.173953130222783
0.171242459024493
0.173692371061632
0.170744003817011
0.172109678775764
0.173017987474189
0.173452288296967
0.170663298429484
0.173636754473583
0.1709802811173
0.173009522582942
0.170144408228595
0.174061945514878
0.171326080373779
0.173685713508451
0.168997329197199
0.169826911397614
0.170205784392294
0.175613869376247
0.170619723560801
0.174501316462176
0.174461401673784
0.173017059533231
0.171773419410767
0.173996206859525
0.170631166277647
0.17300495151134
0.168787047321897
0.171998674174833
0.170540322405497
0.172090669729634
0.170103951001417
0.171755430984696
0.170620873461833
0.171471102229698
0.172727837744736
0.175268219886358
0.169890876018234
0.173456020674032
0.168348868987874
0.172449843410663
0.168934373094447
0.172787609115535
0.169416425619086
0.172805414911058
0.168731978546971
0.170584401245961
0.169479099513779
0.170391367406669
0.168304698614707
0.174732681438026
0.168763690608272
0.170678390181822
0.171285606163998
0.172532196567335
0.168387855054765
0.169550788615869
0.166207461317815
0.170986694380591
0.167570137823363
0.16947053595619
0.165689469921605
0.169704542343272
0.16792213112295
0.171948555181998
0.167812539095985
0.166431956118963
0.166405805627994
0.168729073992053
0.164122639677991
0.168776047855941
0.164003474276374
0.164898484475017
0.165263093043703
0.165958512088161
0.163874132838108
0.166040428713437
0.167522489735433
0.16543258820869
0.161862273447179
0.165831769184745
0.161946977297061
0.164489450772624
0.161975195918283
0.164077493139631
0.16213798089009
0.162753352605368
0.157282253074307
0.161717019036494
0.157007692093079
0.162706952822418
0.159067509064139
0.16233717570168
0.160179710327886
0.161838322957197
0.154275629696402
0.161351370420893
0.157182390638402
0.160171254546361
0.158030025371453
0.16346319175529
0.157248658156502
0.160441718129931
0.159081046262996
0.156764341682551
0.154880191939236
0.156090818948115
0.153745855847916
0.155575175301032
0.153549044802925
0.156466625428272
0.15171624698745
0.155033326116149
0.152637136449252
0.153905920340122
0.153814149431301
0.151672368217863
0.147900441130029
0.154165350812628
0.147146440174592
0.15196430132835
0.14869450279714
0.152114233894805
0.149555592369401
0.150242119826753
0.146096782024198
0.149620955811096
0.146973939495529
0.150352995729781
0.155025684782568
0.146962328582664
0.145360830571641
0.148030512555894
0.143905032155814
0.14429584934941
0.143008422173337
0.142218830425234
0.141112397954919
0.143683797895485
0.140603376904182
0.142981426709795
0.142528821160342
0.144338152965634
0.13930441667124
0.140675555272792
0.138941342701273
0.140365236950499
0.138211509468719
0.13994075540634
0.138585172833339
0.139679120948201
0.13728168294996
0.138551855798577
0.138448157819923
0.134797248017279
0.144840921461398
0.146240541067765
0.134471451949943
0.138189914518267
0.137521359529058
0.137248175499771
0.134811060433456
0.138340066332343
0.132097241506065
0.13687684450127
0.133727702387427
0.136970745284254
0.132192831838654
0.135551399278596
0.131951653815997
0.133483147094276
0.130571234125858
0.134455152173561
0.129723676223897
0.130567563899231
0.128110150101148
0.131529954033887
0.129647522399644
0.130696286823308
0.130025697681591
0.129188748729566
0.127869108730741
0.136195031317123
0.128626207254306
0.132659866170316
0.123186812614859
0.129945926187348
0.12660375051141
0.127423133940034
0.122312472560905
0.128266833730297
0.124012322314992
0.126874650422382
0.120753669136785
0.126237062182798
0.124470918203786
0.124801768777499
0.124304517434754
0.125392662472095
0.118955066208822
0.12789779939685
0.120174852736656
0.123405398517644
0.120343757331118
0.124959195021306
0.120010488078591
0.128595160411635
0.115410136699122
0.129856837136149
0.138659050046125
0.123718538340655
0.121506827304185
0.12007464442231
0.121623990208639
0.120362246980359
0.117446703293748
0.119952264134129
0.117481700185053
0.121319441588116
0.119975103032062
0.118668499303084
0.119522861323178
0.117354495532852
0.11981976542475
0.11842586484043
0.117149966956284
0.118230066511963
0.119351429659493
0.113943600640255
0.121870035284661
0.13435173329828
0.119648775628831
0.120999482890635
0.117217134569031
0.112754197253897
0.144419728457347
0.117870277032089
0.121320202008524
0.113414081983398
0.120299922534666
0.114503113103679
0.116370340901805
0.111615868243782
0.118173616026357
0.125596100877925
0.114393813201911
0.118515586886888
0.115449885754682
0.115250158026957
0.112031728599182
0.115504868607484
0.110645089406104
0.113732596274796
0.114486913771224
0.111927814102798
0.112214219022336
0.112135024729524
0.114130798370782
0.10933696005915
0.118171128078731
0.118954018288763
0.115583948198599
0.112866372956631
0.112529037609272
0.106099547192906
0.119835945739532
0.128122363623931
0.110491467173046
0.116999818433133
0.110962116298372
0.119862853916124
0.110443470605632
0.115089106679038
0.109514230757005
0.115886641902428
0.108569887003013
0.114591414578474
0.113100832854899
0.114831252336582
0.108094562519294
0.114719447873043
0.107177744415624
0.112837944885509
0.109824443613213
0.1133943409437
0.114636807424918
0.108003919938029
0.129806640676429
0.134083449732495
0.129107803939292
0.122857025199867
0.117755616107382
0.115495357056349
0.111753868991395
0.113568667788566
0.111838412017707
0.116630694564641
0.110991279398814
0.116482813360874
0.111340070757879
0.116444260581147
0.111669075394651
0.115961985494364
0.110099095678448
0.116257357370176
0.108020057654231
0.118991829777229
0.107794639710593
0.117546103369362
0.108051126254571
0.128070569257912
0.11099821677516
0.124708524683178
0.0945771895443324
0.166332091472367
0.126013678386113
0.123051541169287
0.119786959452893
0.11488132585167
0.115681136782311
0.11351271747643
0.114607437831981
0.120968713325245
0.116123698318825
0.119113815571299
0.111905089078351
0.121488729034333
0.117209738057134
0.113123717955935
0.12621619411834
0.15011374889398
0.118801810959976
0.126925673936966
0.105733514153124
0.128246661414032
0.145173868749634
0.119039096871117
0.124092504095416
0.117766053632291
0.118828549781389
0.118308533448763
0.116902574788457
0.116189966931495
0.125776138958219
0.122140486123497
0.121174610600106
0.122552438097983
0.115803816318099
0.126507389805447
0.117367127703351
0.13376982660497
0.129844677484729
0.120045127446213
0.130474066307433
0.12594629685363
0.123908326324987
0.125173103397328
0.123152824285045
0.121919028723955
0.138244133060469
0.140519726684585
0.127688109583016
0.145387238172853
0.13390905302044
0.125428131430156
0.133380936369421
0.132306323862408
0.145055886961029
0.115838923056286
0.14715695256404
0.156835436445281
0.146516245012807
0.155409580638495
0.12752696730952
0.140261561719499
0.125185126120898
0.138585699059979
0.122985325386083
0.160692845305818
0.12396820838328
0.147863642906359
0.120489135384882
0.157284093482043
0.141281068504299
0.144949933781146
0.137966848624224
0.142704661000766
0.131326020278521
0.16272864418075
0.138867100721816
0.140357137878149
0.179514375200062
0.171984009668436
0.174863499082401
0.148292711896427
0.145166082676132
0.198217748297358
0.14699397464741
0.161512150384665
0.141017379714143
0.161558274172073
0.14541142259758
0.160353257718017
0.190963788176561
0.161282006793789
0.158042357239838
0.167876647947493
0.151768207454938
0.195371657458456
0.172854015731638
0.171368849542181
0.162613675731768
0.177707284602548
0.148624639856516
0.241252374053186
0.17472488342231
0.197982056136944
0.196802037008058
0.198046972724271
0.190399787374435
0.192016813434138
0.181304964990196
0.198418090651746
0.205646677343727
0.199339846504293
0.175658987830522
0.223903404120858
0.223576766148628
0.193682399868288
0.210921171030301
0.199004857019744
0.199706253461691
0.252172587295019
0.270338739863401
0.243367900949563
0.218487296109037
0.222636256526254
0.255107956213143
0.22793747011368
0.224800984411679
0.226430908689695
0.227273764301453
0.231496435845935
0.232824733104183
0.258703933941492
0.23587425697412
0.251412724529115
0.246827273384513
0.261094281873973
0.274040561302686
0.330750570985483
0.31178743295603
0.27911041614186
0.333827168000523
0.293415990832496
0.294783761609762
0.288291599491182
0.290728767562057
0.312312811579245
0.312014612106901
0.311418108274921
0.310835980623674
0.358504456022421
0.335578425944097
0.351252832928073
0.365480633461573
0.349166297691585
0.356941837218462
0.347888323930664
0.595445030581142
0.388704906688616
0.411748893038842
0.380491541977798
0.422928628382491
0.486821965921973
0.418999556429629
0.420516020217762
0.426093388366152
0.420660452699562
0.443723645154774
0.454806177825746
0.462999672190087
0.478861912351544
0.478164461340841
0.467481524480317
0.526462927319424
0.570009091989125
0.578446025376984
0.544578839255367
0.524127539257403
0.546460989432457
0.562327810981383
0.538383302442013
0.57450393359399
0.555359120096705
0.58165347917896
0.652516060955218
0.589800705857764
0.618289248528247
0.604415935195888
0.668943828389938
0.601620067431497
0.725036447300682
0.675219764171284
0.676002425143686
0.651637351061162
0.677141322767555
0.679261610997419
0.675095353410575
0.744159090957351
0.723852826478814
0.722626386619459
0.74617581340966
0.732741524933071
0.753703968246704
0.756668633245919
0.766944246330223
0.756148625130816
0.829981733763356
0.805491414679117
1.09231932047375
0.836800445653512
0.810052751623649
0.811658498868806
0.815928016229179
0.867783996761387
0.846642902984605
0.892178258488411
0.872809774777325
0.835602168341957
0.86569737580916
0.84825503977317
0.870662629212835
0.859576803662887
0.888936413164575
0.849248590966838
0.928385605290274
0.858556213513767
0.899641579173517
0.943960548694391
0.865660615419192
0.864702648342752
0.861264374871653
0.852389341386004
0.854453952534535
0.855196309803252
0.867742651249257
0.882142000020173
0.833291359444026
0.840964762774517
0.813758912116109
0.861419303833348
0.86378197775365
0.798112896363594
0.805374993965923
0.795155016879072
0.803603162237119
0.74132840024934
0.777301459773501
0.827827430930186
0.758959635925465
0.735800703516954
0.731879261805345
0.704953092589256
0.691935546974324
0.690244396979835
0.686814103129349
0.685654431205289
0.666059467101227
0.662281999766935
0.643017845976082
0.635501069202915
0.629493262597769
0.627706941677124
0.61873830887846
0.608112780392181
0.600315612346867
0.590256431309608
0.582015042375359
0.578229223482532
0.567653066868794
0.558920673740882
0.560116529511833
0.551309144826388
0.540710231666136
0.542678308999122
0.528334456919446
0.523690560380424
0.512541111126837
0.507224448990595
0.510690171897173
0.49868421068762
0.494072532448347
0.490276154223067
0.484957125693942
0.479319683211789
0.477839362703258
0.479582480313046
0.473527722788849
0.462418687098262
0.47069482224187
0.442202815476768
0.549058736398009
0.473069076690343
0.453278680835397
0.447960938953416
0.442472617582472
0.443191750995519
0.427425810783148
0.495162352588289
0.45694528430125
0.432412842302038
0.431420218420163
0.414520232155857
0.43805814273023
0.430876509765165
0.409189547669263
0.423268147984184
0.390067206668145
0.458321161152701
0.469384773485944
0.482578171549702
0.501883210190366
0.431304749672963
0.39421618313263
0.407899721569187
0.440091469351028
0.386229874852589
0.399129085780431
0.380411940636646
0.444488154013056
0.40352700038339
0.378771258161096
0.380421037582498
0.362037089372749
0.389690012628966
0.416703154897697
0.378159818961596
0.407799318939438
0.425895079894501
0.388609344873553
0.427830548771451
0.446311059047939
0.397102417563862
0.360857402272482
0.36950866598425
0.352065334279433
0.364173409047408
0.42150570482625
0.357744232502987
0.375230368073338
0.34963973095052
0.344780869558784
0.353444970165626
0.370709686297279
0.352135399947462
0.352433323812542
0.392423461453462
0.332539361816662
0.361760444397392
0.356093433676358
0.413527224598299
0.395210502931561
0.354248654971214
0.327058187046659
0.379177930830025
0.379159155201887
0.343644792274686
0.354919949481635
0.319752447379191
0.334584381541286
0.356409818016856
0.320199044432204
0.345333437883407
0.342215082541932
0.342755996806126
0.39457138214378
0.40026750658819
0.38830617624209
0.334228171872228
0.314616781579262
0.315980221627343
0.318213517125886
0.32136491347764
0.303183180807252
0.358174929706408
0.321236260404745
0.306219006630596
0.370804987492132
0.318571151928636
0.309663508979906
0.314872151051026
0.301801385809048
0.31962748962879
0.340364466921483
0.359651345777016
0.328173239988557
0.32545833383684
0.334289249106409
0.308823402007451
0.313505735112913
0.305632411776933
0.311770993811742
0.3061934145981
0.320806811944801
0.314844078310266
0.309850809770237
0.309846402361608
0.310396200541471
0.340939337635212
0.350225282215087
0.30770016486444
0.35147941736597
0.342068965817455
0.378156735640007
0.331473270427835
0.32437791143387
0.322304648175034
0.321549040592707
0.325440832438655
0.322102447308548
0.333919411558624
0.365421984542092
0.328369109294258
0.33119523257334
0.318700069294583
0.330620156495928
0.324369762357029
0.370478291667893
0.344343177898588
0.417520635103177
0.384343818456051
0.35822850613481
0.341647680222517
0.327531140879146
0.345535429221561
0.334538183375981
0.330854339415014
0.330799922724204
0.325340795209239
0.359957380734603
0.333686458189803
0.335456704153269
0.327954255781663
0.331730423446914
0.327161691409504
0.329869839849768
0.329952537498554
0.329336263565261
0.332540531836397
0.335154303423061
0.337260212454697
0.418906968036227
0.353184831673704
0.343486626441801
0.335631547498244
0.346546397334666
0.333533762870187
0.334888427416418
0.356589469055913
0.349600479199784
0.338559084704003
0.343373638993034
0.335403099919523
0.341865359577631
0.354726428482528
0.373306073365333
0.333210603935472
0.351749576960943
0.327430412086061
0.381384719404799
0.390559344860404
0.360921762610967
0.361539770339464
0.351622044269495
0.345236441634441
0.340504394469519
0.342253759788181
0.344126397018347
0.34437490090859
0.344430671398577
0.344938455111477
0.34370855527704
0.342902964032797
0.340755792721709
0.343473260886372
0.368192231191083
0.344294135378175
0.340571765314869
0.342408890821323
0.341727398873899
0.335060883202181
0.363555554961733
0.361345069097167
0.34789107593585
0.347203604631278
0.346691862897256
0.365923714412166
0.36147311178584
0.335600415055249
0.341196402212595
0.333569013898199
0.339502620220336
0.334121484487479
0.349522650124697
0.361308973688018
0.345222152491884
0.337776752402723
0.340649847635317
0.343607672992329
0.340890001886301
0.343693823396752
0.344587909310659
0.347911791631589
0.344867878697289
0.351625557471405
0.347157873064495
0.349213766589773
0.359051616857135
0.36171499849705
0.362294431335531
0.347437966808313
0.349214172049773
0.347140404581075
0.350633260900809
0.352632596057138
0.345512843471592
0.339653923342981
0.341968532767564
0.340616679637859
0.347513403186198
0.368622414756376
0.343874871072969
0.352065834987571
0.341576335657915
0.335005168588501
0.345634713305142
0.332801494762272
0.335863192025135
0.336139641437388
0.334849675341848
0.327654271655707
0.331286687441891
0.328447344041968
0.330338618628445
0.331215620630451
0.329959890694598
0.328526490418118
0.328850730499917
0.33052031674598
0.333285429893075
0.326826033555936
0.330696242269563
0.329442828655404
0.326547531463546
0.337800445722418
0.346975907592406
0.343547371003136
0.334639108679012
0.334711502802911
0.332848694403554
0.321117294504377
0.323961362000744
0.325417647799035
0.327192020291762
0.324289654172882
0.325267852976927
0.326318143879067
0.324637338290959
0.323725174414856
0.327900543991882
0.321822119698022
0.322330071487063
0.323710483640527
0.326218585868503
0.320413917876824
0.324594553579029
0.321923688459679
0.332025193883029
0.325593940090059
0.324985894670014
0.324673310747346
0.324313441034556
0.322930590951882
0.32053456311927
0.324133580919337
0.323282492255176
0.320954038930469
0.321319736039667
0.318473390608651
0.323296614517697
0.321070521304316
0.319372939815273
0.318028052877004
0.318116666060108
0.315022305526574
0.315733768978839
0.317625377993464
0.314418221464859
0.315965761293158
0.315621303717539
0.313929324207861
0.314661670880557
0.310778144030771
0.312704977568231
0.314280510429182
0.31496568661543
0.311002225947316
0.310745657401978
0.311410323608721
0.311199030952468
0.312227228353121
0.314110374895155
0.308192345441798
0.310828851318874
0.30676365417498
0.309667997378955
0.309345056250444
0.308277055775991
0.306076676080216
0.308857455980695
0.308396934424596
0.308219879692534
0.304152282187152
0.308923918982892
0.309907777471152
0.307699965876206
0.309552826792132
0.310459828970767
0.31353835683196
0.31242378049048
0.313077455325597
0.310922371550159
0.312367743065143
0.313904933124656
0.316075958652389
0.314584968262118
0.311183273850472
0.313976747461581
0.313247737743438
0.31026774587238
0.313720391784616
0.313377645962999
0.310880521926424
0.313486405933727
0.313739973459084
0.3126661584756
0.314206917497961
0.312985466223208
0.30966085302016
0.312549810050399
0.31301827755782
0.312283114347741
0.310938146085045
0.310854968862527
0.309535994588109
0.308250943545624
0.308960576427472
0.311094393666893
0.310838135028866
0.306116839209217
0.303917677019409
0.307760971259823
0.307545672194845
0.305882793013424
0.304274991821
0.303993342170768
0.304436849770846
0.305718456553501
0.302511521260773
0.304464089791034
0.306821777275276
0.305705092673183
0.303869250394892
0.302519602884562
0.300468788146223
0.302592766556343
0.303328502969727
0.303347085025799
0.302277450046059
0.302637945687463
0.303000629361853
0.302798230878362
0.30029866750212
0.30042468116001
0.30118349336236
0.302251922872737
0.297666152761115
0.295987992031652
0.296092223534628
0.298226517412321
0.296222099532937
0.293957402220722
0.296259960527272
0.292874537609769
0.291069872808254
0.293466156203384
0.292517380929518
0.292729171895644
0.293317706206137
0.293802697467026
0.29241200669298
0.291171067999644
0.290645001709321
0.290750348550481
0.289817079485357
0.290911961426486
0.290451243405163
0.289705824144039
0.288104851772042
0.290205814008017
0.28892486687251
0.287611906391641
0.286167592922219
0.285361993044167
0.283910511447272
0.284537441661722
0.283986974931706
0.283491932699549
0.284318788741897
0.282093112548533
0.281698216359959
0.283879775121408
0.285018541402907
0.287536850880563
0.285034961965046
0.287852720270788
0.288533671457509
0.289534022338532
0.291762078176602
0.294696988919302
0.296731764770498
0.301063349720789
0.302196334550431
0.305524431469652
0.309251300626336
0.314357538562287
0.316872993968574
0.322454778235524
0.328003527258844
0.331026721074514
0.334673393640077
0.339849606171782
0.344824859737951
0.348836890410655
0.352789964704289
0.359238651970384
0.364727393141501
0.36669711831205
0.368357800743394
0.373939954515618
0.373305990142298
0.375094373019994
0.377042194569239
0.376252259326248
0.377688899627933
0.378393755696431
0.377011861396139
0.378491263411229
0.377656734922524
0.377296181929927
0.376486799657068
0.37694193335025
0.373300391497626
0.37273019519545
0.371028057916892
0.372577844675411
0.370404649306528
0.369806843574281
0.370524949749706
0.368721480140688
0.368928192052952
0.370377445250706
0.370230940583819
0.37212232241663
0.369435841007524
0.373354033976428
0.373746313498878
0.377775717058606
0.379000009137509
0.382208598726381
0.381716914037891
0.387101947668541
0.387933115688387
0.392321400313574
0.396813742662542
0.402739733148488
0.406042521106884
0.410429813828402
0.414451931900962
0.418383566429961
0.420700724596875
0.424556389306389
0.425469944780253
0.42698582282102
0.424150493201634
0.423105759298261
0.422659990546171
0.420842053785313
0.416293478824872
0.417244284084167
0.415529126803448
0.414806393233751
0.413659982313498
0.412682445647085
0.410287688515049
0.415768139234047
0.419395479472587
0.418097934157645
0.422332581124405
0.426412073339319
0.430395539673825
0.437046143607233
0.440180646541626
0.441280744027441
0.446464758406771
0.452881048685356
0.452625426332505
0.458926386318444
0.462690397988783
0.463451284490665
0.469843905971741
0.471196379015146
0.473725911034494
0.48130767549379
0.485493824559151
0.49277992365134
0.496370097453839
0.499367066590055
0.509853216914786
0.516062478798117
0.520808957778271
0.530558948259662
0.53607970999599
0.54407839453471
0.549115129854647
0.554182707598243
0.561592252113664
0.56737917217526
0.569034444727687
0.572448911611383
0.577757887740263
0.577708904373776
0.579914432334356
0.580498251212836
0.578174377728188
0.573166079571267
0.570523135064379
0.568665550939629
0.568095949837919
0.564870802740244
0.561236618919144
0.559403345467497
0.552814171770547
0.554261371565507
0.556089859484
0.557888444719315
0.559534437239288
0.559115341369906
0.564991816764086
0.563125975466211
0.563607742169945
0.568650344260277
0.568728325497863
0.56953992186502
0.574739287812978
0.581894369018543
0.582883647826812
0.586519441222348
0.581585761974412
0.580172054540476
0.584056294293651
0.585914088759841
0.58561820583194
0.58525962640508
0.57422951710982
0.58130612344449
0.584343591363652
0.580201078434007
0.58289669903923
0.574092869049517
0.579452139802842
0.579223482015816
0.580713523871682
0.626325678981053
0.660742687669104
0.619774152630761
0.593730922381417
0.577873287622237
0.572314176031638
0.568426880428859
0.568064066523839
0.567822975047492
0.558710010865101
0.554908348834384
0.561508926220425
0.56307285547061
0.558007430426296
0.553787922185664
0.546583402675959
0.545764690636087
0.540175499141253
0.530088189110451
0.521054908699256
0.516336467610419
0.506468419271391
0.493178213796632
0.491550676459711
0.479286593305206
0.47294991192555
0.463727809966248
0.454618730687965
0.455730244751731
0.445836643971224
0.443104022519366
0.441480752808786
0.442182320853688
0.4363096255023
0.435983404067054
0.43531904706747
0.4374832737735
0.434636742032883
0.439435206551333
0.439212350561356
0.436191281162657
0.43518288655647
0.431428150421087
0.434194017095188
0.428134918956182
0.427874442827228
0.425389749403311
0.420192000984537
0.416636569597905
0.422119160885619
0.411494059623691
0.410280632894861
0.410457708833678
0.404185103407498
0.400092649530284
0.391497777171398
0.392745329814797
0.391059581010714
0.388872098116983
0.384179734889054
0.3785696799687
0.381975816448989
0.373373823741962
0.378220743141812
0.372945579186909
0.370914808451949
0.372619229792722
0.368256617145317
0.371254508092453
0.371097500607345
0.365917957918883
0.36740823845388
0.372019343260534
0.370892931581855
0.366281279233775
0.365735296514389
0.364867645262735
0.366780063660364
0.370815490649719
0.374895703297112
0.375944441409663
0.379058156885257
0.373992001018078
0.375923902418431
0.381348707668523
0.379447220792562
0.378679521855898
0.383207160204248
0.379034490272976
0.384682853468709
0.391082256636655
0.391590577295496
0.39304089369976
0.389174848828033
0.394371350793207
0.395845197516244
0.397571372218752
0.400730418664253
0.404850862187505
0.403265848970367
0.398107776774303
0.404517674926395
0.407940775308468
0.406623525883524
0.409203176586503
0.411174672004198
0.413930177155232
0.412114387215199
0.420687300380258
0.417335397009591
0.419805557934766
0.422742240934921
0.421422376923728
0.427326817287587
0.433707717746934
0.432669103296836
0.438978002345788
0.441130182772039
0.443032595474669
0.442834676033966
0.442471686104776
0.446130932225954
0.451645315794704
0.455101274650379
0.459817628835665
0.464413506666566
0.457401456856154
0.465335664504935
0.4708033415781
0.470835966075734
0.470739245342368
0.469639297416606
0.469611549017936
0.473151904082673
0.484432551296869
0.485157446881036
0.485754420476652
0.495576843494974
0.502424110552417
0.506468814193776
0.509497842676826
0.507086378863542
0.50895254886546
0.516469162064289
0.516731506621708
0.522124577055628
0.539060228490349
0.538966537090517
0.536825965700414
0.544726918340928
0.535687075210697
0.539478796575276
0.554608421014681
0.567614963860006
0.565116925035222
0.561620836168278
0.568017078349255
0.566848901203042
0.5644321102668
0.564273026479146
0.578024851243938
0.577036656763947
0.584304465864209
0.578040900037518
0.580724067309459
0.592266845638712
0.597918654733082
0.600005394360439
0.599069717620163
0.614593450811958
0.613577663307842
0.607432145672763
0.627330613683825
0.62046234709087
0.621886385103077
0.639024921942015
0.621691253748121
0.633335230709501
0.648652583461262
0.641985763266007
0.661943454809402
0.656654281196507
0.648762570513684
0.667579105441455
0.689969809529319
0.687481121446236
0.671379906003339
0.675104417261689
0.693607725849769
0.692199948264226
0.692249478533145
0.686648232211726
0.694283180476089
0.719232776007288
0.728783088559006
0.732219541380993
0.720519849665232
0.72461518391533
0.733208550079944
0.737998445489496
0.730120480076911
0.733126030754266
0.745726326306123
0.74495873180459
0.755060010092849
0.762270513288371
0.746296241243053
0.744336086689104
0.761099286373855
0.77245323914374
0.782511597053046
0.799465197172014
0.789313774204332
0.797108373619839
0.824010670768729
0.808873122100871
0.7963874131784
0.789264090911027
0.814390638407728
0.825189810638208
0.814470169687682
0.835188422620419
0.868669842030391
0.820739365260673
0.853960927965901
0.853502027712162
0.803444567958376
0.817380501923955
0.853857727681589
0.869653467335304
0.87563683542055
0.889656075984235
0.870901182485921
0.865370389419036
0.880513952745608
0.866949881243404
0.897362789848395
0.898376772030413
0.858900502300269
0.882064743001204
0.906287127698389
0.879257635572615
0.922013625657488
0.943876433990263
0.915809831652292
0.955838678347917
0.987597608573603
0.941907468296785
0.989604119750656
0.97117096907422
0.932969818678569
0.982571922413719
0.975678446645712
0.993363475764629
1.02412528721463
0.959949324685636
1.00031421817555
0.978108766227004
1.00163279767488
1.00625519237083
0.996331488295371
1.06585041671963
1.01404337526626
1.03004393715773
1.09022612911009
1.04601965894575
1.07717877667456
1.05171792428544
1.07534567446389
1.11221365276725
1.13777085930947
1.07858895419341
1.08895675051314
1.14371493979736
1.16758017793868
1.14083945581871
1.13494299063081
1.13294617647589
1.08119884271159
1.06515219551885
1.06841847083413
1.09181972558864
1.17214406528792
1.18077209590166
1.13092781570544
1.17309887074706
1.27347046083062
1.20688271229994
1.21451696052378
1.21355335562797
1.20144922992757
1.12388932604806
1.18981799686877
1.37028615453731
1.17079626273977
1.04302877538457
1.15915894354571
1.13699738502394
1.20554973655634
1.21121362951417
1.28309440362006
1.18845983145274
1.2552966781655
1.13463832242832
1.28907898591179
1.3597219597789
1.23891077004146
1.30406034575124
1.34052057964228
1.15227968136836
1.17340793727755
1.19447622551801
1.32768218154188
1.42459767191907
1.17407822254636
1.13612512132285
1.35589782219147
1.33970750539288
1.19127086471437
1.18534728957245
1.4845618033875
1.4051123678125
1.51648429234582
1.29547000226041
1.43293118006746
1.29545300877475
1.6547095693866
1.51784931445128
1.44491498715826
1.40505273774516
1.66167278018672
2.00702947257968
1.74142395218504
1.59863564771314
2.75875315907412
1.40919570157181
1.170852721554
1.26683100808913
1.50549860625046
1.41736849753435
2.28237337371853
1.58281960436236
1.44562359736229
1.2656499280272
1.49107198153187
2.11002778235288
1.68792501691613
1.52396012014969
1.48364057672519
1.56648831307516
1.13653435087446
1.46894897191983
5
1.50446111844595
5
2.6833245290946
1.44050385329959
1.39841770623188
1.32785365315525
1.47407051032841
5
1.54944177124104
1.65188283347058
1.53098491208742
1.99191154324919
1.54904835777978
2.18722751252808
1.87566043788071
1.67548956368771
2.40501429025194
5
5
1.62304367658993
1.45634991159492
3.37961062879704
1.48320218643025
1.62733005132044
1.79520823481997
5
1.05335234427771
1.63885865013783
5
2.18933637085727
1.46526222462434
2.64330034951397
1.33181692427528
1.07844692396486
1.02073533646218
1.48300245848998
5
1.55823978222564
1.60853194339559
5
1.96516233649664
5
1.1005682925515
5
2.92829511859931
2.30413970383084
1.25047877756127
5
1.04622074812998
5
5
1.36724898602994
0.988245466523913
0.806232907051606
5
5
5
5
5
5
