3596
4000.36533379555
650.420452594757
1
2
2
0.0916133664060945
0.0746316461375916
0.0889318510387141
0.0752808027719464
0.0967249540186445
0.0792809708524037
0.0890815210214728
0.0826627908698741
0.0899946199042546
0.0784029291655596
0.0887813023704738
0.077258587626764
0.086639531299815
0.0741412949281964
0.088816427370857
0.0725494941335017
0.0878386766687133
0.0762249608556395
0.0833609076947513
0.0717306218877237
0.0849965855213734
0.0738396491878592
0.0913117455317615
0.0754591268593748
0.0899567660650684
0.0771296096533974
0.0873878926217558
0.0773129577245603
0.0930354607959131
0.081599814139378
0.0837818589001371
0.0739605505435105
0.0935454365943334
0.0711951256832172
0.0900499070851049
0.076904577643257
0.0863198652453472
0.0758425461151781
0.0825267292266284
0.0855514616857375
0.088872792686007
0.080060183598727
0.0951847532705461
0.0779601560370589
0.0890669601493972
0.0713270199359295
0.0931028940883324
0.0738043592978492
0.0989509160369539
0.0733910306981422
0.0841378179939672
0.0712552367999632
0.105248904715314
0.0844603263342741
0.0902937180833004
0.091617596488769
0.0927544305087325
0.075593665600057
0.0918648389812601
0.0744385781759581
0.109271804187795
0.0852599715174488
0.0847592571432043
0.0851518364024676
0.0880650997144016
0.0776014184968885
0.0876870774615792
0.067284850797747
0.0782605362208276
0.0732403375183141
0.0818113226934657
0.0906846259438183
0.101635896204187
0.0713135337096269
0.0872458734450526
0.0764818014061199
0.0941173146579364
0.0668188764785134
0.0795326355740116
0.0830663278916262
0.100764607876298
0.0766857208506113
0.0992137610457493
0.0704739841043043
0.0962364030480711
0.0924471720992803
0.0757006414818104
0.0837576096019177
0.114506109019097
0.0802708855446337
0.0915349885287791
0.0668207820998367
0.0802544073063
0.0734749137573573
0.0796870954232475
0.0724090532942579
0.083483546714913
0.0725279069071387
0.0787805534195144
0.0816081800052322
0.0906751418435062
0.0966893111017626
0.12011555883251
0.0855881977067652
0.138379592335123
0.0871829396605245
0.0896951212146172
0.116190355405777
0.101009057137252
0.0675943180749705
0.0901086284234649
0.0763348733556392
0.0926322669189981
0.0777792777631272
0.0749068080061149
0.0907341825507299
0.116379666909744
0.0821368303627759
0.0825829077702171
0.0707141292868708
0.0724696124088981
0.0974800904004689
0.124086181076928
0.0766329425885793
0.102247535906876
0.0755572615855189
0.0862524135290429
0.116298142099038
0.111108843456759
0.076221271472524
0.0785929346054097
0.0772759871224114
0.0781821969927484
0.0731868197806216
0.119587988781454
0.0815403601605988
0.084581739180704
0.0622753893927768
0.114601474072705
0.125774501560264
0.0989226480771554
0.0717904521615377
0.0820566285217651
0.086308897284893
0.121981663765624
0.0852719839970141
0.0836640303033811
0.0920675882005952
0.0890781527447422
0.0670300368932027
0.0826425224540798
0.0662257859227492
0.0980730760511493
0.0800259787431587
0.0553974585972273
0.129658466726804
0.148845920881586
0.116145794251028
0.129491226317557
0.0750392309650743
0.09370086351168
0.0806067539745135
0.0771507341884327
0.0649121341424334
0.0832969553486226
0.0602134745681791
0.108626367395858
0.0950208770950086
0.0765111389656553
0.0790087258429979
0.121538974597755
0.0854552255835528
0.0980852174630942
0.127464017536383
0.0962153574253017
0.0697616766137756
0.120722290553452
0.075368154333978
0.0698280954267392
0.0818678716065405
0.105238088446703
0.0691021071403712
0.0805655568598192
0.0635092191364078
0.0898692804466981
0.0927421733962554
0.0978570224878781
0.0748473139023285
0.0844495150718249
0.0576868141069077
0.100196906342455
0.121775718149488
0.117250303703427
0.0825090870008696
0.0825903047882026
0.0503419070256981
0.124109870326148
0.0945100724464454
0.0885023852279199
0.0683927200913732
0.0689324001929001
0.0688235339393402
0.0718636046862172
0.0628578400281939
0.0757998491444157
0.0482743309397601
0.125491878424761
0.0905118921733393
0.0784387188785759
0.0617929075171807
0.0858131622035644
0.0677028279073039
0.139944297651922
0.100255715137721
0.0784239845023804
0.0684479055232851
0.0818095104054827
0.0891768874248632
0.099123156694121
0.0674104826883632
0.0760141757685125
0.0655965390018178
0.0804740574180883
0.0667413561679257
0.0749522051490474
0.0750572593519395
0.0791809805033358
0.0746468405920644
0.0812550173626364
0.0668512441765665
0.0868908974957369
0.0705113892762115
0.0699109683263375
0.0703172170907711
0.0757107266061737
0.0763950816907551
0.109154089067233
0.0789224021698089
0.0837409954200784
0.0680408292168233
0.085516809429982
0.0684164290463179
0.0831056452817648
0.0785394523718299
0.0768261904216751
0.0690535895795314
0.12217424984243
0.0761040568453046
0.0823797510128424
0.0587770919946022
0.1058483558634
0.0892106786460514
0.0828979885834053
0.069149872188873
0.0886099723474667
0.0633614821940223
0.0851572728232815
0.116394467956038
0.0979101234456502
0.0732712425147722
0.109784796123573
0.0785630134636414
0.0851844724412163
0.0746431574491214
0.0961539909844721
0.151933001006425
0.105770728151924
0.071442529819144
0.154812726600889
0.100125603244903
0.105895818009442
0.0668243230731936
0.0719376194925039
0.190447848464021
0.157128158059389
0.0825746147783995
0.0954190615158278
0.0965876023488536
0.0857434616468475
0.0923872469728873
0.0968050558173244
0.101447124853054
0.130501547296435
0.130850233282967
0.145360757376661
0.0679278449552215
0.129205071007019
0.116054391905106
0.103354466593698
0.0856379052223182
0.100721741340016
0.07924612985945
0.117096542196365
0.103579557129836
0.118985864907833
0.0916162909064324
0.106574587801718
0.11557616758016
0.108931230441897
0.0905496727970652
0.110300545745015
0.10874258593011
0.110024991853626
0.0917794744662655
0.105687561504366
0.108144511068614
0.0996785743076485
0.100900113144994
0.167423517947021
0.107334934794378
0.116045592260028
0.12497509668518
0.12303831594686
0.10034166434142
0.117509076142315
0.103205951355666
0.111084840871287
0.0920133948044845
0.114978129512988
0.133777847042762
0.123182627272047
0.111495493984222
0.121536927530132
0.106043197520412
0.126526310497028
0.111812884060027
0.122607612222365
0.121581778956457
0.129375136570183
0.103639376766796
0.15958469362568
0.152800705992124
0.116497679593273
0.162229119592139
0.174945751733208
0.126167634597994
0.144085980269046
0.128072087758964
0.147160613648104
0.133950560017175
0.152635383150401
0.139822373064709
0.163363554718322
0.159232398336037
0.167053363875497
0.153257953815714
0.179407241556876
0.212183204810793
0.256250309679447
0.178118330237639
0.188780425527048
0.155696823801369
0.239520893348748
0.200679614678165
0.225274198955119
0.214850030222148
0.199307801282348
0.189927221455674
0.200447972137165
0.207475867366007
0.21249174418028
0.201906007406449
0.224967074531988
0.213038821201995
0.229875235312702
0.228669958650852
0.230541590004088
0.238420163211556
0.29632499714423
0.251934145037235
0.241708351568862
0.243106627762905
0.248976717295487
0.285700926677731
0.294297253909099
0.312382943009049
0.29784821815279
0.303898191798338
0.346387679101036
0.27831240296764
0.282200498252448
0.272213515839818
0.29297623782061
0.281472746772625
0.314863241495642
0.293082730109602
0.311622115084826
0.310657448167745
0.321083668070902
0.317044120823691
0.324717341175345
0.322342863307217
0.367403768456247
0.327433636855934
0.344290385632814
0.321585256149322
0.382117177823255
0.404848266738684
0.43673075706527
0.349924085147101
0.377575330845415
0.355290805703047
0.376260097665123
0.356570557180008
0.387561349023518
0.376100156025096
0.402255982767137
0.410733649037517
0.429057403631599
0.422396611269291
0.411722265857773
0.382900634565316
0.43665747416024
0.413645098380558
0.452228703284272
0.428948998105934
0.451737359528323
0.394954507536571
0.484809272574324
0.436544034724527
0.453554607799656
0.460001092046049
0.454552638115906
0.437319268795096
0.452757272774458
0.451006383972223
0.458018877104162
0.471433085238486
0.481939624925472
0.447122669963811
0.502900578194067
0.462707197573417
0.489074371795454
0.48732140424103
0.516577595330006
0.468418720466749
0.517818409511179
0.469534623765606
0.513643125509645
0.476080885809194
0.556338656882683
0.515178873499305
0.598438861056229
0.54544977428952
0.514396173843887
0.507535677330529
0.556800483407074
0.510841896280311
0.543014898858575
0.570907504173734
0.568674590324849
0.525947314155693
0.57236022646435
0.547229600051399
0.56395872564928
0.565250008608036
0.594975531791147
0.577192858272708
0.592190455539477
0.555450520883773
0.621509281344647
0.584143808778118
0.68010495518176
0.622163767241952
0.691291458278874
0.624246990137274
0.634769503459391
0.581974157752397
0.657492540074655
0.584352767100841
0.64533251024227
0.627063806305144
0.643969788241684
0.617005795317075
0.67618067218294
0.629758660848085
0.695766923793582
0.645354471332512
0.691959000954877
0.641336376899864
0.694641812219542
0.656522095121684
0.707958637574289
0.674383528300384
0.736596143596374
0.686557378687952
0.762059738653018
0.711385115420757
0.750997633551828
0.686690618222139
0.740849151971643
0.663671947280859
0.760782165427533
0.720013893842429
0.772744494962312
0.725978782939855
0.792226567026869
0.70558018972607
0.774829084980267
0.734425155852566
0.812474024741136
0.744233476441574
0.784646330323342
0.72380356605623
0.825886437418959
0.738574716240412
0.84725866290656
0.767676306331721
0.816675270219159
0.777833351909847
0.85470262953123
0.813002950507852
0.834742378340309
0.827923481792027
0.881991176415676
0.758504165172168
0.836122349441749
0.832203430626325
0.879944018530796
0.834094657529208
0.871489024034986
0.827736755650856
0.943630868003436
0.799546595108042
0.927636279108527
0.819977579522826
0.94030172904283
0.831903179722409
0.896363214936003
0.860041863198694
0.890888514793925
0.831418629273478
0.915846556091259
0.893294644714276
0.988607406705326
0.850766207071889
0.972481277499156
0.891219681036334
0.938762358860149
0.890615415032261
0.976475084617737
0.935033752709514
0.968705276894137
0.924931545619769
0.995042865204232
0.898286990677868
1.01509480475887
0.907457261686841
1.0156075906184
0.916243572420796
1.05724367205117
0.977944461657703
1.03393149798192
0.938886534009181
1.03883879728669
1.04703111989506
1.04768875178132
0.989627068440097
1.08437668852246
1.0142401520247
1.02250260726105
0.985220791669027
1.03837258312219
1.00707957678559
1.05048351524253
0.966967658992937
1.08514594148149
0.967004346219577
1.07888586304002
1.03581086432072
1.1271225061957
1.06811203206511
1.12769868664842
0.965613848968798
1.13912869505857
1.00504696590549
1.14821460690596
1.05840149159555
1.23280019402875
1.04363270818802
1.18145201343291
1.05826382326496
1.23195817382907
1.05337447002729
1.18779665686582
1.13825054127502
1.21562456420326
1.08928849233259
1.10291669246606
1.10885663032051
1.24319715245827
1.05931004803058
1.22379216272173
1.16762240742114
1.1886544313055
1.1077539471797
1.29704440130718
1.11873409153123
1.26081367088689
1.15687372049764
1.21516919993866
1.10476636023983
1.26992123105035
1.1064902883826
1.2953181885539
1.04459808829977
1.36167479780538
1.13002019722448
1.31713824887153
1.195399838164
1.30315804775735
1.33830462652253
1.31417980190265
1.14725093692104
1.45965479864184
1.19965388526313
1.37351910295455
1.19029572854559
1.38473660786714
1.25133195826654
1.35718402363024
1.24966160167992
1.3818846795257
1.23794715666647
1.53312907076096
1.26611804946506
1.22774036953293
1.2331643727832
1.31984102311476
1.22911765788473
1.37226084098354
1.21402742513938
1.63057007071625
1.31547297642298
1.26176269059857
1.20852009887866
1.43782604624217
1.25013301140822
1.37942603028946
1.249119495944
1.43064076986127
1.19384029308567
1.35244991828887
1.28893800780925
1.66631611000186
1.39326242273816
1.49924029349788
1.28612356760206
1.4854975480941
1.34632304654709
1.38902915160614
1.37315121713216
1.52311331088526
1.31040692451937
1.63616358246112
1.38917821084827
1.45910153358071
1.41295780738311
1.76906223527007
1.37179293274362
1.46212638304894
1.29598142239074
1.52856027573697
1.32428263976563
1.45421486149385
1.3530744748109
1.4986825185623
1.41085035697974
1.45732218671032
1.32630174383779
1.56892873325842
1.27966620534684
1.48675910909734
1.31554951603611
1.51002496196779
1.3544083974126
1.4433748649051
1.32106689835969
1.62138693675124
1.34498873773786
1.47420452108143
1.36454365406341
1.73887418631117
1.41685078015048
1.52505534389083
1.30009646801844
1.69758146651384
1.42659317110928
1.52698685258965
1.44919503661946
1.46127867867055
1.34140577554011
1.52969732036365
1.34272845261496
1.5284093152138
1.36582790284492
1.63916473290138
1.36333645736151
1.50075515714223
1.39275128770472
1.48787109443238
1.42583802206847
1.44007482112625
1.41285216702687
1.57328342009495
1.52812650364079
1.59139681121821
1.41464100185921
1.54541407674567
1.46554070194332
1.99303547033809
1.37268451973375
1.55429838784637
1.3662168515618
1.53774746151369
1.35479617584014
1.40637755048265
1.42005052951029
1.5380578280577
1.31518340603594
1.41051578476563
1.42902392005512
1.59817725062686
1.28374147582925
1.64915019756205
1.42749560535816
1.60073018015946
1.39058579465142
1.6063366649176
1.38953294063684
1.51743971241765
1.43786601082619
1.84924280324668
1.49957941186739
1.42261317532989
1.39634223485783
1.61905357221912
1.46588216335275
1.4996151539097
1.52838722071829
1.59438772378134
1.43542891122537
1.5452230305154
1.40946819028832
1.50959081637623
1.41833689583144
1.53258076884539
1.33594034769765
1.57598972889805
1.50928169079002
1.55420555946185
1.37343958291058
1.66246694179719
1.35680222814633
1.43673046530843
1.36569088885222
1.44869386646925
1.43714664777137
1.55350304226407
1.41563395669661
1.57176892021984
1.42780632558951
1.50795061885993
1.4115817462953
1.56708572215127
1.49036681414225
1.716951440174
1.3615163242437
1.70843336246836
1.3851368552922
1.43069001549089
1.45221513243239
1.65691900023653
1.40715784774951
1.54461422780644
1.33363489095858
1.4649921284765
1.40726144452355
1.5107815729724
1.35050153876503
1.41227503065053
1.4117612888345
1.48927551955077
1.39273680624484
1.49050225173894
1.45573629774328
1.45908092264863
1.42419515729956
1.52017757481533
1.32011194622257
1.57779300313709
1.38629315899641
1.56408459459135
1.43205848391395
1.53806439068205
1.28881107553772
1.54039958574311
1.41367522097912
1.54729434752924
1.59783485250684
1.53099646809197
1.41775174309837
1.49140211414405
1.28487473236029
1.54240110620103
1.38371340034562
1.52820678444504
1.33338484517724
1.48397063634251
1.51152194041304
1.49439420220696
1.41183370016583
1.42495420218611
1.40649306123385
1.48494735996735
1.35820589485287
1.49161978296393
1.35430079293753
1.40484425721261
1.47413545051772
1.39385476903513
1.44546929432608
1.38502353526307
1.31681450345962
1.37882887570219
1.43532141100985
1.41996871491768
1.36361449729395
1.35999335578708
1.34392461718428
1.40814106838491
1.40227104177443
1.54996046752138
1.40171522696564
1.45998097944876
1.33983653951633
1.39027727521648
1.29085333945968
1.41565797668126
1.35974222929216
1.35912670055721
1.35517543978754
1.43941858935918
1.28737258150979
1.49059739833453
1.28948941072598
1.4028960785884
1.31557158508542
1.42621501816614
1.24945528486078
1.441138396416
1.30741780644969
1.43281966943794
1.28031667469697
1.33639129008035
1.31345772681998
1.35165835019194
1.24324558520667
1.3363943105255
1.29673125383875
1.33152956818231
1.36520408812911
1.33540764737212
1.21811601282576
1.41437063194572
1.25518494735586
1.31834648491535
1.23487999352646
1.28402617804302
1.2591445008967
1.31217177233686
1.21952783974001
1.35129873684072
1.1914646586688
1.31106155913774
1.17741498560421
1.24081060635866
1.21797879377686
1.31167264988294
1.22968184077901
1.27666712094867
1.17219318672553
1.23018674366052
1.17031233924519
1.19721572830365
1.17303351797932
1.16616863113576
1.14825217825963
1.18825561252033
1.16533099117451
1.24122059616288
1.13595445133192
1.19201181669428
1.16094209698967
1.17829274187946
1.13566866991116
1.16423630330127
1.06924937212626
1.1660433629887
1.09130795819568
1.14215697163179
1.1354346079069
1.19684350221881
1.08162045927159
1.09897744857084
1.08726676578907
1.12576607726939
1.03938975486901
1.08783133335762
1.04234088032698
1.06784941457907
1.03942423668491
1.08855251722159
1.04836357530968
1.05427585128975
1.01232065284096
1.02230980254022
1.01609357383404
1.04816720543094
1.01073560225721
1.03163751641857
0.998843844660646
1.01844179047779
0.977082734475848
0.998341737407617
0.965326550399393
1.00674648732809
0.937691910325162
0.98117192141783
0.951920692439653
0.992370616207216
0.937772261463047
0.960571682685145
0.933642938483005
0.944873251911978
0.914974277969285
0.938625046551009
0.9009720441289
0.940761459295028
0.880218469964277
0.909987333077477
0.867710507101487
0.912480813798483
0.869574934582968
0.881301364976943
0.868004789897186
0.892078799441494
0.855466853315928
0.89792911960843
0.850033756170555
0.872010033714942
0.844278785198052
0.863472942138805
0.831467842964329
0.838813159184907
0.826307782957564
0.841968643676075
0.81100813679465
0.827378369527068
0.802483875013004
0.813105452493993
0.806611280585291
0.808960741747254
0.780236314867718
0.78278159667901
0.762636436680021
0.775474704761869
0.779643917633221
0.772448203388548
0.759114875371306
0.763214333452663
0.753394437087597
0.752402734210697
0.762709280476014
0.758047951145729
0.728527225073561
0.744072851474368
0.726778185131595
0.725702311630963
0.699293704638873
0.715306744700862
0.710371761217721
0.713368334789501
0.704857387389674
0.701899579014911
0.68073585138268
0.696796761159821
0.687196325792146
0.675292213656527
0.678500039565655
0.688523803505758
0.659862398481306
0.680745413488852
0.663322371858664
0.669544245258136
0.656465857667595
0.661122892228755
0.641559274983591
0.64314253173197
0.625810491605168
0.634314910576215
0.626969424654807
0.643539107605746
0.621806202375638
0.614884469224834
0.618035076948441
0.622069780563663
0.60927727688216
0.629735460033961
0.590539356593223
0.602645504983684
0.594235750729498
0.603260015080455
0.583825720591135
0.577254933190589
0.571145764161765
0.583487107667289
0.573513053080943
0.58069722410602
0.558934419857073
0.582071745429211
0.557993703752045
0.571009415554783
0.548762201804057
0.548414378305408
0.544467467509526
0.55236028103311
0.536954745182403
0.547253431554366
0.539419734398031
0.542474681142805
0.52322640932166
0.52915681954049
0.514066281033454
0.517911491479295
0.511732950680171
0.513841872373069
0.503712105458686
0.520193318757365
0.504559180766814
0.504019384420169
0.502779230365036
0.503788151546445
0.495272510868232
0.488889300863549
0.486233794147519
0.496499153599502
0.48155964333159
0.479520435753237
0.466983698067128
0.476535385811493
0.462391788328951
0.471447078456652
0.46905327376877
0.469468575152666
0.45595089418978
0.46205002548282
0.446059197043741
0.458770429566579
0.452354016676042
0.454522477787186
0.445198556220242
0.442301541989458
0.435469829872993
0.447072447446243
0.427213844321881
0.442493944364366
0.433434270730201
0.427267721933266
0.419683148254169
0.427865433752186
0.413998437213043
0.423952720416202
0.425864944725233
0.41493742295245
0.408603450824832
0.419661916427381
0.407233304944174
0.417141817119726
0.408929888499497
0.412546953998624
0.403123625569305
0.409635632829827
0.40096608902814
0.405139746835187
0.398769276951254
0.402743706329109
0.397650727372857
0.395227332585477
0.389239630657215
0.403696041035055
0.398468543038751
0.401699583920764
0.385520221295511
0.397792884756838
0.387816773398951
0.390610718138244
0.387080185972996
0.387547512922217
0.382217628317799
0.386258003100494
0.378742380099165
0.38593599614575
0.373108111239683
0.380208565930184
0.369616318533559
0.377613323605568
0.373514873204672
0.383135992786166
0.370615281711731
0.379439586759554
0.37346878542447
0.375833687714757
0.366970425073044
0.373483857934084
0.366288323450372
0.368180093895987
0.366480725648421
0.371476218205831
0.359172732644539
0.366151949127008
0.359067577635185
0.366695653308965
0.359056086145477
0.368781544479059
0.362232674607833
0.360773167707504
0.356998017027706
0.368706602374908
0.35759104119427
0.357777129793482
0.360139878993453
0.363164122142649
0.354403418244967
0.37047810635261
0.357542019915938
0.362275978998191
0.354077267518279
0.360150684639136
0.350915289567732
0.36372803815869
0.352957152612072
0.357348672707497
0.355298678535993
0.352424757638382
0.34953587132549
0.349943321368998
0.339858111414423
0.355295807861459
0.346976547540435
0.345897397645188
0.33898300104841
0.345468242298242
0.338365820588682
0.346789594235381
0.338668275623074
0.346286006102149
0.336629028634593
0.338632707521579
0.326411362477354
0.325367144028566
0.329951042914831
0.332841028672484
0.32522895264914
0.324269260721648
0.317759425992256
0.327665452804107
0.32021238936179
0.323680214101737
0.31583611308513
0.319703752009214
0.311560540252172
0.314363919061835
0.309478328050397
0.311725326761179
0.311862005663371
0.314827188645398
0.308548126346052
0.320877376039846
0.306713026652988
0.308617832967171
0.303564129931567
0.30634360931954
0.30598225189564
0.306349223001656
0.302031794629728
0.301607067496738
0.301630328470702
0.30583129417837
0.297951856736036
0.300144033106575
0.296725071304154
0.302513716212883
0.297084495826175
0.294747718461053
0.296556602209372
0.297067663468951
0.294179462946178
0.296284773049124
0.29878342878517
0.295629525502261
0.2856595523857
0.291540753376074
0.287357542694138
0.293291449339919
0.285787945801777
0.289020695662773
0.28747857350416
0.286374975526608
0.279907234321593
0.285186245071823
0.280012133827237
0.276100801069536
0.27627529054691
0.276077828592469
0.267438019785082
0.274964447680447
0.266374396823507
0.272243379179407
0.27185110623736
0.265027638958518
0.261055748978033
0.269384760222276
0.259747632220499
0.255737613449701
0.256200957104376
0.255160636107719
0.247286037540017
0.252487810305412
0.244336146924661
0.245414887941665
0.242541364725862
0.238563378943232
0.235579676085973
0.239886036977848
0.234886915722124
0.235572059341833
0.236321362673431
0.238460627838146
0.235078130519739
0.239220010387214
0.229891999201535
0.235929988700749
0.223729637383549
0.22382747460956
0.224083326706985
0.228138248977858
0.219538427329635
0.221846341273452
0.218585335991297
0.221667620664799
0.217038228219547
0.219603033424358
0.214617345466189
0.213100115053768
0.213871697341186
0.216827448682042
0.211793670480879
0.212806276107013
0.213815011509351
0.211303321693136
0.207869448429762
0.211428437383463
0.208350358818659
0.210153866919207
0.204939059057601
0.207239083574939
0.201093912569371
0.199525104905034
0.199722371245399
0.199096378059584
0.196127154675209
0.196723789157933
0.194852457953695
0.197192557281902
0.19213366358163
0.196179575752684
0.19110925608681
0.193207086019014
0.186450833430822
0.189327075810626
0.186956667270451
0.189258273919988
0.189094886587951
0.183751329590387
0.179829649683031
0.183846582948752
0.181667398369752
0.180000971042262
0.178840123368479
0.176305251895851
0.16961918954526
0.177163231144152
0.176427592424932
0.1787468430603
0.176171173219111
0.174544201828717
0.174310746004797
0.172644147518338
0.167735693058293
0.17048534653213
0.172319691823122
0.170117671700646
0.169631871551712
0.17019069989656
0.164512431129877
0.166614868404157
0.167676380709523
0.170953006780704
0.16443995035076
0.167641185307723
0.167407058914348
0.167215126554853
0.163657264022479
0.165940146728916
0.161809758124091
0.161849923387766
0.162331512496044
0.159569043374803
0.159354752308865
0.160106803521852
0.157572300359413
0.162817529184404
0.158399153556753
0.158313322371199
0.160838481131132
0.15975174822772
0.156562676835854
0.159387748935293
0.156154995246746
0.155456284117589
0.154833573104409
0.155711386038207
0.154670891639233
0.155947406756659
0.152898996465111
0.1509719939387
0.150556981239628
0.150059050103497
0.148701532985671
0.152094460788899
0.150097723147678
0.151963793085138
0.150336752552317
0.149397244911297
0.14662706941874
0.144286677898794
0.144002392543269
0.146755997212137
0.144646129891947
0.145317854040529
0.143751647794869
0.145116000716531
0.141874466151808
0.143201681155557
0.14250497204824
0.14419752752266
0.145183907405264
0.140337911595428
0.141217251864139
0.14324117251996
0.138753411516753
0.141847849707129
0.143714007297731
0.141493574205463
0.138357751200668
0.143537813156417
0.141238528061783
0.139514717446382
0.138517088899704
0.141569646337224
0.141082779993167
0.137873844495119
0.136768668270463
0.140995299286264
0.138425943957956
0.1372965657752
0.13365717727203
0.134602205258584
0.13597951232695
0.137806513543113
0.137839694270094
0.138234287700336
0.137658302555694
0.138176753862552
0.135386562633108
0.134421571069836
0.134242613344502
0.13537726122601
0.13262850060787
0.135138382312608
0.131566659355637
0.132981865899806
0.130235363113259
0.130717493482577
0.131327800218004
0.129832524163009
0.129917788717739
0.130646335819922
0.129415420721084
0.128147504568427
0.126641080337123
0.132634053570978
0.129499942419894
0.128056224529265
0.12523917146716
0.128340748197313
0.128392663728977
0.122936712562865
0.123471005585446
0.121171804796516
0.122874822745581
0.126516953120796
0.124985118543999
0.124833286583172
0.121465309956816
0.124651938833356
0.121482641805501
0.122894259740314
0.122816281674118
0.11696241651427
0.118559382660488
0.120919001935791
0.118572963839325
0.118296572588425
0.116349953446121
0.118319513547104
0.120250397127906
0.122408929509449
0.120584707929252
0.120914333178741
0.123049309315893
0.119613174069914
0.118055635979751
0.120068877569346
0.115748494563644
0.116870142174294
0.117650234993844
0.114402563144762
0.117837799399609
0.120604660524931
0.115804019508109
0.118787259165672
0.114528299405408
0.112907267969298
0.114188095257492
0.114859690162577
0.112828216451968
0.113689369761409
0.11295335465719
0.109633662444135
0.113650314279989
0.11383297501107
0.108804337420996
0.110184217012188
0.113534953556703
0.112443547212568
0.108395960660429
0.107459440358087
0.107574838742399
0.111944867233297
0.108914036356454
0.103533911826471
0.101350053703053
0.107353514018764
0.105858030073207
0.105938182585499
0.108155702460618
0.107645218302964
0.106748741640601
0.102172218903359
0.105028401026298
0.10604730523255
0.103867953397102
0.104263166105735
0.105505078102804
0.103401480844835
0.100079357557977
0.104566815514432
0.103471077702059
0.103069707656209
0.104978943906342
0.10297683591525
0.101025035901904
0.102687510141243
0.101480419286477
0.101468234214414
0.103686693786766
0.102422590956622
0.0987920104883051
0.101421723728876
0.102784551547398
0.099576814109696
0.102015539726809
0.100392035725437
0.102867956417133
0.10362301824251
0.0999892896803461
0.103706127709601
0.104635601474148
0.102005522635365
0.10244797113844
0.103599215929623
0.102603709205445
0.101422629344948
0.100411667882178
0.0996110802872969
0.102260113324197
0.10517505550559
0.0985324157306618
0.0990003671580349
0.0987620188071948
0.0999452489529098
0.102083084234524
0.0983329062106445
0.0988672363187937
0.0979444672722756
0.097237963888016
0.0988511643408162
0.10117831696836
0.0992622290383643
0.0988510657663693
0.0981227252834137
0.0980232242122479
0.0958158658266284
0.0984285633716072
0.0986087014463357
0.0958185508470725
0.0954256296565419
0.0939210252738902
0.0946864088171381
0.0966126207136089
0.0974821660290217
0.0946227432612222
0.0962232791664151
0.0962680348694389
0.0955317912537645
0.0949649919639819
0.0958398148257325
0.0977614517360923
0.0959579596765178
0.0961343821448558
0.0970569010309005
0.0963877597602129
0.0973780791181064
0.0972202275112699
0.0980372186531097
0.0980096740007473
0.0967523970950034
0.0953661005664884
0.0929538350335005
0.0930997616222887
0.0966345676429058
0.0970392724128295
0.0948106617777112
0.095370811077735
0.0954518407636794
0.0969149619952422
0.100471067139099
0.097045471494694
0.0978882870616567
0.0988144271763622
0.0948181364799995
0.0977790868680556
0.0968120679370651
0.0957496336263774
0.0973450925005415
0.095935520526599
0.0940067844230532
0.0951144711027018
0.0944589899310137
0.0944144776992804
0.0962877337548345
0.0959474594610468
0.0947760698300401
0.097810631552959
0.0981940117114986
0.094184842854076
0.0952063386259631
0.0942935454183538
0.0930262773471864
0.0959808766202109
0.0944748693343795
0.0946693361656356
0.0941084133955622
0.0920208633363794
0.0941671583858915
0.0962792648319035
0.0953458757697816
0.0961338026580923
0.0951608219387945
0.0948026854012624
0.0935159961727764
0.0929911534281255
0.0908965030524464
0.092826980016663
0.0935343417243881
0.0908695118419071
0.0932671194073804
0.0917772697599441
0.0927503405448909
0.0954100246108857
0.0930822286352735
0.0934359933269088
0.09228020617941
0.0914802592665395
0.0938285757186939
0.0967458136184377
0.0951490879541951
0.0968550011758175
0.0964420719418698
0.0935701192754262
0.0934751612854914
0.0939986161335527
0.0941156219779189
0.0936016942117686
0.092651526489539
0.0941610005822799
0.0961703693636232
0.0967016797883494
0.0939190253299748
0.0940864750660218
0.0937821365004854
0.0945260970051326
0.0930358932822931
0.0953920105359646
0.0955488982668934
0.09364228129343
0.0962841725523989
0.0942203112118162
0.0923004560208307
0.0944281392906816
0.0916898724067033
0.0927486021314929
0.0949427572129101
0.0923244385337844
0.0936668528358935
0.0960008222665128
0.0903277812254704
0.0915991388826135
0.0926960427746057
0.0894233007850089
0.0903207879490098
0.0930007515914296
0.0904734459879659
0.0906027113860422
0.0930013916545239
0.0927704559481582
0.0901449490354066
0.091778573041252
0.0915175259607331
0.0940133379788525
0.0945222098447856
0.0923121084839976
0.0918034098765552
0.0931422403234068
0.0925562604671493
0.0935061367219273
0.0902184065235555
0.0909157255921645
0.0915220670075142
0.090679527150073
0.0895638950676052
0.0935001212232334
0.0922255558336645
0.0919347731344951
0.0924070493421248
0.0908052281786284
0.0905046137156777
0.0922127616021336
0.0909804120114332
0.0929368537624017
0.0924976626115654
0.0955707582109554
0.0933984413274716
0.0944742021850874
0.0916604264655165
0.0912323253278932
0.0941305788790193
0.094110453104286
0.0938235571253288
0.0953054563108952
0.0925651212205359
0.0945193823525939
0.0959600385190768
0.0924649687233138
0.0914006984403115
0.0957624377221866
0.0908541046235689
0.0946511610489038
0.095567506304389
0.0929936024243293
0.0936315783936914
0.0932676152801016
0.0912148030330525
0.095461414571099
0.0944237308830913
0.0930996673189446
0.0927154579595247
0.0934099340490249
0.0903392917820555
0.0906567829068417
0.0927711136109904
0.0930831967994772
0.092499710549888
0.0948170544354634
0.0928663964077758
0.0939950367676873
0.0936248976448398
0.0930594680626208
0.090845041899477
0.0937735434665778
0.0921365405816978
0.092290433229829
0.0921494175942952
0.0919538537907436
0.0921892701931079
0.0933240823760059
0.092644175395567
0.0927017771004049
0.0941145448994703
0.0948977624087964
0.0937650108094889
0.0928581909810697
0.0933591622029943
0.0956758585939302
0.0950478809638074
0.0948314699468602
0.0961218452155187
0.0951704391040495
0.0927840519780877
0.0941236854148016
0.0949743942680191
0.0968690141990722
0.098999955434324
0.0986076628069334
0.0958986144245613
0.0998139993009594
0.0993062985816088
0.100005135822705
0.0987217672529864
0.0996142751476823
0.0989034939868877
0.101094531656741
0.0970090604892285
0.101842552318263
0.0965934028972885
0.0965823125055365
0.0953659771503671
0.096498743201474
0.0944165608707173
0.0975591040502362
0.099120886274519
0.0949304461073952
0.0934375281139983
0.0954753990642168
0.0978516721161902
0.0961828572706277
0.0925844947262825
0.093489930908134
0.0913696415106697
0.0953095081174566
0.0886960855045736
0.095381125857362
0.098012866813014
0.0992952340860362
0.0973410139294215
0.0940580158935622
0.098732160231812
0.10188960729614
0.101083386847454
0.0984306458080546
0.0981274554365059
0.0978757493712347
0.0943989852289085
0.0978598765120942
0.100884220062248
0.0986434444031636
0.0994570377607605
0.10016852194255
0.0963728889429223
0.0966433805759627
0.0948940317797775
0.0999016801430727
0.0917874933054257
0.0954552400570259
0.0924086383792441
0.103025608999137
0.0981715412712642
0.10498599616512
0.0912488355089023
0.105861711040077
0.0932886583178437
0.109686220387745
0.0929010027285153
0.116559018009936
0.0943962768878625
0.11327019356513
0.0891314558694679
0.126025329140671
0.087481392556097
0.120369265526488
0.0903061634915991
0.127728499693536
0.0951074627639028
0.119314304769132
0.0959785598893282
0.118067358962644
0.100917960342334
0.111065084941393
0.110730451188746
0.107645939971604
0.108127395170683
0.109905851571919
0.11035866675605
0.103703002762637
0.110967691666431
0.10660793702739
0.106546877046994
0.10994090639325
0.103860953025107
0.11088469360309
0.103906174188591
0.10924606244644
0.105967994560043
0.110955483166079
0.106691111285927
0.105764380549176
0.107169454768925
0.106958005966718
0.105430783989813
0.109416976914496
0.105586868493168
0.106716668717685
0.105779079763627
0.108963719176431
0.106071745921518
0.109915687907977
0.10455262271616
0.104468447484793
0.107507142049629
0.109694510438303
0.106134074040885
0.110829032526015
0.106913995474968
0.109946512296522
0.110417919036031
0.110893809482678
0.108690941850806
0.11077727807264
0.106313078026691
0.110613482291299
0.109768706142613
0.109833476239464
0.108796262400337
0.112599261577757
0.107830031268288
0.112873565246273
0.111502270364438
0.114104655694324
0.111563351680518
0.11480917068064
0.111830062768236
0.117813129832612
0.11537848483246
0.115601908134704
0.113456950165861
0.11507260762995
0.112699675103695
0.115489255909898
0.112745103011923
0.115537139968148
0.113570178126222
0.116617109550902
0.115779860454889
0.117754827619476
0.115956258980718
0.116299191391645
0.115454266729251
0.115566684473764
0.114751361223572
0.11772665466841
0.114292709481219
0.115970847986508
0.117184281966259
0.117836055092492
0.113293336535084
0.119331113775573
0.116133886827181
0.12089679164859
0.116894205137883
0.120696373318503
0.115905377900265
0.119624248670357
0.118345568721936
0.118785271638331
0.118485170331847
0.120341679729989
0.117557210963399
0.122027457738646
0.118542261404
0.120347762923316
0.121707645453806
0.121516425359916
0.120993290634865
0.121669518002047
0.121778903780644
0.122702983671135
0.121791089787085
0.121187218206356
0.121040926933275
0.125891613843417
0.120921484769645
0.125037930936243
0.121431672697755
0.123426827548508
0.125923100147148
0.127617735531393
0.124290885772445
0.127114917384272
0.125423571728557
0.127004285719802
0.12577294169208
0.127033568362843
0.125089605054307
0.127181642960698
0.125394181337452
0.127288684499622
0.127505835916045
0.128238097217307
0.125449240409568
0.130958023191928
0.129048989652418
0.128398983827229
0.127121226702429
0.129670944073218
0.126165866324254
0.129263099572138
0.128103616639178
0.130265383021485
0.128190075807982
0.129329784166283
0.13017642544055
0.1327479682195
0.129020795578897
0.13098788572618
0.131377899342175
0.131067477394905
0.128498422642546
0.133146694430102
0.126267442991902
0.130142018424744
0.132149374237591
0.129680711117862
0.128534825318564
0.131833719256263
0.131838827927048
0.137355711773898
0.132264440670359
0.136693879235799
0.132217982359857
0.133068608558133
0.129201187666724
0.132722831129223
0.134650622285702
0.133526758633755
0.134645327213675
0.137571449124019
0.135696704473927
0.138028537875448
0.133555766788885
0.136630997528066
0.136835147019788
0.139607421536749
0.133330599720563
0.13590241781654
0.132789143812151
0.136811655541397
0.135902170774773
0.13738381557532
0.135552541934676
0.138843404032533
0.136797237688988
0.138718355075009
0.135234907414142
0.138184376215278
0.136904967133303
0.137368781195508
0.137700941463061
0.142159002209404
0.136606997878686
0.138625722664366
0.136083246372732
0.139774795370121
0.13893315258593
0.138187335968824
0.137427510292808
0.140461790134116
0.136107697017076
0.138415475840213
0.138422857052295
0.139368992996805
0.137187790435792
0.137821164006926
0.137732435695268
0.138669122160133
0.136026928003094
0.138610569765754
0.135817348698865
0.138557479694109
0.136130775896205
0.138920067632949
0.136931298901203
0.140598618100476
0.136044533268227
0.138743490322996
0.137819263746487
0.136497315008609
0.133893844436896
0.140302282953144
0.141150343334115
0.140587836574588
0.136203433627318
0.139910092477765
0.136250587794916
0.13949574408725
0.135658865204965
0.13820525454524
0.135314254215301
0.13854015704948
0.135605151557554
0.138400783476582
0.134181738368529
0.138159140717289
0.139190165624629
0.140840362225806
0.135984721646184
0.141403326204152
0.137743986223574
0.137101171918965
0.137622776821685
0.138839432649339
0.135458456855044
0.136799559639038
0.133440593894517
0.134308024967005
0.135395687580785
0.137651591363672
0.136796325104435
0.141892107805273
0.134781580121096
0.139280067632594
0.138577625129358
0.138456204852205
0.13594929216005
0.136775304101949
0.133900867040974
0.138138016291479
0.133452626571704
0.135231260642276
0.133500503615171
0.136233401914667
0.134220432301192
0.136715773849671
0.134832213132071
0.133126876076015
0.133499693061855
0.135802508428517
0.131632061868248
0.132677109764122
0.132769819361605
0.134355838267421
0.131051377275608
0.132520146071309
0.13024514265549
0.132805210390612
0.134199623975406
0.13419756510215
0.128863747540055
0.132386455603165
0.12788596367449
0.131990799748806
0.129511297204563
0.130624444258549
0.130884214911948
0.131507402077014
0.125217416809454
0.129123881033232
0.127389402867499
0.128777748447318
0.126765096211162
0.128989653049363
0.126953740443529
0.13041743171078
0.12425299674808
0.126676024512831
0.129318403374623
0.13081461866937
0.127019437996863
0.130071119838552
0.124989501936395
0.131826026623268
0.126792104724519
0.128586607829949
0.124863292447674
0.125037130919167
0.124257103075077
0.124943543709694
0.122394078591538
0.124463206542072
0.123433446256775
0.12530355032097
0.122637573703502
0.126627101179431
0.124092685887585
0.122768920012459
0.120631036927046
0.121587503115281
0.118355427041764
0.123439736063249
0.120236530195299
0.122960536838549
0.119740682338636
0.120531758855507
0.116699200594706
0.123102767980198
0.117718589515729
0.120057076576236
0.124197610702853
0.121163747001893
0.116459369095598
0.11779922892452
0.116165906566262
0.115116593750532
0.116794818702223
0.115304753109616
0.114411592979619
0.116278131691895
0.113632415477477
0.115277953311346
0.116618828124048
0.116416555923287
0.114133265144546
0.113334127662862
0.113808600201874
0.11277076219301
0.11064528084391
0.113100694574219
0.110703348861975
0.111598875586109
0.110229805580253
0.111671909933558
0.114025182667041
0.108815378478821
0.118189113073931
0.121876669578871
0.110627555920824
0.112634428612098
0.112401942351382
0.111737416670393
0.110505914951829
0.113985322201428
0.109199301328297
0.111977692460252
0.110013458834248
0.110098224477503
0.107612744463169
0.110203244254636
0.106179669916758
0.110551680703028
0.107202780181188
0.106769084060685
0.104864039306786
0.107583041202936
0.103915496118037
0.108060859560743
0.106113799436506
0.105122107053819
0.104663758425898
0.107678356286011
0.103562303932113
0.114171512302139
0.108729073048254
0.108588457751205
0.101246594818403
0.105473296992732
0.101973592207307
0.106578656287518
0.100097504258178
0.104214850977395
0.10030338667065
0.1028704366395
0.100131212235352
0.105190762166129
0.100053159002584
0.102345412114126
0.100913466907511
0.102751449569548
0.0979981771804154
0.105082618241263
0.0982839898779726
0.102753201651676
0.0981243763734989
0.103625042465408
0.0976860137358939
0.106050626780447
0.0921675270927794
0.108263392156309
0.116618411478609
0.100331364419537
0.0987095750153716
0.0996676496134829
0.100244922184927
0.095846243130173
0.0968228902078486
0.099258520259309
0.0962470795119485
0.0973656131311343
0.09757613131527
0.100158171009884
0.0978321449669598
0.0983991176644786
0.0992652998607775
0.096627433792064
0.0955916515603628
0.095378671216848
0.0976204085559128
0.0943233736774277
0.1016199524464
0.114222173913332
0.0983375130443717
0.101113777946299
0.0965502659040967
0.0946182153287715
0.124530697498752
0.0988995393495103
0.0991243591987528
0.0938349318384079
0.0997518535918279
0.0951120568819424
0.0974624313653136
0.0908910349352265
0.102061511817389
0.103895813237816
0.0980863061127476
0.100486274255281
0.0949520237306223
0.0966340865544419
0.0921286554764937
0.097527836120807
0.0928991426456432
0.0956947142328639
0.0950041974907983
0.0946154339649889
0.0954404269496767
0.0920982502231682
0.0932244734601035
0.0916194026395859
0.0988071090320356
0.0998468441996146
0.0952819688357724
0.0950064835151118
0.09113412522839
0.0883592738955688
0.104370762372718
0.107109160637877
0.0925096963461338
0.0987993243007921
0.0887080051221762
0.0980178264420239
0.0919272628415047
0.0957909327444255
0.0903678569148074
0.0955178420785496
0.0883160194950392
0.0966808924354834
0.0918341331488096
0.0943544472506081
0.0894977771562036
0.097037372587156
0.0901200643411079
0.0968834400902518
0.0904218364322528
0.0934987541465451
0.098487732417161
0.0900252941777718
0.112968777371027
0.113173248646454
0.107569994203433
0.101104954575958
0.10330778705658
0.0949821990364382
0.0944357036056157
0.0927241286672313
0.0944178421231822
0.0983942182457992
0.0957676010209228
0.0964117221285949
0.0950342425262626
0.0950782538808681
0.0935523051080158
0.0943419440138067
0.0926768808282024
0.0962335034583353
0.0866965009792592
0.0962490268227999
0.0902590348913407
0.096555572637698
0.0890164753341416
0.108954274603598
0.0932828439935385
0.108202675072815
0.0784116616837059
0.147739591476535
0.108736174225599
0.104115564691439
0.0962080819831267
0.0967936147377364
0.0949139687489201
0.0933152658833768
0.0950463726003203
0.101477262269484
0.0965867944347598
0.0971451365521192
0.0934597783061411
0.10059389613017
0.0975459081436499
0.0932135633672335
0.107646260375477
0.131595385366091
0.0991769732349716
0.107482367463148
0.0863913191246305
0.110953731510242
0.121832374193911
0.100416665237434
0.104038169209976
0.09787123363493
0.0971805433656166
0.0986122126799358
0.0989206959382212
0.0970494418799948
0.10438606623691
0.100885343719825
0.101754506449729
0.101807994560238
0.0942630101171057
0.103722060231651
0.097163991722748
0.114146051855788
0.108648052541199
0.0963210386278934
0.110443402540657
0.103735046589622
0.100991260528757
0.102494441710756
0.102260085813322
0.100292521010682
0.114478567732865
0.117744209236315
0.106732928506452
0.124959377259586
0.113197547755837
0.100958069093041
0.111660843028024
0.111730915582521
0.118286710207771
0.0915501092935523
0.131929316409193
0.131107688553338
0.123221554443141
0.128542087789521
0.100619480329063
0.114279497418493
0.0983153236005769
0.111734825468912
0.0990789678044933
0.137143971699789
0.095635388835352
0.124473852910078
0.0938602519153483
0.135966144457025
0.116671668216399
0.121634683720795
0.110823404638737
0.117129522978756
0.105260986666342
0.138614263771408
0.111065832258873
0.116649138935621
0.15197683802627
0.140058236354274
0.148662354416432
0.121377226105821
0.116404334165699
0.162772356395303
0.116374202088181
0.131346386337123
0.109742058984348
0.131843175867871
0.111797966039503
0.133057418168636
0.162329151217119
0.128609725811601
0.129169286199773
0.134646914624133
0.119948233518755
0.161094005910175
0.135540123521586
0.136086126834788
0.125108772902335
0.141921476921158
0.118214925352358
0.212327490413988
0.138804901553717
0.165444039248308
0.156915454631068
0.164785185892804
0.151386725963205
0.154793045815622
0.143356420529043
0.163757338603303
0.165616471036312
0.155883162342858
0.130826971327175
0.183253374895641
0.176455921281326
0.151487535640327
0.16719180872974
0.152859906812256
0.157359423979571
0.217633249178365
0.221280492699654
0.195566186116444
0.168435716575986
0.176004482815982
0.200280254852175
0.174321873069123
0.175969260705654
0.1737862495637
0.174253692064521
0.178260193418665
0.179172047560445
0.201578761132762
0.179547602434621
0.195538407852138
0.186866424446714
0.199445061585148
0.210892600983976
0.270607209497775
0.246228135379038
0.213298006560654
0.26557486990455
0.226971635063955
0.230368795589118
0.218478580498453
0.224563504557251
0.238010548536591
0.237733834106908
0.240118213058519
0.230750762814814
0.284479398465467
0.253398864176226
0.277073439815724
0.279842511597044
0.269291425268745
0.274742480145982
0.274494358964373
0.522093626627497
0.291023087012837
0.326032681534023
0.286487958871993
0.345426024937095
0.391979512890425
0.327073291837852
0.319620254276519
0.329071674426404
0.325291607272545
0.346407285597738
0.356639407367725
0.365723555018979
0.376579015083823
0.377721299085213
0.367070453765885
0.418745335872639
0.476849348041655
0.464884934583322
0.423665620716656
0.410570361270662
0.43640635586194
0.447736398969549
0.427310936840445
0.455826848576712
0.435192164807996
0.468795127962648
0.531665660249342
0.477331610375136
0.484436425556273
0.481873399856027
0.543129927872129
0.47694137151168
0.602496780979709
0.541532296872188
0.548559535584425
0.519500376547783
0.552403565684055
0.544589500802102
0.54494667707381
0.615022666666424
0.589926081836818
0.584460759336054
0.592758757931598
0.5889415363569
0.603664025816689
0.610837843753992
0.621532255569665
0.612401210151888
0.686124454108033
0.643800832718472
0.880535052786716
0.671622992231312
0.669416736019797
0.645154016863168
0.658258495002357
0.709847160044841
0.693342344570169
0.74678067238723
0.705019016087964
0.675065321133868
0.694998151897233
0.678718593715904
0.712144684546425
0.674262020715675
0.710114073276185
0.684159728355454
0.749814009390378
0.678920527968896
0.763986695001782
0.786968842983046
0.70971945400671
0.688747022099496
0.687228169284902
0.664713861111643
0.692837066712735
0.668412333126957
0.686662996238772
0.71463776278
0.670511089942733
0.662565066101709
0.643779391449142
0.693583533386609
0.693995584096902
0.634699276372448
0.641662531927435
0.616448059318113
0.630912150008817
0.591807312345086
0.63528929364548
0.689898154175803
0.598626906990656
0.572511258579661
0.574261865729844
0.564750201491495
0.559747374858141
0.542233223471621
0.549127273072831
0.535987638204659
0.528864890256914
0.527367908754678
0.507756426094394
0.502233827816978
0.497948402048638
0.502972272756777
0.491502381193745
0.482388421358663
0.481202075555705
0.468304156749976
0.460520589767011
0.454495468347417
0.4596584127389
0.451085882900065
0.450905222951065
0.451385865531742
0.437011857415375
0.436417973992731
0.42409986017266
0.424165340583874
0.41884873544335
0.41356933412775
0.406001184790407
0.407026225932078
0.406826195297727
0.399090845131212
0.396283213610392
0.392915050414643
0.397348777625889
0.389140337379547
0.390174782864816
0.383616456970033
0.392179667006648
0.373157366663919
0.465382353686842
0.399818224343875
0.386377990484228
0.372174608848635
0.36914404872906
0.365989226858976
0.359848802829001
0.422350770536276
0.395711381994502
0.364656213680481
0.366133003320669
0.351460006742485
0.377800200610751
0.371503419993689
0.35092824265432
0.364820544013126
0.335738001561449
0.418736682912237
0.41394232014016
0.448966090211499
0.431562527756695
0.375574381646382
0.338366569213465
0.360919435778363
0.391602189654014
0.336693229509469
0.344507982317917
0.326523175142797
0.393289080890094
0.347641314269706
0.330997239797597
0.330983344574211
0.324719603306137
0.350412151709787
0.369237040740305
0.330739893511435
0.362079703837798
0.371430722198866
0.339698573616525
0.378405395693298
0.407906523185682
0.348552018638312
0.312192425004684
0.320816250007327
0.308623942814074
0.319769518999795
0.371604264735649
0.312645021340668
0.328809211738794
0.293208759502721
0.301315959541358
0.303225478022874
0.326815462954122
0.310220847145436
0.30737083682995
0.345273698840744
0.284077354173666
0.31525780677893
0.309341750627121
0.357259851583744
0.344771095818144
0.303934852156674
0.273898885832473
0.330126848838808
0.329890573545224
0.299915758948761
0.307186898177076
0.271397638704911
0.28323095472849
0.307097260261283
0.264090869402843
0.300547552591465
0.293427636618377
0.299230305285917
0.343912817083033
0.340343662897621
0.333751726831628
0.281752647396663
0.259759933870791
0.258946044287672
0.2676296538982
0.267047938153611
0.246558936559233
0.30489678631908
0.261889437357031
0.26025852577907
0.316438182050181
0.261110288443043
0.255887170169181
0.257841895890818
0.251495521939733
0.265313314626713
0.289469211674827
0.310695414929915
0.274196354201332
0.276797317798007
0.282833411064622
0.255552744954589
0.2615394916519
0.251637221458898
0.255924997540381
0.258700793094371
0.272010437307133
0.266469009375938
0.262903934257581
0.26505865246796
0.263435362779175
0.29879578953044
0.307446548519091
0.26211661323071
0.314303219178862
0.293590366871003
0.353027554711702
0.294613342450474
0.284436769767911
0.284378450706402
0.285319318457563
0.290217719112827
0.284674729235131
0.306514457427234
0.335582792696121
0.291617296420029
0.302466960412316
0.287769940280682
0.303321517592137
0.293477949828021
0.345292046123919
0.317077564653108
0.398627738888642
0.348536050651704
0.334523481954328
0.315048750128733
0.300712387772386
0.313838384489823
0.308374077763507
0.305320443068737
0.302842005471293
0.303922344260766
0.340980803031053
0.310178308342964
0.308962240787144
0.300903620640942
0.307524747644092
0.304820017270096
0.306558015682206
0.305934557046095
0.309173210866822
0.312352009272898
0.311259570429171
0.31276269195549
0.393431139127974
0.325378528635085
0.318959546260129
0.314300730536772
0.327545134412752
0.320396130953317
0.316380954699261
0.336431312458841
0.326331554049782
0.320122138892543
0.320697076849868
0.317271041433935
0.320284464334236
0.333143910210985
0.356205478794898
0.315350121622898
0.338091951241748
0.312957992080407
0.369593042623548
0.37495235302036
0.345398486519562
0.346236796783466
0.335378471271726
0.328364728592201
0.324189771437429
0.332461272579641
0.328766866113655
0.333682200589936
0.329298060647369
0.333153787281085
0.328262569035097
0.332563861682301
0.32783299047222
0.332313325640717
0.357241242706391
0.329913697208444
0.333394922531284
0.328579233267465
0.327918567401316
0.324172981816132
0.361912309921987
0.343153223323677
0.336588259937488
0.335562881032946
0.340554041851693
0.354760293569481
0.344114938061079
0.319157467742608
0.33014798584304
0.321484316164674
0.325672291258415
0.319114929305639
0.337430816203272
0.35011801573679
0.33396121724633
0.325841945007362
0.324908149328491
0.329151070183822
0.332290110903555
0.333724137099626
0.331249249546531
0.336717728740147
0.336686241055859
0.341451024218186
0.334201502768919
0.337515532172641
0.352522042515171
0.350347685376945
0.3519304386041
0.333521192110577
0.340375305922282
0.336803152522552
0.337895404719114
0.343541356722963
0.337252387436261
0.330466609266985
0.329011897385742
0.327475718227763
0.333154980884738
0.358584558872227
0.329674106198831
0.336577017174565
0.328779719851413
0.321319074225818
0.322835454263506
0.318207978478947
0.319187175460916
0.317520684688136
0.318968999463709
0.312128403625929
0.314987096304379
0.308897696676906
0.307307261595985
0.306764924016671
0.312427903299207
0.311342705728979
0.311467793935042
0.308534429690292
0.313056103745445
0.310584317224885
0.311369761974132
0.311419171083398
0.306391078120331
0.324391656204824
0.330438214288152
0.323642079083949
0.309686719190123
0.313826698356193
0.311980073048828
0.30304674401901
0.310052626606418
0.300882978367245
0.309309298425078
0.301113238163102
0.305138422476793
0.304615110175716
0.303323290848055
0.298597872363473
0.303957479557281
0.300239807956479
0.300393784938575
0.298572376113005
0.307566925289253
0.299395759655694
0.305705512800498
0.304146137470089
0.313432544610727
0.304829348288408
0.306500778587451
0.304114936422834
0.30133583520005
0.306918508575189
0.303908694641158
0.30243994030115
0.302758206773017
0.298658842833786
0.301026615031047
0.298915390089
0.302631806515989
0.301651308821184
0.297472885004627
0.295199632101324
0.295888613126932
0.29510209445345
0.292797264910516
0.293991911510584
0.295240315684083
0.291040891330222
0.29028702525751
0.288934540572434
0.289178908301351
0.288524663520014
0.287610626545498
0.28419084326046
0.287348813628241
0.282967933467194
0.285027489821125
0.28273216232337
0.283781420936917
0.282594130400965
0.286162277396471
0.280641715941425
0.281765295389434
0.280580012981462
0.282389183478939
0.28387697147946
0.277935754369621
0.280540700705719
0.282346342203141
0.281074978771348
0.279704221129862
0.279353160268475
0.283081064376984
0.284236724098401
0.280613016569546
0.280565238130665
0.283481326449535
0.28743736093067
0.287392426034577
0.285005886761666
0.284055539215139
0.285967093792704
0.28853827673552
0.287528819181559
0.28759292849374
0.288731559136778
0.291081237779505
0.289278228786506
0.288932254371032
0.289550376958973
0.290408514945769
0.289814919304266
0.290358455957905
0.286469080506134
0.287603087954692
0.288187700476732
0.288471574737618
0.284795437453043
0.286254917643928
0.288566531747976
0.287054709611161
0.284735260576592
0.285554769284658
0.28670119189725
0.283236700022594
0.28227142786529
0.283815990446944
0.283141634434117
0.282900448703844
0.276790126836475
0.281689948608902
0.279422242311454
0.279382157773325
0.278980086209898
0.276979983612732
0.277574189026124
0.278900060928772
0.276520549460259
0.276298442523207
0.275157132618037
0.277385597106855
0.274970697897441
0.275733680441368
0.273510512158149
0.27575778015291
0.27370611569506
0.274963313633945
0.272836026672734
0.272532421903653
0.271978866504858
0.270457075828911
0.270374800507179
0.26973224856668
0.268884748078192
0.267633206306164
0.263523317931828
0.265602319221101
0.261388006323384
0.264658249211763
0.264102878971886
0.26264424940524
0.261009551685306
0.260847254293409
0.260404255718793
0.257477133610775
0.256981832998816
0.257658448188297
0.257736802553582
0.257020481892475
0.255588274178335
0.257381914056084
0.25822789865181
0.257218386322493
0.255076092906531
0.256114063374711
0.255126973489377
0.253168596344813
0.251714412374918
0.251811153639817
0.248017646927141
0.248631940993813
0.246882940196866
0.249422016151571
0.247204332076084
0.246361272829503
0.243792652753601
0.241621565374684
0.242813096939167
0.242528145060192
0.24194564558436
0.241798141622795
0.244291906424913
0.246995472364812
0.246932496566868
0.247717521874211
0.250147628895299
0.254324056023104
0.256126571685829
0.260638100134985
0.262643435024968
0.270046912163167
0.274011315691219
0.279360868227427
0.282975848140962
0.290760564716853
0.296063563673588
0.30259104954483
0.308000439564688
0.314333686936188
0.319658849971428
0.325110149948327
0.33133240758838
0.340004379408343
0.34454788054185
0.351240548200914
0.356261247994252
0.363573976614509
0.368598344370919
0.374257641045407
0.3742580049534
0.378684517335808
0.382122325683273
0.382896174841157
0.383252760054129
0.386905925353399
0.386543719338641
0.383750090133365
0.385759265253601
0.384651113713247
0.381499233668611
0.383974829994285
0.378950348627293
0.379079154689038
0.377432753213004
0.378945578017455
0.378687698993059
0.378396353517339
0.377446081486371
0.376224328688511
0.376194060077128
0.375403346943037
0.377247025614782
0.380001320429901
0.38088656320011
0.383311993877007
0.386541593651324
0.386665776351419
0.389238019132921
0.394549937577416
0.395769455483858
0.401677277775569
0.40428578869597
0.410569362438604
0.414135377005274
0.422103423920353
0.42636954012249
0.432570113008095
0.438883240914834
0.442801959314372
0.44816776553626
0.450368090420023
0.454855670125375
0.455240996203335
0.451186422928891
0.454746748760573
0.451765093730889
0.452067820692606
0.452865189551037
0.44911333950988
0.442362919069265
0.445588809706933
0.439424530824954
0.437685563019632
0.438812012789893
0.440950071325097
0.442351354198527
0.444103827807512
0.450947651905393
0.456379984996265
0.459639598279522
0.465739791671931
0.471928571646061
0.478102102956318
0.483608355433884
0.487307837221113
0.49089821185503
0.49913257447359
0.507197444428897
0.508732359151939
0.517017732412606
0.519177407037952
0.524242807164208
0.535107077226307
0.534700544596208
0.543146689280728
0.555228339788624
0.561176582763459
0.570308104676132
0.582181303187612
0.591019527923603
0.603133241321445
0.613149371029393
0.617596096795649
0.624714310043445
0.632300531573763
0.638111384765199
0.643955341617493
0.654722433773626
0.661609101181663
0.666826191133143
0.668398464881684
0.668149229750326
0.671186363929022
0.675385464007938
0.672969755767408
0.674257488190005
0.67253820622897
0.665353017224823
0.661384695165921
0.659593322987666
0.64897651196153
0.647902566324569
0.646220310849843
0.647658051650112
0.646062078266607
0.647356275196841
0.643745145711584
0.647574128289557
0.651505955065778
0.64955239028697
0.65833800966704
0.654478059870131
0.659842517392818
0.666247932084646
0.673773222064581
0.679634114424656
0.677664663058651
0.679778028528673
0.682486393321081
0.688103114999422
0.688294943808686
0.690332410679386
0.688944026063556
0.681959822427065
0.690887081657209
0.693064067306994
0.687644920649673
0.684803510610458
0.68966943334383
0.690771622426778
0.688932232196759
0.69319261960895
0.74625099820863
0.779484194360582
0.742727202673408
0.7081518934726
0.690658600317441
0.684345776248138
0.679600709911512
0.68295312468616
0.671324938584713
0.67054513914371
0.671821194604217
0.667884801850761
0.669798308599205
0.672209158358961
0.66770974507034
0.658766528304501
0.656815964750335
0.642603376508581
0.630511598106708
0.618650388114248
0.611462043193456
0.593464622577678
0.576495664521715
0.569221503729853
0.549250389274741
0.537791503192009
0.522746934093121
0.508460559017993
0.502072623903862
0.486668287685028
0.477175713036431
0.473195194755324
0.469077685859374
0.460256666295823
0.460235845406722
0.459692408115117
0.460891871851261
0.462665385575711
0.460066658692607
0.457733614630442
0.459150549752469
0.456765838940988
0.452337939945408
0.451719483197527
0.444223421545006
0.443640143244392
0.437486228622867
0.433478803778587
0.425525004471645
0.424534727564791
0.415940811186581
0.414104478792881
0.406505905117009
0.397658760688047
0.392133836277916
0.381432910629756
0.379846581703941
0.374467741393459
0.368427180515821
0.36444939037051
0.356127183130537
0.354236320102119
0.344190560634507
0.344046486349419
0.341120052737228
0.336735311849697
0.329285282218977
0.322758225039673
0.323325460474323
0.323407546171234
0.319410294034692
0.319052998586326
0.322837839122724
0.319207708036183
0.315056575490075
0.319186137233182
0.316780744057014
0.312882238319307
0.315689135900018
0.313817435551605
0.311284316518384
0.317518427550425
0.317097833526998
0.319549761417582
0.318744336779931
0.313074674047217
0.314935031114418
0.318653961000504
0.31598526604029
0.320148406929089
0.325567298152283
0.324295737925004
0.330746392711472
0.326971529341148
0.326564669158518
0.329687133456076
0.331529008388584
0.331084025524517
0.332668448444321
0.332198837248428
0.33064101498851
0.335105853082979
0.333158255162925
0.334918297688711
0.336936235161126
0.334003923325222
0.337066848514247
0.336218560643312
0.343241083250223
0.337083068988752
0.342145550754377
0.344396580026328
0.34437642227514
0.350629181632411
0.348325446763314
0.350746187710237
0.358640403453099
0.359363275516276
0.356319709720006
0.361546785095203
0.362788617862774
0.360945264514564
0.366695200638248
0.372522296190503
0.375969954144018
0.374808051364378
0.370433540102249
0.376204006095059
0.375035815392812
0.383423378817832
0.381890679385034
0.380257995428172
0.386573661612753
0.384106403653615
0.391359972875415
0.388056574754928
0.387811267806711
0.396310135295292
0.401152288842692
0.403710414494834
0.408346539881805
0.410697443122482
0.415067917823081
0.421758891055008
0.422026509667493
0.42839553941396
0.443342404934713
0.433725061219371
0.436611083303496
0.453117195865241
0.443551709420212
0.449670641705882
0.45780451220225
0.454341775198381
0.453269545311083
0.456217810601245
0.451417842403536
0.454817088057472
0.459034537806382
0.456357922571613
0.465967784737611
0.468750511533589
0.462964761496333
0.462706645591119
0.47078998517471
0.47374457495333
0.48440727169624
0.481844240021256
0.481720310828995
0.489344102897013
0.485826444959824
0.486619610112914
0.4945419382707
0.497054628557453
0.491021906684561
0.499526689761944
0.498692034726053
0.497813320749976
0.506895081807869
0.506438216874729
0.507000762200228
0.517089588149711
0.512230681758647
0.509172880028345
0.526566041194547
0.52429693456137
0.52374277382481
0.527929247128024
0.531564936406619
0.53077293251271
0.537279677600869
0.533589415587737
0.544813057216762
0.553738883872027
0.546108571506618
0.560831221018395
0.550589926298806
0.55855186734821
0.560518428805888
0.554414135595073
0.556186504156918
0.566447609892266
0.574126164271384
0.578329101776345
0.569902944195116
0.586356884291211
0.585016394207131
0.583591762594186
0.597026214000657
0.584429620223882
0.600780552364247
0.602715739877221
0.593201995987962
0.606208050077473
0.605751445707303
0.606487619003454
0.608374672317342
0.612876476966649
0.615714315692012
0.616308056383978
0.626054163014629
0.63962423887103
0.630192380112104
0.618356900700303
0.637411367132485
0.639307570780432
0.637616163037666
0.61578102491663
0.65737272672367
0.67202141936379
0.645355180679845
0.664218219122764
0.666843227072702
0.68168725205728
0.697516965397794
0.672449110609073
0.676473449547511
0.69556395934611
0.695613363102475
0.690049642760682
0.697405039194463
0.702811741195446
0.681923958108701
0.71795645861892
0.71368472284006
0.701892435934107
0.73587186991305
0.725167684859239
0.726647992745192
0.734600878841446
0.719241296006386
0.730067746939269
0.748322940080639
0.738925856809407
0.750520998981424
0.783340833087584
0.81024745031849
0.767429324947474
0.763733730360385
0.789838027023503
0.811288243035675
0.807937290800265
0.821692821294526
0.841471019750357
0.835601632679927
0.82273718076222
0.827277520974808
0.807976720752527
0.812117990646484
0.828081990595974
0.822960630233069
0.803853879854694
0.83545451971932
0.859279675496954
0.882158269325988
0.84930009081227
0.873801219489849
0.866469340772192
0.896947136738792
0.850193383077976
0.852156766196452
0.911594874770672
0.888260811069351
0.857773249793647
0.882135851883593
0.89413188499984
0.955002653737299
0.909304231973472
0.885527628676202
0.859519429079537
0.863845439876485
0.876533089863569
0.906432154457204
0.903428860149652
0.906380444433133
0.951966904273631
0.916907270127905
0.843765028812112
0.91346804454134
0.995803981590296
1.00679313983034
0.924612391793291
0.918176644281088
0.903489974259815
0.902836257661812
0.925221210960991
0.95231209350875
0.932193448673072
0.985521240447257
1.0544700278736
1.05230310320556
0.987210829272118
0.943932091208857
0.944010757296785
1.03990679767756
0.970756782983051
1.03215346937058
0.993773911242721
1.13830050301055
1.05987349513429
0.910041820006726
0.971776623571301
1.09746207071713
1.0203777724645
0.947947360892367
0.973520565970616
1.02109517869756
1.02133435099229
1.16223180578689
1.01588856042772
0.904566900893055
0.932325313109601
1.08364757731592
1.05559147576037
1.07777177555392
1.0340908557611
1.00962368864395
1.15406530676925
1.06661598895436
1.01763892864824
1.38111141163389
1.23036256609142
1.13475585103153
1.21035841268968
1.24336613481947
1.19370874941605
1.23421619740893
1.04974537443931
1.16143875831868
1.16327452933809
1.17111751588943
0.971429767075689
1.12753014007729
1.03598127379509
1.20778354864024
1.06259462220374
1.16807436458923
1.28848718333661
1.18617231700291
1.18605553770555
1.36107414850644
1.31068301471609
1.26841730159737
1.04673784871052
1.33823117831405
1.08533658953545
1.46933669454987
1.12053874647931
1.31315462349417
1.10145228660111
1.19450621059973
1.17780794385886
5
1.72416419334968
1.35463916913201
1.61851872962857
2.04917802795305
1.09212439592625
1.33110778270732
1.41591137857692
1.14109934581853
1.03996923261562
1.06521047375846
0.944670037211259
1.23173411164354
1.15742825886764
1.30108148037067
1.22381549195718
1.12011820147682
1.22507229624211
1.35483795849316
1.28581673111791
1.571908238243
1.75620024921305
5
1.16439120712501
5
1.26276392457526
1.0007275826965
5
5
1.24961454322908
5
1.21734964652145
1.60290992790881
1.17342364295766
0.728919960336222
1.5270407575813
5
5
1.75633951522387
1.80561827681521
5
