3596
4000.36533379555
650.420452594757
1
2
2
0.0844627213397944
0.0930304338418523
0.0884300586397954
0.0845695174330889
0.0941383649984975
0.0893512545276161
0.0835297407413165
0.0967853577686431
0.092811360181032
0.0931835258408493
0.0906540894790005
0.087708554634816
0.0938100194254604
0.091718469895961
0.0863057538879863
0.0946515446927446
0.0893773633738775
0.0928140656564531
0.0793407981033435
0.0787072369416509
0.0850260890705455
0.0950496818328319
0.0843429891142837
0.0859587426028237
0.0952811973246969
0.0924515048993651
0.0884033621035512
0.0919154843031497
0.0906264406405174
0.0985623547342972
0.0911340199599912
0.089891844254847
0.090425376991584
0.0876988988518055
0.0889265028916961
0.0895746856982592
0.08745300959927
0.0895910571480492
0.0904769452466885
0.0993843494587738
0.105117913370292
0.0896780398604598
0.0962790036715172
0.09566563781799
0.0972400593374626
0.0928336828382637
0.095441710132817
0.0893667561334403
0.101188450308494
0.0880104598488658
0.0946910336589228
0.0856480601481326
0.108322505226508
0.0952896599989188
0.0899721172451982
0.105922255987087
0.0958027876747218
0.0801768216771076
0.0834303975400334
0.0838625969178848
0.115286589535698
0.103680955268739
0.0844702498657783
0.09738359350337
0.0849597993105896
0.0934002815995602
0.0839600583357358
0.0869801492940878
0.0810997971633145
0.0921559213548631
0.0901831187348774
0.111444028154
0.10557721623654
0.090012543085975
0.0936322010704005
0.0932692864795405
0.0925984488078646
0.0930712039901823
0.0796258752076751
0.107485416755239
0.100603861649701
0.0905604704608394
0.0899308071271476
0.0849952209179497
0.0970206144304611
0.109199937225429
0.072495911929708
0.0898862415306133
0.117020668819775
0.0940405065297895
0.0904977134016646
0.0841884781906384
0.0805109964067581
0.0843007293920214
0.079343344284049
0.0854073518272936
0.0849231136777704
0.0824508536594597
0.0801136556905803
0.0907743889744228
0.10219229185496
0.0998514408460798
0.130813964619414
0.0903965342078656
0.166765944597341
0.112942643491109
0.0926273466683882
0.146826111744646
0.0871241909678817
0.0921983238344041
0.0832240872229266
0.0890567349052728
0.0869690229587975
0.0944039127282766
0.0790950239266643
0.131351478467068
0.122418121966237
0.0880614663871218
0.0880240035897696
0.0881200557168474
0.0765523820263338
0.116645678782125
0.129340182632193
0.0916515568829592
0.110249324762345
0.0887060918193736
0.0843686636195389
0.136129924146274
0.122903327271478
0.0831903968102966
0.0866700977077132
0.0771387829511243
0.0893422061677793
0.0822959445626013
0.132453761459655
0.0893873980443206
0.0921564298054819
0.0849467700857986
0.121033025352646
0.155737255856524
0.101088650896757
0.0842500976859291
0.0813858558128846
0.101661964827707
0.126540713764123
0.104312678418333
0.081183562718175
0.105530491749369
0.102437706919549
0.0733486143705819
0.0858439654734547
0.083435093716649
0.101175504980193
0.0953602908055117
0.0655381430542185
0.14901938863201
0.181401600639099
0.110879348848282
0.161299212286541
0.0809663811572129
0.105599449311239
0.083574176519506
0.084845386803983
0.076347132338046
0.0882515271024256
0.0768626449840461
0.100505867191705
0.116684168295348
0.0791076219653343
0.0959664248755714
0.115900472186441
0.110744480134358
0.0892030478604212
0.163627573775695
0.105287808953658
0.0868034409597663
0.132042369089967
0.0976830879281819
0.0867477917734296
0.0839958520706199
0.128494665846002
0.075851257660924
0.0831856791250261
0.0758265664181181
0.0988189177033682
0.0984659929328407
0.0974783883834278
0.0841479689225063
0.0910039606956167
0.0754042279432117
0.121922795270864
0.133036207728051
0.132694825836138
0.0831444747989026
0.102413441866074
0.0699648934507186
0.147949370064453
0.117704466436201
0.0873930815522435
0.0793818967930147
0.0719363070697257
0.0794224619921113
0.0806506507707782
0.0712144736298164
0.0931130743173833
0.0625662142725984
0.141526695198346
0.0992910177350628
0.0787595917789166
0.0805938702458695
0.101217602632786
0.0904458661576072
0.14767945855878
0.117251284024811
0.0754166248593416
0.0947492735532932
0.0781893192576305
0.109318127074812
0.114380622208427
0.0873348237919265
0.0813828841513594
0.0778848576975966
0.082854822453815
0.082830758573596
0.0810415619447154
0.0806737169748871
0.0819931380110258
0.0855504217618399
0.0885786695694949
0.081856786892277
0.0941073576010388
0.0880742412962689
0.069346467958503
0.0918301420581729
0.0797626934038484
0.0892060117466964
0.123329097968139
0.0842086150584142
0.0927432527876864
0.0803133454670648
0.0963954273333898
0.076065651217257
0.0881480381593758
0.0809914442760566
0.0861615406336754
0.07625214051341
0.13037364259988
0.0891759933927635
0.0923615081498108
0.0767463647492687
0.117225615069403
0.110307542817814
0.0858509450105931
0.0832219241592484
0.0870311216922759
0.0843127849550635
0.0897055179573306
0.129360954079068
0.0979163841346966
0.0905346995531911
0.110253862970505
0.0971970950792868
0.0853966109679935
0.101495699980161
0.0890850165081432
0.164294169654043
0.107957100733072
0.0907728130418462
0.165805412922042
0.115013052784993
0.100605980272633
0.105932469352195
0.081584984252791
0.24892266688364
0.140180105639751
0.0899642619717754
0.108802395473514
0.114045127713821
0.0915712428428791
0.106149049845273
0.113261059917355
0.112721924299818
0.146028254768016
0.153770182494049
0.171294275536665
0.0782479162890992
0.134448107509549
0.136154923516513
0.0964663955490282
0.0989183486053258
0.0966269109133779
0.101490751306757
0.119038480337636
0.120621539244945
0.11092080329172
0.111386745948951
0.101399748881939
0.139285336003411
0.105025337620669
0.101373235786557
0.110121075816876
0.122860923606525
0.0964876563846368
0.102482106417199
0.0947823371825767
0.115929384735101
0.102497085154942
0.117966853346393
0.167516014659017
0.120864262379919
0.111327354365575
0.152943178564076
0.110518487883181
0.107029470521768
0.0990174076792598
0.107048579965515
0.108378392425128
0.102682106037849
0.106445425550327
0.147133507039714
0.121662281593654
0.101518689702487
0.104248900339887
0.104855101329958
0.111966254018788
0.104875939778826
0.105289465009331
0.111901588227024
0.110278294445384
0.109022414957315
0.141439804400583
0.148129364485612
0.100036643017356
0.163567696306637
0.162705425447052
0.113188739982546
0.122490706829473
0.108840046878033
0.123523130158519
0.114121277855834
0.124694343349076
0.115347567051486
0.134022208659537
0.149366094155936
0.140405624158523
0.127097333798539
0.154578080627563
0.195961047001717
0.213171192986755
0.140906866633875
0.142125436536035
0.132798718410358
0.169894947907865
0.177634726136464
0.162602137441653
0.173727986087922
0.131305276100925
0.155064174810073
0.141195395094561
0.152626381963894
0.148495056958812
0.15316294673075
0.155675739480698
0.164367768919521
0.159510729648533
0.163433411072554
0.160016457620315
0.179400903985452
0.207201834298677
0.176885925782185
0.161536919629026
0.173178214696469
0.175674464696803
0.213904989801551
0.236418820289429
0.215139154015467
0.231841648966111
0.220410547093944
0.250964626299219
0.190159145433734
0.198906551240703
0.193180210186956
0.205225827059915
0.211083496850997
0.20804633293196
0.192808309082472
0.212413500234112
0.211264586988683
0.217067269246108
0.205490216451731
0.228270811947122
0.221834040967258
0.253622468794744
0.235491815699057
0.234244070027067
0.223266387801853
0.262695315910797
0.299355104154851
0.290016234944357
0.255155299107656
0.247734292346164
0.260171853075523
0.247905782072495
0.255654905431841
0.255445564182236
0.272164145639071
0.279806054942076
0.305822410394579
0.3020562853424
0.300180372486119
0.295605021389216
0.262687565694432
0.310389200871664
0.315408270552703
0.316464280546401
0.338406884574213
0.31424964354862
0.305829438860241
0.3331056623436
0.338813690778218
0.320132218285371
0.348954505030654
0.317501142896208
0.32324176441887
0.321807908709169
0.329245070242405
0.335107142940153
0.353943490165757
0.346165122424689
0.336307992638621
0.36434580344407
0.357341623163522
0.363824221693145
0.379746320795016
0.378520784887848
0.366665966129289
0.389468440381782
0.369905033148166
0.3907681755102
0.387062816685924
0.401618591196008
0.429482616022277
0.418483628172054
0.427865127165232
0.384679700230369
0.408352226098916
0.410775757740519
0.414214034554588
0.405825746758597
0.425138440599558
0.44053318954009
0.426076406641291
0.43007490930474
0.430936478900158
0.449104442932891
0.456138174158464
0.445169946960813
0.464932229776513
0.473539821199965
0.47063290615357
0.481160197968274
0.485782316203113
0.532335781931372
0.563460133281535
0.559837914464789
0.518584693578491
0.491283111008405
0.517818756809991
0.512732184414088
0.488578618414925
0.496502520738609
0.541098422041088
0.53053804222021
0.532551041158682
0.538075311441662
0.541334767566736
0.529154713579807
0.547039318437197
0.574534391527139
0.568360673819551
0.5699415279514
0.572078625253414
0.574525694225076
0.580889133345928
0.575649158781428
0.590557015620673
0.603491531403526
0.611610924158587
0.603319886518491
0.600684895954107
0.607355885757123
0.618632830243848
0.633768352565417
0.649858156489658
0.633471474524834
0.627717252670543
0.644376267786078
0.678605555862198
0.67970372705743
0.65016310425743
0.669981151442964
0.689005311306646
0.660861706635338
0.633670343819469
0.681773509488608
0.721221668061311
0.727730744602518
0.709840285576981
0.694645354243713
0.682161728583387
0.727811688067889
0.767283915412921
0.746474977577053
0.73451325425179
0.714796696348501
0.760138022511209
0.748053746381254
0.726210111315766
0.763042873783569
0.763370468201418
0.743614856264817
0.739624851751275
0.768323751485554
0.815932773959412
0.792625490423752
0.800604821779957
0.834231872112593
0.809743400219752
0.823032288063405
0.790828882074201
0.792636423182275
0.798570798430009
0.792568221877226
0.839559646833851
0.872524869915576
0.830588817714955
0.809197189369256
0.82525639383693
0.881298115242097
0.892959075893182
0.864240960175656
0.832736700445223
0.886702751484855
0.905410008614773
0.911731020256535
0.887035968096641
0.879854590229712
0.922664831530933
0.95584885641238
0.914082320786635
0.904663301798093
0.953928449710444
0.95131314112864
0.93949107698847
0.966676549962057
0.923243962997808
0.94714306521724
0.950750017512771
0.945241858628531
0.931331158472755
0.958655414125993
0.976886477835046
0.968044690466003
0.98216435188511
0.968249132351725
1.02494255058517
0.999225318967949
0.948846579417528
0.957108843870565
0.961806298166552
1.0087910772098
1.06708213298398
1.07516615371674
1.06050160111886
1.03645615408428
1.01461656269843
1.10560314759675
1.08445013897103
1.03302180168953
1.08232409525929
1.0943607390683
1.12677523626033
1.12411381085562
1.14206315983919
1.13026987327927
1.11394287013676
1.15148950707917
1.09232366367788
1.11592829673709
1.08125606381998
1.08092477408314
1.16882504488077
1.13613759411892
1.07993209519345
1.12789688709249
1.13959406159553
1.15813466031833
1.1468298755621
1.17566916275065
1.15747291571551
1.16680059453291
1.19604558350494
1.11328933203132
1.15556673656893
1.24277095771717
1.17898469032364
1.25315612063617
1.11641033444628
1.14183263878763
1.18517592607046
1.17630475292982
1.21945186336533
1.25049987150014
1.30196464226333
1.31783438151501
1.25198367404313
1.27630269378585
1.25282753938923
1.28003458569385
1.27491599154615
1.25587157384915
1.24962240331753
1.30364442918466
1.34054634930392
1.38093976168675
1.31629060890838
1.24767392790248
1.25669990803369
1.33533117828222
1.26466686401612
1.35068259637614
1.30517434190452
1.21297897374072
1.30137414597001
1.3165240574899
1.25828297598347
1.35487253532935
1.38017128067533
1.3223023447829
1.26301504689293
1.31041297790343
1.32779629119138
1.31302932651067
1.42703472938591
1.44342315306406
1.31558339698566
1.44678184959752
1.34864638881496
1.27725238996361
1.28072594763568
1.36111892960114
1.31254354913236
1.44599784284168
1.44920405961171
1.44355809078875
1.36779047754708
1.44084308733106
1.41461651678377
1.42393276189612
1.41923834250423
1.48947003839372
1.34952911299062
1.39013526380784
1.37855410658833
1.44879810934276
1.54916068972117
1.44409780501696
1.40695219893049
1.43995416750614
1.34463261628226
1.37393563690806
1.41147969981137
1.26499395559282
1.29947732167593
1.54308646980393
1.33799865400682
1.35820176675967
1.42184564081216
1.56249853859828
1.54267864388955
1.57654122782889
1.41945457259578
1.4517026035574
1.5977289045091
1.57236871067401
1.48292453625667
1.45569630259866
1.51406181078128
1.52481712374945
1.44798819942223
1.58864493113044
1.47424098821806
1.38999411310593
1.37159020531484
1.52466326590936
1.54451032225217
1.53441096629698
1.50093380615436
1.64038313113504
1.49556878603296
1.48654687412063
1.49631226206495
1.5800392812686
1.40008966892482
1.46764901201145
1.53993264225463
1.46254139121285
1.4167853205223
1.52826443975344
1.41666804050865
1.50566437328668
1.51075087955056
1.51116963346705
1.49289715942293
1.48034867921911
1.54314533340468
1.49808146505437
1.45971310546193
1.48698896137525
1.41994677033184
1.48576440216167
1.51144622343329
1.61298655859163
1.48123289183417
1.49748737395179
1.45624602805552
1.56971932406052
1.53760404149443
1.56005834157339
1.63507910284248
1.62125998353072
1.52964612545646
1.48418042822468
1.47898318624681
1.42593822482019
1.53383438137362
1.5143869151718
1.45586884471551
1.43084284439487
1.42961115395487
1.60824484261996
1.60776316686178
1.47604010269009
1.38925178652318
1.47607180543195
1.45492940764404
1.60708608509082
1.60209108682109
1.57504943660834
1.48877057444222
1.51301694936009
1.54612890779925
1.53014090135833
1.53004916809201
1.48171935542616
1.41379197490732
1.61469307402208
1.48666342280873
1.43948613726186
1.4819958276548
1.59346785452866
1.41676788856591
1.5580828522817
1.61606668919641
1.55471588206305
1.48452099717594
1.59896160842078
1.45195110053031
1.54620288482589
1.57307713890411
1.52929972382624
1.45688597083837
1.5629551222689
1.50996747039368
1.60659124512191
1.57776667609386
1.44269502709787
1.43451800654272
1.49743119671006
1.46284331687772
1.53083987157018
1.57213273655653
1.51896707885547
1.54448362365442
1.57832384523733
1.43312390130543
1.58008999899918
1.46203553175807
1.60503045841064
1.47660940035045
1.41166562406017
1.39054087588957
1.49278140299551
1.39285592421572
1.52526862052219
1.54870319083096
1.59476753376467
1.46322368209912
1.42518920083537
1.48412455237281
1.43392327266878
1.37564872748776
1.48386615173371
1.41219267541626
1.47320132329043
1.52326592469351
1.48717661859672
1.45611361730233
1.48899212129398
1.43321766995187
1.44517324929761
1.45292645233837
1.52238276669577
1.36831684263638
1.52915628343952
1.4833979552372
1.36923305703882
1.38588432664316
1.53194046322948
1.43262226766765
1.33809250984912
1.34678744019094
1.49869707589478
1.44474304787137
1.49715123831381
1.38486056660825
1.44634008254862
1.45376236368084
1.45422441846402
1.38649154675058
1.37876802294824
1.37479568308765
1.44370917160705
1.31140670398478
1.35773523107289
1.39852134377783
1.40372700539155
1.41956326494169
1.40996785827069
1.42735134277605
1.42039494698217
1.3845426357845
1.33826508908436
1.37886257220764
1.43959268362397
1.32854759266541
1.41523534308067
1.35728684912888
1.32640102113729
1.32016534928749
1.30807635680722
1.31632376503482
1.33732970468013
1.31709962109209
1.307245022525
1.19811788365554
1.2563560020464
1.3256363600834
1.38126626436875
1.30884886288522
1.26362370979408
1.27645339679105
1.32382851939493
1.23757431803827
1.28272650795986
1.26678294748676
1.31873957551363
1.26950635356241
1.30262670302066
1.23897549336016
1.27581813621021
1.2087514680784
1.25046365800803
1.26248705229938
1.28845224185697
1.20272424606966
1.25111348052352
1.21790837317188
1.18553399444291
1.17719081063755
1.18471233232363
1.19623561558084
1.26128985678885
1.19347421557911
1.19643607973285
1.17394903815825
1.18986620827651
1.16772013930454
1.17246276068237
1.13158395763766
1.14541651473918
1.15942547671062
1.18085603432984
1.14495869258762
1.12196803239904
1.13203522261638
1.13769996771386
1.09968259671125
1.12720886254908
1.05683782151852
1.07486625677166
1.07198656116498
1.1230526452235
1.06501955874856
1.0609678078095
1.06507898400858
1.10737267364337
1.08094142276592
1.07905149886495
1.04037363025555
1.13644772894511
1.0785149988467
1.07080451557025
1.04737786384461
0.999060660139561
1.02842425203967
1.04291609204055
1.01913556964476
1.04580278468596
1.02430776280082
1.02523456303838
0.977609692200282
1.0125671405162
0.985584124162189
0.98653662671652
0.973539988007246
0.984742933631745
0.964431569976299
0.976922824400995
0.941009826590593
0.980938942921811
0.986321137690853
0.961570099879257
0.938866957405599
0.956001627453696
0.926552561442053
0.963260185573221
0.892668030516733
0.920179854154357
0.897257665736506
0.903145426538843
0.895715463039095
0.893241193044778
0.912094557116028
0.90854124706856
0.870133114760851
0.884620602361073
0.856597749599969
0.870895827939496
0.885608231794239
0.884056069918915
0.840190930475684
0.861395653002016
0.860361291564531
0.866153781743417
0.818370433336109
0.84310676449257
0.820739060917895
0.833089593430621
0.827242105178703
0.834645067947588
0.806326397608371
0.828173342535431
0.808416472948622
0.816324599013008
0.798353905099111
0.822389411881415
0.79203340441537
0.782963800855237
0.795312714315287
0.806338351582324
0.788629394124214
0.794264608073786
0.755852622069073
0.770745556880386
0.769322020795454
0.769902407075628
0.752440748893023
0.764218621627831
0.756605073768961
0.755323912769664
0.729718149582195
0.742489169242959
0.73663404441332
0.738175493275916
0.72949413187908
0.733150803851571
0.70789971357337
0.726434445818176
0.718866735283707
0.72914430465086
0.69735368203256
0.702919250101365
0.703023737110013
0.701170585274152
0.69899497374259
0.701945465702604
0.690846628707888
0.676365381183928
0.663086050863167
0.673658476978617
0.677467858307275
0.677445931337516
0.666528643197826
0.678864472280952
0.653459766940583
0.661977565597428
0.657490997261153
0.664485033825645
0.631861466168492
0.637716920318228
0.633771736922108
0.64813552317715
0.622754192403398
0.637618554581375
0.623668423086248
0.631763609873673
0.624519448639181
0.611009154130741
0.601258819132588
0.619998392431767
0.610035889334451
0.61692478376248
0.584926336138186
0.609093916347885
0.591139633164804
0.600754014029549
0.596074908952462
0.60265872293765
0.573309018341679
0.583669972872649
0.571810977468177
0.577555998242699
0.56928535387629
0.575623944275638
0.560319191314444
0.56559550126816
0.566186432495503
0.572353709128465
0.553850701695005
0.559638460492021
0.554272141318109
0.555798039448365
0.540376190516747
0.547123607291025
0.540884532950416
0.538803243590526
0.527239082038129
0.544988735032095
0.525924671151371
0.522999628760329
0.52411474077686
0.526254674582065
0.513926066118808
0.5232361236094
0.511463685872477
0.514841214690724
0.517136923790277
0.521261878840523
0.5076602620177
0.510615108768098
0.504640474346767
0.518932058295961
0.497096471682178
0.507789484588959
0.490679984935269
0.50172798598531
0.487794864826143
0.48980690487275
0.481306340306439
0.491953945502016
0.483670951834353
0.49339135671098
0.476193156851899
0.477371821642317
0.477710097604949
0.488555645228637
0.486071786987844
0.491661704321708
0.472569641528372
0.493353859799086
0.480550702424612
0.488628549715072
0.482475046784303
0.489092999533444
0.493771349165321
0.492247002974326
0.476548115742438
0.485271584353491
0.482392134942478
0.489203206368358
0.486389135755595
0.505228065981398
0.49148066736831
0.482788136942078
0.485611904052786
0.498348032324113
0.484516827949298
0.494652957164895
0.492930913747705
0.496925125068496
0.487911232555178
0.51405846727998
0.496254262187733
0.505232127717136
0.498008557490756
0.51060633826235
0.513060556168307
0.506717396206148
0.508160673772151
0.512130148655826
0.516138924852018
0.52147952215993
0.513698976334212
0.534325974568143
0.515201107403004
0.530103429177713
0.5196155645759
0.528043322475357
0.528044898641826
0.541185854307146
0.531200208234358
0.546360897218148
0.521022812102742
0.547616263390601
0.545437282578043
0.564605504958929
0.560606854856483
0.570274142167098
0.563938800681498
0.56618524998007
0.556945741137881
0.579279833951512
0.569739779251683
0.587851095915643
0.586699777168724
0.593707513461555
0.592154296889768
0.609402940054563
0.600814361134242
0.600288899150612
0.595077827175631
0.612707711726941
0.600263691740096
0.609863041196625
0.598776974980895
0.619548145181745
0.60611564640975
0.614556935187668
0.614896049127591
0.61535151851036
0.605407176393595
0.616483181032713
0.600208653053258
0.611465335238625
0.616016607639458
0.632659270566645
0.603319763743398
0.629495906635783
0.607808124350691
0.615447044023363
0.607378055506048
0.601842264823471
0.596051836286393
0.608969958942996
0.598399665896873
0.61829468552395
0.585235782482989
0.613225249524817
0.599501032350894
0.605102553949099
0.599293986776818
0.603866499199103
0.59259031118851
0.600103657792823
0.590483428922987
0.597089824783122
0.605546318281055
0.603129877247638
0.595126546463677
0.594096891985337
0.597559261234545
0.613493149726221
0.593520390444299
0.604301760995799
0.590151976904918
0.604964021942462
0.595433063228863
0.607536559274205
0.596877076901184
0.621244094436375
0.599852818503253
0.596946486156998
0.586691557760611
0.595455303059635
0.594780486724402
0.603875797158258
0.591290552799503
0.592972276930305
0.592820057446576
0.592433655960699
0.583814427749751
0.593182221402761
0.582931439102829
0.591406235103671
0.588524039116269
0.592271766669731
0.566141881986463
0.578625025423547
0.57008350731325
0.579789772923972
0.559856876128493
0.560955244161627
0.568888051931106
0.567013334464604
0.545776168381615
0.561566739312895
0.550682922029862
0.556188755623801
0.547965232950812
0.543872800460386
0.530789667141908
0.542536017182292
0.519935737908531
0.530755089512548
0.522922674352101
0.524550852213444
0.505610127170055
0.521390183262348
0.497693142929132
0.502571074308542
0.505801859511446
0.491946189672791
0.486823329357457
0.493601881032709
0.471512835877128
0.490487593402263
0.474516852826206
0.472453848097155
0.470803060547404
0.474434200756619
0.459377049199602
0.466978479258139
0.457135374081521
0.460348871446331
0.449058066564746
0.454884950533626
0.446231627194557
0.450265485333596
0.436464429313568
0.439141901015145
0.434070688174072
0.440038382355047
0.434536587898731
0.433809787439863
0.428899327273932
0.423452537427499
0.417577445857665
0.431600765405947
0.415786494467705
0.419823723914195
0.426509847330135
0.419197776641836
0.409760121774895
0.416901320249717
0.404280172730914
0.405152525928221
0.396080674316248
0.405527436488825
0.393313852394477
0.398035808353656
0.397186296095279
0.396632527181869
0.392588079007861
0.396032454464108
0.387652624400099
0.39221010729663
0.392374537570233
0.385474149562829
0.377542838728082
0.386688101127132
0.374247242029844
0.380770262178348
0.378973398842197
0.381809733445092
0.366560302735263
0.373298325377365
0.367207668100504
0.367720897578551
0.360065405863128
0.365437990801993
0.351968948665183
0.364056246192926
0.357250798524814
0.359689536094955
0.353316620429095
0.359379485377657
0.349130444672353
0.352798075003299
0.34676355278646
0.353371655419261
0.348885809942403
0.348627891191611
0.342664310191811
0.351010826553991
0.338729678134172
0.34131911429626
0.339154761598594
0.34316165793788
0.337028495767408
0.338729932808494
0.339658363108413
0.343664651744892
0.330607103921814
0.335930005781638
0.326500405929888
0.331514912495721
0.330333081628465
0.333286917481942
0.328001799503061
0.324236108463009
0.321241188318231
0.326826529468096
0.326513370130236
0.323132311161948
0.326396019372985
0.318618452915192
0.318043919430864
0.324075822483076
0.321231159422928
0.321796312406231
0.314414123091081
0.32059745197415
0.308884359044589
0.319810071146891
0.316442361060098
0.312350720596241
0.311778526852489
0.311356592044222
0.30905428899953
0.312064009397069
0.305726795503781
0.30958121674744
0.305103148801542
0.307156032369814
0.303255730274301
0.306994332439894
0.307528572735977
0.306677433432042
0.300625440144658
0.306719369921454
0.301594861513922
0.306142878069904
0.301072046560255
0.29494942245724
0.300325050933953
0.301880658842848
0.296911273998644
0.295393387499801
0.297033776040049
0.300029756561456
0.293597135509732
0.297624489224659
0.298233450758582
0.298088627305475
0.292437518958574
0.298629607748308
0.297929200195709
0.297899620014442
0.295938866321123
0.292910963323615
0.2909970204654
0.292026339041191
0.290906500186057
0.29423344629909
0.28521872481723
0.292871617921184
0.287688644582511
0.283894585428355
0.28712180232959
0.288421413276761
0.288679738098323
0.286966606185411
0.283970430173641
0.29043674289665
0.279741238994955
0.285867658434695
0.28187858057925
0.283411730978651
0.283259484167979
0.286217811430146
0.272902418788539
0.280506359301235
0.271726909373598
0.274081169199892
0.273980686325316
0.279024901950761
0.273566853456235
0.275702760205095
0.270465660138606
0.270557831317181
0.267032773828405
0.270036843870186
0.268857765462758
0.271248552888791
0.265685463983698
0.269304937980884
0.265992547275404
0.264253506366526
0.262213320491424
0.263996350522081
0.26256968448454
0.267010818880795
0.259299175936302
0.262650595429064
0.256953321384865
0.260952575133315
0.251439710162293
0.254062105201331
0.251886380190346
0.252911943714912
0.248115964980632
0.249836937527229
0.247390369638442
0.251964119899935
0.24742387102259
0.250060471920534
0.248618911263534
0.251686465921469
0.245476273599896
0.245855499045976
0.247725855570068
0.243946729018387
0.24044509984787
0.244819574734359
0.241211235176312
0.245220044788024
0.240307251388706
0.240083585847276
0.238154407678021
0.240162564761162
0.234917120699933
0.234059083674135
0.233791400791507
0.235083821885146
0.23194631907675
0.233524187552249
0.228450934701052
0.233005842269109
0.224415725410112
0.228523159026797
0.225827507162046
0.227174389208984
0.222846738390898
0.225438670647697
0.223951534030361
0.219923613587496
0.218334692004413
0.220390797875586
0.215851218712599
0.217539359815329
0.217645070845206
0.214417789218496
0.208583138345098
0.214655692844193
0.209017049502818
0.211028215243186
0.206770432458582
0.211422944528222
0.209131922882037
0.203092555896936
0.203506651475957
0.20970531398125
0.20327231345861
0.203760087307558
0.201449780382202
0.202504960241856
0.200437919814602
0.202719230547833
0.200651746382043
0.198718531434827
0.20036272574345
0.198139110566448
0.193587609032733
0.20042336150346
0.194543262077243
0.196564482189576
0.19101670036258
0.194969115326496
0.192320845163167
0.194497984907765
0.192849263862374
0.193438093913834
0.194205611660614
0.188991564999179
0.193524789621631
0.192598661453131
0.187031855754367
0.189960698231069
0.191683581305808
0.187702893254154
0.187425311121337
0.187077673053395
0.184627184893429
0.19184673138057
0.184022720796142
0.181795832102442
0.181364833985834
0.187624540735405
0.180539803007401
0.182537993389487
0.17755341582491
0.18324572150164
0.179695003509799
0.180477996467404
0.179004737641991
0.175218509962843
0.177528957942508
0.179901977096644
0.175139529959608
0.17492049246704
0.175251125238417
0.176137572917453
0.174080761432346
0.170958496579617
0.176574284108457
0.178141833989216
0.173825758869275
0.168940351616806
0.168823388508959
0.172999460875637
0.170302359006757
0.171313657280045
0.167351772401121
0.171193222415807
0.170591568935075
0.168170334364991
0.166856943618585
0.173130688344141
0.167871276971686
0.168356391762505
0.164134247701871
0.170155351183158
0.166681550886474
0.168452043219451
0.165582202810732
0.16840618674111
0.165363423039487
0.165690665092576
0.16673483373586
0.166168242913401
0.164703979362584
0.167668758266797
0.163611675545826
0.161891980050104
0.163521264714425
0.16560645462912
0.160637951659048
0.165159208154905
0.159986817565682
0.166307486617874
0.160857586678686
0.161397471334607
0.162268734326084
0.161366588224485
0.160246066152791
0.163357311830135
0.162789901724374
0.160649120253799
0.158874497001365
0.157714819335735
0.155582001600889
0.1606273439705
0.154023178352232
0.155979400923512
0.157554771873249
0.15784573751197
0.157204713886516
0.159076412579742
0.15207582959867
0.154400956252092
0.154992268553768
0.155885949377711
0.151015095256787
0.15334574111848
0.15290655513177
0.155401157472437
0.154241515335576
0.154565574012431
0.15095536247542
0.15247467599573
0.151323142949493
0.151272592329153
0.151497299111769
0.153209187634821
0.148235622414171
0.149400597741813
0.147680014926618
0.151616792948138
0.149752864836512
0.150398932262605
0.148628173969822
0.149922977272839
0.147569134974624
0.145673411047993
0.146429342375044
0.147688429933041
0.148397705180478
0.145986128972551
0.146536503415742
0.150469452068646
0.144099745220822
0.146206618021719
0.145635249575349
0.142943807679917
0.143293842635752
0.145009240828339
0.14565969663
0.14734656399892
0.141092103420467
0.144003260627205
0.141901374424978
0.145088136315637
0.141635467827896
0.142331129673355
0.141591412884524
0.143927806184434
0.142472720190053
0.143212614225781
0.137582776843939
0.140591882689914
0.139894470290434
0.135224721757089
0.134701413838327
0.139129907013431
0.134557893431682
0.138030763897181
0.137103021061745
0.133810159158176
0.132899354113369
0.134384716252515
0.130484454122504
0.131344582499085
0.133269751326983
0.133580133749336
0.129625295348643
0.135799730224461
0.129716018389253
0.129041525901047
0.132783087843036
0.131086201386003
0.130952601390716
0.132591727915864
0.127406804077132
0.130620642312209
0.127308600675119
0.127870658951865
0.127723586993756
0.12527328806016
0.125514095016025
0.126023460200942
0.123479638009792
0.12105632853184
0.123034876660342
0.125598261879083
0.12195697590563
0.124549474784778
0.123111388346198
0.120810194616338
0.124289642099414
0.123385454158316
0.120753194135432
0.119684888664698
0.121682583402807
0.120974134763382
0.121341063448169
0.119947492182766
0.116510009780934
0.120877202011339
0.121495627716626
0.120768135636617
0.120532083209201
0.119209155064014
0.117940016834451
0.119961873393968
0.117948601803573
0.117973073504878
0.118979846447516
0.113432692954973
0.115724756555123
0.115611456417296
0.116171306840534
0.115058004680999
0.115938953885079
0.116490312323788
0.114795300662487
0.115333874359421
0.113905423699821
0.113242515817843
0.112330827218326
0.109364073813859
0.110765747469661
0.110798688426668
0.11169735082363
0.110010874089304
0.110571150821454
0.108246058919289
0.110257719721061
0.10968320589286
0.108774238249977
0.109830752818671
0.108190070210477
0.106498797623281
0.107448885640162
0.106459762816986
0.107526415270917
0.108820746820576
0.107973143222624
0.103800657600324
0.108083127512508
0.105904784168248
0.107313955295207
0.104693546385251
0.107245547239986
0.10475666024405
0.10650600708431
0.106826263667345
0.106159513005872
0.10478998827226
0.104650357209671
0.104022718831643
0.105434513620924
0.102832708967848
0.104257967365274
0.108759554236783
0.110028023410303
0.106860086327084
0.110618742253977
0.107794818058396
0.110370270602908
0.106444274320789
0.108652183497268
0.108580094323826
0.11357415552141
0.111741891497012
0.112173156923001
0.106063336155622
0.107703308909725
0.0979817934217712
0.0984033170757296
0.0967702453309384
0.107384312123363
0.106003028271699
0.103875888588333
0.0910913452818594
0.101418078387791
0.102519422436412
0.105093476877157
0.0970268122439698
0.103332513592814
0.0954885336350156
0.101916910896823
0.0950508927924231
0.0986558541291414
0.0964892066593978
0.100683860520863
0.0981255823906753
0.100024291140202
0.0926956206647491
0.10928882594391
0.0994391242995576
0.104290070182835
0.0943145783295214
0.109795110136079
0.0912774283918208
0.107717501755868
0.0967367594159316
0.10779633003856
0.0910421611068157
0.109192101507938
0.0919204177417293
0.106881854613536
0.0893086308562563
0.106250917540916
0.0855282117028203
0.100985552849189
0.0843743684715137
0.102626083104883
0.0835355723544833
0.110159143979732
0.0920109734320887
0.113755035748695
0.086583210249578
0.103452694052913
0.0898210264308992
0.111460429943023
0.099765699885078
0.101513390073382
0.0924300559130144
0.106872627393944
0.108066820532216
0.0962782179949247
0.107513278502038
0.0939622011453349
0.11998512492212
0.0814054899517046
0.117727459970294
0.0849433771825227
0.120625613913063
0.0834042003858999
0.123728592934291
0.0863583233952648
0.114639454956526
0.0961890062265484
0.108923156869134
0.0963592564846282
0.103243734847133
0.100494396074939
0.0994306876792867
0.0996755048594033
0.097939722320565
0.0965488372666025
0.101956487752975
0.0943172578810861
0.103289852661075
0.0948928710100252
0.102421350176269
0.0943098990890242
0.102031149631482
0.0941111924558683
0.0994082653174536
0.0951346356967539
0.0986204103908044
0.0941365211531222
0.0972464176563212
0.095053710180682
0.0999433044287222
0.0966919167489184
0.0985519893580893
0.0931223919816998
0.09967288216667
0.0932277984856227
0.0976416929031975
0.0947573003447257
0.0993879622706689
0.0932734611100773
0.0987208287308358
0.0940578244327701
0.098948797946041
0.0959742562272659
0.0987700048503409
0.0954523421461715
0.0985470237230769
0.0937479644679134
0.0984416230471528
0.0978612721600612
0.0979062639663187
0.0967614244779425
0.101121556272542
0.0961992707547056
0.0980129743142212
0.0971246969569622
0.0989421771428319
0.0991934126709396
0.103332404500275
0.0967679317452745
0.101126029508506
0.0979693983569874
0.0984645288384612
0.0978965841706718
0.0998126182472872
0.0961946217269303
0.101916757785069
0.0975171651887921
0.102670826116616
0.0994334402039694
0.100542834050714
0.0980644243396084
0.101257442835129
0.0978982113669976
0.0998822525267526
0.0972641944205481
0.0989082144862877
0.094776971860294
0.0976807069425193
0.0970880698606855
0.0984880789391807
0.0995838204737339
0.101809288408981
0.0981423862702462
0.100379671016441
0.10105046408605
0.0996328020280878
0.099706511655324
0.100212053408085
0.0979201855660793
0.101140843813963
0.100334995592567
0.101615726282942
0.100404249162846
0.101335127077414
0.100394196413467
0.106486452218854
0.0995591961728841
0.0988394801584912
0.100714768637364
0.10278740364322
0.101743793387687
0.100125676737972
0.0981444526286935
0.102628794511803
0.101104527738576
0.101990094080527
0.101662523788301
0.102215614220824
0.101350207158911
0.104713375181203
0.102846859600025
0.102600010466376
0.102209158261709
0.105604748878729
0.104673295873919
0.106171506560905
0.103650207058608
0.104064923276613
0.105120152315213
0.105640564428277
0.104442613419762
0.108198656454778
0.105332651660478
0.10754133406959
0.107568383854698
0.105762020299037
0.103647695151105
0.106413352335316
0.105052094187483
0.106129803504334
0.105658245819665
0.106092427246371
0.105511280148187
0.106820008536668
0.106184058270463
0.107115763926735
0.106888564721881
0.107715808324379
0.105909442510715
0.108201306702393
0.107179758551603
0.107047556228881
0.106877949450448
0.105806819469877
0.106795067583495
0.108755421418175
0.104592413382016
0.106487984754233
0.107721691964857
0.109487059133377
0.109577517606912
0.108248634169437
0.107275539282045
0.111472677135987
0.110994595440421
0.108036576281738
0.108284659156719
0.10851031808695
0.107149383816451
0.112839625604139
0.109831562749159
0.109556710180071
0.111957589631926
0.112551657298641
0.112489514953002
0.111532053085352
0.111426810302899
0.111402909969367
0.110281689761467
0.110312933726771
0.110982066144234
0.113674650974872
0.110616279437003
0.111953219635471
0.114364323205956
0.114070097621254
0.109851612178914
0.110605409784886
0.112137638685701
0.111785981258195
0.111094803168633
0.113568566069231
0.113107385247905
0.112757008790408
0.110932434691971
0.111624776802678
0.11188803305608
0.113137157071786
0.112775171315118
0.111789420277442
0.11120795909752
0.109763551530751
0.110596566496498
0.113919220837973
0.110411468007024
0.107235090391322
0.108133174607814
0.111798276459047
0.110896475599316
0.109331606522021
0.109553875569131
0.111773104402007
0.109416357894155
0.110204113399213
0.108582345027214
0.107019931406178
0.108269211152199
0.109540212580706
0.108699673096512
0.107973040255256
0.110241424770849
0.105649678321387
0.106672022991052
0.111860796468548
0.107576360335655
0.10811950872758
0.109291830358378
0.107240798417438
0.107003220754571
0.106558437453865
0.105419808540075
0.106363147115382
0.107894150836952
0.107879717324723
0.107157013018838
0.106601518095205
0.105236267038784
0.108155789113348
0.105998315622669
0.104341284267413
0.108007480321808
0.108899841973155
0.106158802172626
0.10584071662701
0.106089877616581
0.104590171844987
0.106615513534867
0.107116666109559
0.104974516747488
0.10585317988143
0.105373971935683
0.105735095466452
0.107738093793929
0.106981889178686
0.106181820570718
0.107186795352587
0.105873328773332
0.104592205112549
0.104659840463168
0.106199124777228
0.106270036850855
0.103826940531029
0.102838149027726
0.105665183576284
0.106771777440683
0.103887562383787
0.104777488226636
0.103921865586478
0.102666371274341
0.103546435377871
0.102959206691689
0.10548910693561
0.104702163880421
0.102174084690402
0.102926411047325
0.103600422752115
0.103619503696094
0.104488905990349
0.107667197107545
0.108297666778555
0.105305074490729
0.103475229650071
0.102846080140649
0.10237468724916
0.101435502029168
0.100544139863356
0.101209114612909
0.10234448701548
0.102203139644999
0.0987570482201076
0.102005909322083
0.103577676405378
0.100961117069099
0.101067541443707
0.101384522986146
0.101485635051415
0.100532324200195
0.0982247094124412
0.100093631291988
0.0989089269190931
0.0982432066213798
0.101114663247081
0.102778739006909
0.0997911895814082
0.101154185936921
0.103000542494487
0.100193505514204
0.0979184994987638
0.0969431574192193
0.0980390247723478
0.0994736361204735
0.0971757236968185
0.0981037176875099
0.0968938039693105
0.0966157239190203
0.0956032653755295
0.0966625761578338
0.0976186401799281
0.0950597720672584
0.0935190083618163
0.0946364625278795
0.0943069553001589
0.0947989077940449
0.0928320451059222
0.0941114934918765
0.0955097463946758
0.0939963866754566
0.0919826431305294
0.0935537895540648
0.0918539098477224
0.0955513924368574
0.0988128022441273
0.0939559858289807
0.0877224910765418
0.0897398737652211
0.0911425301852767
0.088077413867731
0.0882748730158262
0.0883631171610731
0.0879681632412613
0.0902980653232855
0.0877250903319656
0.0872414602504658
0.0884262515390462
0.0886564768073851
0.0882445440451324
0.0883962323108179
0.0878373991297505
0.0859995580703996
0.0841018578798682
0.0864860994387786
0.0869585428039803
0.0863506861762679
0.0835594680800894
0.084021523909886
0.0869704545558377
0.0840924333780532
0.0953554921415911
0.100908598361542
0.0867016290327101
0.0835463791128059
0.0872365789681929
0.085646145496356
0.0847800990784597
0.0843453032117332
0.0834211235540806
0.0844492895679008
0.085183184700424
0.0843313856717632
0.0834932877090561
0.0853386346905852
0.0845647692812345
0.0832670985150341
0.0844470569647621
0.0836290887745539
0.0816727891944647
0.0820525098405407
0.0824490309300863
0.0850133099962562
0.0829093606949666
0.082781842063807
0.0850693744737369
0.0811021960068656
0.0841663865647164
0.0900690335446029
0.0871094027188305
0.0840601740938336
0.0798482907134851
0.0813711121613388
0.0786979188826316
0.0807019755351184
0.0805751459997408
0.0786106910033352
0.0793845885448332
0.0805680379804807
0.0789020707380409
0.0818945884703791
0.078739512576321
0.0803165210066445
0.0810014969373023
0.0791027104789343
0.0771605120447526
0.0792385496478142
0.0768597238482406
0.0775298059972635
0.0773822067327612
0.0781887650906401
0.078185953930251
0.0826937352506166
0.0730607630693657
0.089788506699332
0.0939932243146368
0.0822709797929467
0.0767029069639869
0.0776245638805949
0.077032908481825
0.0764004218448132
0.0743977708152189
0.0783337946986754
0.0754639603080688
0.0771901522708527
0.0775381144353596
0.0769535000696251
0.0763038789195711
0.0772008748888235
0.0767517250032872
0.0766399799673245
0.0741937987573766
0.0747489856069624
0.0746534263630448
0.0749212180478331
0.0824690935270363
0.0945511522994859
0.0809356124211431
0.0798339292716718
0.0734007865478537
0.0811453471189723
0.0994745756281257
0.0815030931055217
0.0750998333514438
0.0767292156334558
0.0781353920503334
0.0746562044935001
0.076079669567047
0.0715261058129337
0.0808663619357931
0.0820714554062503
0.0804005484713691
0.0786652939123647
0.0774769771160991
0.0751673196749616
0.0732507563752306
0.0763735228462882
0.0738307377896112
0.0733523411415925
0.0740235130695717
0.0738952534893214
0.0732554829791743
0.07407452695476
0.0737118168355817
0.0705395237423943
0.0827658195881197
0.0793405084455312
0.0752277835703371
0.0728247335640229
0.0728655005834047
0.0682810475948957
0.0863419683848989
0.0833916294659436
0.0753338386082439
0.0715506972853792
0.0705565848588808
0.0761476896425923
0.0750353003463097
0.074232485525271
0.0732040749162475
0.0760687755381253
0.073301900777696
0.0771310615609564
0.0753135564753049
0.0729044132080299
0.0729485442948848
0.0735928905651297
0.0707808248958288
0.0761229875362659
0.0721255973250897
0.07317950562497
0.075260939908434
0.0764839836459757
0.0951213914684812
0.0966742185939432
0.094968931712078
0.0845192696325707
0.0834401548710808
0.0744393218400184
0.0744844460971738
0.0718302830447776
0.0761873510292808
0.0766598666888429
0.0761477712923629
0.0732866808133037
0.0752567288422472
0.0725084110064698
0.0754843839686916
0.0711860357024539
0.0738658278786927
0.0707285653788573
0.0711981657735343
0.0715881672450023
0.073833029406771
0.0703963859251346
0.0743827182676589
0.0837369801943354
0.0837939542872315
0.0756126952259276
0.0734989528816336
0.119842687507097
0.0925849096408031
0.0880525339129079
0.0756865993861558
0.0782652013161012
0.0722218895759454
0.0721401139010286
0.0750754266697065
0.0822686857318741
0.0750338804087336
0.0770637788271458
0.074170773522318
0.0796260541073838
0.0752696144168318
0.0748506311387927
0.0977607498323601
0.114058853383721
0.0863328310649494
0.082032019360542
0.0679629695113144
0.100950013030873
0.103657000837993
0.083869947963158
0.0781355281844318
0.0789063470134778
0.0774763282847637
0.0779170377004198
0.0749411732352686
0.0791115213021383
0.0866791676628857
0.0774764507442757
0.0778201772941494
0.0783506339936416
0.0769078143116768
0.0820902913408003
0.0789195255741819
0.094614758231631
0.0887185603831044
0.0791578295234164
0.0883359439135064
0.0826257756928185
0.0794516765230043
0.0803888645170272
0.0805244479200625
0.0785844457050758
0.0953871240420531
0.094102854701773
0.0908957107066035
0.102998585550976
0.0927592876619338
0.0809160733913818
0.0890774740054531
0.0940151205421668
0.0944778495843909
0.0737628971127975
0.117159076296901
0.105585783994008
0.121733973859458
0.0985490575872454
0.0923444848925875
0.0831246436203201
0.0849681145040034
0.080142347397849
0.0903116493509414
0.105343977878054
0.0842146671458638
0.091393606541639
0.0780703474863046
0.104694208406801
0.094574862630871
0.0980740030590381
0.0884638918793757
0.0898016233867862
0.0869957209344324
0.116658499785566
0.0835476203175782
0.101623295493725
0.125891875884561
0.127984572084545
0.12743797494343
0.0926151975184675
0.102443056041638
0.124763303387964
0.103230327105402
0.0987275263996727
0.089131226531766
0.102632662917583
0.0837462036623927
0.114073718957827
0.130949441708957
0.102545434045558
0.100625107914974
0.0978135318652478
0.103990335317172
0.127561379347399
0.110018918221126
0.100322717543436
0.101035426853368
0.105661233069876
0.103633002535671
0.172270436685203
0.112288954434732
0.145065510769139
0.125117317192841
0.142159136950092
0.117675932457674
0.126999733109275
0.108388151866683
0.140085499206385
0.133511728115371
0.125284846308331
0.103121818514999
0.159294991821091
0.12909112435162
0.128247544721663
0.124197781105189
0.121601646583712
0.126465736080983
0.189086266439834
0.188154065950902
0.170129043437447
0.129953085309712
0.148380038615746
0.160785650053014
0.141755097071551
0.135370790085236
0.134842549363269
0.135870150592194
0.133931069748892
0.13851817698124
0.156721982887292
0.140014138098525
0.155615490703183
0.137819632627763
0.159813297435031
0.174146870636532
0.243968762519439
0.184653304462751
0.183281706689475
0.202388092462217
0.184311014534725
0.176020156916451
0.164435365053058
0.167444120888066
0.178576433078479
0.17820132820767
0.174605303178731
0.175726863855273
0.217607125680111
0.186833659452199
0.230797733185292
0.196979043888746
0.208950922579319
0.189845730682684
0.245981079900081
0.351468680946748
0.24142605892155
0.245566859725313
0.216346273148455
0.286138803372523
0.283927196122736
0.256550012891946
0.245443612137483
0.248537119169501
0.244899517401919
0.267575561762897
0.275281170959098
0.287483256509276
0.300945958363502
0.291626756367837
0.292044100530736
0.344339042847491
0.39536503142411
0.394963452993459
0.335950940792551
0.335878690084776
0.358147855226814
0.364068367416167
0.349885175007941
0.367899415287115
0.349541114460661
0.422572073615933
0.422065291776832
0.415717723113295
0.394167115714021
0.423806761729432
0.446155634322227
0.424018096914614
0.504874672828469
0.463654240102651
0.476653214951924
0.444693737715359
0.484800645914025
0.457383326104904
0.487652528689991
0.517558741697949
0.513400374638896
0.503115984689523
0.507859087418324
0.513996121079357
0.524306641375568
0.529286436533632
0.529168162027549
0.539013420339849
0.60167991931134
0.605384545501007
0.773774277189294
0.574764068889831
0.577843861563298
0.543687932586507
0.584451199754705
0.597369898130582
0.609478577249003
0.63466618083494
0.593646348096027
0.576644667818572
0.574094760737038
0.570566605484976
0.576920687744095
0.570611717081285
0.57224973763067
0.562916560491552
0.640819369718029
0.565012646506547
0.71581353490596
0.621310124106328
0.602774418961277
0.565477024088224
0.580237033916787
0.540508889946371
0.570781057214515
0.546289241863671
0.588032104305331
0.571275474735777
0.567072260358451
0.550707021416985
0.542827446356799
0.585846960149125
0.57417870642078
0.537547920710877
0.534872080754766
0.518409070463682
0.526773992727467
0.490457964352635
0.57464422537008
0.544100790244514
0.525337834196865
0.503683383101497
0.49431854055403
0.481140318976221
0.493895125845141
0.47300637656731
0.491141465109259
0.469430910771309
0.482646041428487
0.463049519340466
0.464887286137004
0.458715933139105
0.452165503783245
0.464295341353804
0.452920078834771
0.456142204603119
0.444019755885146
0.448030218152257
0.443010711553168
0.437906220536584
0.442348807180471
0.428969968974402
0.446276540319722
0.445137233632195
0.436830559878951
0.436534472561029
0.431305898481914
0.430497174637754
0.429046312303275
0.423872887794798
0.430864949506537
0.422224128297796
0.418522983552787
0.410753524995244
0.422887401923327
0.41723365349
0.410412298579726
0.419479108357546
0.410199708455414
0.414090388166956
0.413718590816828
0.411715945721901
0.510496989315165
0.427393194050534
0.426844788127082
0.384947448511374
0.409467353769802
0.385255530587984
0.398058843254824
0.459972158372002
0.415561681881388
0.393521621198175
0.387080276869315
0.374574624078464
0.408593229825988
0.379910936654463
0.378263239672591
0.37062897368112
0.366262956307788
0.446049336339032
0.417245365605023
0.513263052307288
0.436585338345757
0.394439941368351
0.347384840386597
0.407860880583008
0.383849509530109
0.359756438107553
0.352236786669373
0.342613767811703
0.410195739114793
0.351805291490385
0.352142233464325
0.331635874471093
0.334037683340875
0.382640322734726
0.382305019867779
0.345638174458107
0.393001173240949
0.367971790613344
0.362830304674653
0.41078994881487
0.422176050674503
0.350085790700538
0.32184192200218
0.32445656076655
0.3079969853444
0.341258571673
0.370735880595211
0.314477964795718
0.333690353382014
0.288708108351762
0.306103162180512
0.296657245767516
0.346248188018336
0.287189381675069
0.331651602598386
0.326560936776784
0.285889632301765
0.323655614459685
0.311736893857221
0.360668619744001
0.353606694896202
0.307947253643824
0.273361465069108
0.349581671246674
0.316858802100042
0.305359936217051
0.303432725810128
0.256585809096024
0.294100198646657
0.291759464484838
0.265381512107925
0.307864397768862
0.288321961975603
0.314534435709604
0.345917610724355
0.373923937636444
0.341867465384529
0.275056327917634
0.264640807576175
0.260579889862817
0.269031203710985
0.267526280593749
0.251120153717784
0.329300579456838
0.257476412420462
0.289180707297761
0.318740954715693
0.280869295772378
0.270979174772003
0.27615811190446
0.266448151642079
0.285997927801566
0.320766898741862
0.35016728674735
0.294308656288303
0.324906467585991
0.315817701227467
0.304137786145224
0.299823324104325
0.300999749488639
0.303590715467091
0.318564806870397
0.334988005292915
0.326282518436179
0.326528459687975
0.342828973265452
0.328825931098002
0.399203331641743
0.372513376143814
0.365429087192262
0.407983133607666
0.393010011648191
0.467908057734517
0.395546464266255
0.407003916580951
0.393557911977692
0.412872440604022
0.418039835328363
0.410616811293582
0.455216112839761
0.464530425365573
0.435930240550791
0.445193719848916
0.440721270440528
0.454573917484681
0.455159490916972
0.509772585514773
0.472120677080141
0.599955427563032
0.505546420302348
0.525725678453562
0.481552082173315
0.483082292994414
0.498689320722545
0.486088806743464
0.482233071535611
0.478879836712649
0.494657470200515
0.523746973129313
0.489995847315009
0.503825075128507
0.494094595352378
0.504209872561367
0.49453213662253
0.509729322076894
0.501898632019918
0.511929680620597
0.517786245471888
0.513803833573694
0.523377308735566
0.622792790812007
0.542175971633399
0.548410771614191
0.534729075645345
0.554218968921884
0.536501748322884
0.554134801289087
0.572813834877285
0.561489222488037
0.559926924523287
0.565206437653573
0.559321729308771
0.567016477583087
0.594013433784418
0.606436452668538
0.56801085227319
0.60800233761058
0.561142538772814
0.675244349642697
0.6171750408175
0.635216221045173
0.613254230834062
0.613243667945853
0.595338261996665
0.601206687362051
0.595990214104746
0.611698089239542
0.604206116731445
0.613672770635558
0.605589042283526
0.603500890151139
0.608281942834757
0.606883038174401
0.603434780977384
0.649062040499246
0.599764684882595
0.605856374830547
0.598286921478131
0.604854706669552
0.593035142696489
0.642272024791994
0.614085737456037
0.613740054404981
0.598615065451484
0.617971740289866
0.627604474135939
0.629031058535969
0.594412743260055
0.607521232733367
0.59402909279943
0.609085739655833
0.580277081919029
0.625823495408528
0.632824904229641
0.627420225054547
0.606042843467461
0.617859208844908
0.603515137384492
0.615782844833535
0.617293725119435
0.639956010193469
0.63138188412546
0.636219982350241
0.641461759744557
0.640086913157223
0.636045966137493
0.652935747465532
0.665104601326619
0.670278952553545
0.636569472938733
0.643845723452783
0.634797932052421
0.643019522873805
0.63835618577423
0.630006358324826
0.619853759731807
0.6164563444683
0.613432968102578
0.630089026424969
0.64061906987013
0.605841772353404
0.623656028878909
0.602920366694342
0.591666685434854
0.595935964185241
0.586022858227247
0.579659675455856
0.574442329307202
0.579739398939126
0.564621647459946
0.569507625977611
0.567790634363878
0.565548539954774
0.564115747587904
0.566978096043215
0.560450974082198
0.564864838107493
0.560284820641074
0.562382218897285
0.554513810072908
0.559031550484498
0.557082462289804
0.547636804404016
0.570286922727966
0.576542937872947
0.572821199229385
0.563797299855703
0.567529754402907
0.561866059508923
0.55293044491322
0.553784367062651
0.548593834958784
0.562004378932458
0.550408655066598
0.548491216167197
0.551736534165321
0.554499429122016
0.544161457650323
0.547060402465031
0.543092542998755
0.549906704651997
0.54054430220294
0.54572935603222
0.545146703694162
0.547312043678696
0.540132880695048
0.554050641142451
0.540415887372634
0.545723225649037
0.5416013410394
0.539108628758836
0.542085171726339
0.541286908621364
0.542486519366538
0.545182963609081
0.534427385867747
0.539487799780311
0.53072273858299
0.538024080912546
0.534350014942277
0.534274069675421
0.527671219142711
0.531382828517405
0.525538408175358
0.524205620268725
0.52055392482916
0.525883278277872
0.509239949486191
0.513885027423882
0.506689010101705
0.505144737851806
0.500920176748062
0.494541165060779
0.490736511879668
0.49514819456647
0.484919773796484
0.486774148945877
0.480531154838765
0.474133673066689
0.474038699453741
0.477092339506485
0.470076594818737
0.473723674482685
0.466725090669714
0.46385419668833
0.465832645316261
0.464309885247543
0.465452284703275
0.466852481484813
0.467436589704848
0.465220953389629
0.461675019833626
0.468914554773314
0.469556642068013
0.474861610721246
0.469712252927949
0.474121468850227
0.475406011723215
0.478500657715071
0.477149080566607
0.48041360994412
0.483525866775997
0.483995810548618
0.485610599127176
0.487738986285441
0.491839685505146
0.499064357493589
0.490518190874942
0.495922301503932
0.492347814243502
0.496118284023074
0.493111581504406
0.494697790447679
0.49535640914506
0.494065909667972
0.492304935317028
0.493889665420232
0.490991671804036
0.494788020032659
0.489442568446186
0.489545965238874
0.487659525502998
0.489999795159188
0.483762140791916
0.488044357811823
0.482574138725722
0.481171459916157
0.477928702071231
0.476423968802944
0.47581018809696
0.476062485159151
0.47096141647556
0.470517448928774
0.46347472616099
0.471105936839863
0.46380179273164
0.465897536709205
0.463558043671915
0.462918999037671
0.460572202733067
0.460500769246931
0.455352053464447
0.45795034781608
0.456197666421356
0.456313943408762
0.452997000885789
0.453811307188388
0.4512527705324
0.45017849459945
0.445226178770443
0.442226154206509
0.443843928771432
0.44326264948832
0.437985546227801
0.436943781086294
0.431875236730333
0.432449340074962
0.428957332426717
0.425485842004477
0.421509202239205
0.419994127622104
0.421498600363259
0.416627975705046
0.408413210818221
0.411536539770046
0.408809061722624
0.409059990649051
0.406254615291471
0.404598807298071
0.403792477409414
0.405528838065679
0.401729830213699
0.403059184803991
0.400516965908815
0.399406128499357
0.396143926421782
0.398721150283706
0.389125708322399
0.388498419953378
0.383659080578529
0.384421754153718
0.374249009707964
0.370972525147005
0.370589542356535
0.364662662309017
0.358246726463037
0.354547120042862
0.352889946380156
0.352525906932752
0.350739110358214
0.354349506611224
0.356205962077968
0.36245717717908
0.362117819037858
0.368359055380503
0.37565762141234
0.3865014369399
0.397523783411189
0.410798482797382
0.421512774750524
0.438037342781951
0.455075294967197
0.469425694846892
0.48650309630568
0.508485975231661
0.523696968137232
0.539941896956007
0.558660417122725
0.572090975554126
0.590257704971397
0.611759075806044
0.628299539394538
0.650303630892954
0.665627040317488
0.681647106812899
0.696935942380451
0.71998286499896
0.729423577583013
0.746151143788829
0.757630450810261
0.773494618899975
0.779437527840049
0.79515163950943
0.80078215093938
0.809731535390377
0.816150781545496
0.821774045309076
0.825898566752137
0.828352641998605
0.821843489800532
0.831613530789017
0.831876411900133
0.831834102039985
0.835840352359981
0.833856501642877
0.824374367346837
0.82758057071136
0.82811755041095
0.825430780397239
0.827235749084736
0.831574164757655
0.82399915187134
0.831868976482965
0.837218502475299
0.837879456434092
0.84514395033035
0.856185492983727
0.856051158619775
0.863763349683048
0.870021487747659
0.886632687987685
0.886817212367943
0.908372436721863
0.909859207544073
0.927111239577498
0.931577908356329
0.950424302580837
0.960409030544238
0.98552315415351
0.984062970529295
0.988925256037032
1.00010188900949
1.01025670857029
1.0215778135992
1.01669779098294
1.03702457304696
1.03200673744396
1.02176030069785
1.03891994806129
1.02542708681663
1.01592846996211
1.01394724739847
1.01032373102256
1.00806106510989
1.00698930449783
1.01438612986494
1.00344621450354
1.02006119658594
1.03891321644904
1.0350470702126
1.0648359932732
1.0771528282258
1.07886079596633
1.10312955007516
1.12061252341951
1.1361695301064
1.14509004040168
1.15509510040689
1.16922276934755
1.18708407211449
1.20213140345276
1.23886865046357
1.25063339632605
1.26253860093638
1.27565177412863
1.30046571865765
1.3189754422627
1.32018767979967
1.32430816383421
1.43460100557289
1.43373697413888
1.42324825533061
1.47416050637468
1.47985402747729
1.46991402047831
1.49558636234829
1.57353570243833
1.60981573248504
1.5791902029201
1.54959471361222
1.61150590668191
1.64522798538758
1.63556965940262
1.6522508539064
1.66043174630912
1.75903619570106
1.73990147109969
1.63188475263589
1.65875585555637
1.68513810564805
1.69967994431847
1.62759418017941
1.65786422923444
1.68595050433994
1.70231753684263
1.68262668797106
1.64384831555858
1.73985949829986
1.65539384770195
1.68845254093965
1.68391969205031
1.7616691387774
1.71022266154755
1.76166394739097
1.73234063509874
1.80832443515392
1.72712099350384
1.72705554334913
1.78237130799605
1.89332833531672
1.86571804776886
1.89527891988224
1.85813551770181
1.81467747318528
1.97632727098823
2.07042725673278
2.00552484140794
1.91869144466934
1.9042511957849
1.99530481595933
2.079889977437
2.02211810704662
2.07492371774242
1.94633852820731
2.0721679034113
1.96805534105343
2.06142820851588
2.23332406779695
2.06279743869727
2.2191659928666
2.1581075217742
2.2060315989782
1.93168140124499
2.06867075101344
2.00706357444301
2.20795171139235
1.9509408106022
2.11533756416135
2.24162418858747
2.1198114656475
2.22984815663129
2.39033943756626
1.93731019235748
1.85469932942941
1.95916916892038
1.89944702039132
1.97479580192219
1.81604468675293
1.80407294656135
1.71525139601257
1.61623680836181
1.65139377886306
1.6048826628287
1.53632759576401
1.53452101935847
1.47100749730716
1.4523723995147
1.43006947368953
1.38627621099993
1.44046337845453
1.38409664445414
1.41448759693358
1.33723088235098
1.32809921971901
1.33643934595655
1.34044834360071
1.28785270499661
1.31864271680042
1.24027051414176
1.22434766504089
1.22021886308278
1.19504357503122
1.15937632024766
1.13885479313222
1.10193192091778
1.07311018730513
1.04282994864234
1.01273968425043
0.980603939225438
0.943788270255542
0.893045740755368
0.873269387123787
0.830766306451126
0.786347858517265
0.754872129773129
0.723589210571354
0.691411346282657
0.665132762651353
0.636596987131158
0.607403496107103
0.586663693943942
0.571391908629818
0.542611428202591
0.53020198019425
0.509226384557338
0.494267194629083
0.486568837949226
0.471296083373741
0.459204868356755
0.460543545314727
0.446312911217638
0.442541209176901
0.437116571738157
0.436275981890792
0.430159861617709
0.434448016815048
0.432018151204386
0.430835538355691
0.429338881990975
0.432838921812427
0.425970252639696
0.436206281733389
0.442122879204879
0.433643616295378
0.44675633209495
0.446863782522866
0.446711263485109
0.448855305232537
0.452284974261779
0.448579461213471
0.449648608907527
0.445065337904596
0.438176490561809
0.438553913331955
0.433579098770011
0.433082942002527
0.436336114179202
0.433538508345704
0.432689886581476
0.430182635241136
0.43114565278556
0.422395228969756
0.431898983207906
0.436083138861866
0.435484773189366
0.440598910079867
0.442497642142591
0.444424043946501
0.45753452643764
0.459065373965163
0.447930882557906
0.449412078494591
0.460473323432563
0.461962254386063
0.466538488236742
0.466850196415577
0.467595347594424
0.468255937581055
0.461922380062522
0.466225772042203
0.476650400905059
0.476711299393285
0.469217167182458
0.473508097799477
0.475782086935283
0.466984091202792
0.4832611218219
0.480468450781577
0.477995965926554
0.488835951267269
0.489607268632444
0.49990083490471
0.509852270797418
0.514350477468913
0.522579184197854
0.546557522028807
0.553346630407523
0.556004634825045
0.571781889916651
0.585517342001311
0.596249036165776
0.606591325697138
0.603660210595622
0.615772549717446
0.625651527281672
0.631483006315948
0.610633520442377
0.591580050426969
0.591885408950003
0.573171484599296
0.574562751884142
0.574351003764273
0.565224444212828
0.560922022604375
0.548350552907262
0.556341551391331
0.559395040011403
0.56350127661412
0.560783353549333
0.566368060777608
0.558095388727735
0.56757717128721
0.564644138411239
0.561503023095721
0.552606402525241
0.555239056951972
0.545722190701621
0.548562190117199
0.543120553926361
0.544712071006653
0.545011198227432
0.540390998867925
0.533062186821763
0.534875428319818
0.524719171121812
0.527590676128468
0.532308220279159
0.529690480824715
0.513958474483119
0.5210122864534
0.519692371344755
0.513812894345569
0.520503335309079
0.515331098016243
0.510344884160684
0.523443860726886
0.509517267394006
0.513077207657007
0.511013826202303
0.516868084776439
0.512483710795245
0.521886370658089
0.49918882743858
0.511520712364177
0.511736623717245
0.511059042121222
0.510909118927118
0.510041296787792
0.492740035918527
0.49825359333584
0.49475821616204
0.4927995938483
0.491774349541827
0.494146299036859
0.485173205868133
0.493452192588109
0.488633889953467
0.484799495456385
0.489024692888326
0.492975771309712
0.488819661058322
0.492424101230192
0.490824230487679
0.497571665197195
0.488881845986135
0.484270389665425
0.488203701086184
0.502799000892759
0.490781401487298
0.487114066922179
0.511370083594968
0.519642116562175
0.502930713545895
0.531416356649891
0.502459908120625
0.499568778729978
0.521945433938992
0.527141068796393
0.523711330770422
0.539958398534832
0.524125375644792
0.533491360829054
0.534929950591057
0.540802253312133
0.539173451294776
0.55190932897588
0.542609677431112
0.554256343746419
0.580519400386782
0.571838463938707
0.575660150823683
0.608453204929252
0.561910582113242
0.608237410047147
0.608045911560619
0.609755732615727
0.634038906612408
0.630543565812095
0.64289681222258
0.695764734943969
0.680798384206763
0.705901088911236
0.727717207545389
0.725093195533793
0.735641364121815
0.766614745759898
0.777467400558396
0.788290744701186
0.782098264244528
0.789003261170598
0.798633799448819
0.788779995712497
0.817888654563437
0.836218139265552
0.804512414856263
0.842806835893874
0.840773854293839
0.819687579226061
0.782440905577752
0.795623955962628
0.799236611260636
0.818341284863987
0.79635391065967
0.815419151292991
0.844584802378317
0.817161121142378
0.778041952509647
0.813619747225679
0.807052288543852
0.809274252171432
0.787169809468613
0.765054873686595
0.788795905076177
0.818403678339144
0.730709048606873
0.760410493026058
0.746508638618674
0.760085465152356
0.832205101892395
0.795672482752851
0.795706161139143
0.793979373995671
0.72076391443839
0.779036175126377
0.736610716110638
0.760351225409353
0.749748285858349
0.777262870907707
0.792994991489528
0.739555648572199
0.764362405560661
0.769742705717859
0.736837453798202
0.788501297831623
0.826231832682968
0.801415319512353
0.801780907276854
0.749337651752978
0.730754141347188
0.816153941672819
0.741655572450255
0.781797885351143
0.815522916912519
0.793093326381197
0.78820415961427
0.83192700353075
0.841313948768243
0.817522553756814
0.747591399364269
0.80142332701178
0.792084727719776
0.828139442730465
0.852513055856775
0.781913384170586
0.79879046797299
0.845759576708527
0.901855042873491
0.852368108784634
0.792708071764527
0.802846370922718
0.796975939637352
0.889935290968358
0.969326809536321
0.991918228978922
0.923692772154615
0.920332912042348
1.03832865570857
1.01751061314922
0.951461069540522
1.0397966664884
1.02469631135148
0.907394642711296
0.839220764560226
1.05200631266517
1.1123242414603
1.02966844016975
1.01394268528566
0.929861766013443
1.17993282063948
1.28434262837088
1.00559204423244
1.00374088543628
1.02436234098982
1.12517804668093
1.04484419993711
0.950989005300628
0.950942647189422
0.916447535256431
0.955095969768161
0.955315970690097
1.30218546177883
1.06511945119653
0.915577172718332
1.043557797082
1.02884301135509
1.21005261497953
1.08213746028142
1.15795615991013
1.15654189840153
0.850380997926695
0.994687108755926
1.07583664094441
0.910225862019628
1.16337981178197
1.0989524319322
1.19330038287883
1.1048155445325
0.753652061216049
1.15538308430688
0.91851077175932
0.799981516193524
0.960357859030147
1.08974263441545
1.27632868865173
0.831781805093995
1.23603372944345
1.50396538159131
1.21761764172213
0.978284929915488
1.46523702569347
0.974248216882834
0.896102778459675
0.79310877516693
0.851791033038903
0.961308892767225
0.775472042578504
1.81635130614576
1.38956367772487
0.937623584691813
5
1.00331466152284
0.934722844151204
5
5
0.859689141823689
