3596
4000.36533379555
650.420452594757
1
2
2
0.0849445049321857
0.0816236782324973
0.0770849114398873
0.0815059652689012
0.0882146718505596
0.0878151527609361
0.0855005706816226
0.0838712290707554
0.0888130688029983
0.0919373969194834
0.0862123660914481
0.0799200899570251
0.0831832787427445
0.0883372661790605
0.0805304334081144
0.0801236499786263
0.0854092092790604
0.0823298406955986
0.0766373687898388
0.0773182396775477
0.0743813220565191
0.0844475494282575
0.0817265367259454
0.0848137137644886
0.0813846791881376
0.0863966490644035
0.0850154502947186
0.0866169288740042
0.0829202234783385
0.0917455143937289
0.0805831252616478
0.0868918935850256
0.0871631474713681
0.085686753698945
0.0839114941116345
0.0859562401479586
0.0828526712553018
0.0876629522391855
0.0827246473555721
0.0849490624045605
0.0916967956055268
0.0936083798398161
0.082866232530476
0.0873238148540247
0.0829372149427601
0.0809730864946905
0.0887768752666389
0.081230446653896
0.0909266214939571
0.0867399211632645
0.0835883682830997
0.0813087726164173
0.102513535720006
0.0881012076928836
0.0877138669191297
0.10171127035984
0.0890414865174821
0.0907865572040292
0.07811236901694
0.0826882669986507
0.110830632834844
0.0979618577075753
0.0746518841858382
0.0935787479595616
0.0813294933920945
0.0866603916000906
0.0849813293699616
0.0835288457930778
0.0748624071896966
0.0864080499728743
0.075051543341525
0.10481300467198
0.105567999069234
0.0869061469551702
0.0862280740323001
0.0827065899333553
0.0841818302884636
0.0778037462549862
0.0766226413305749
0.103950996144939
0.0915388166681295
0.0913203623597275
0.0865111288505648
0.0851573061510877
0.0946957257692376
0.0991944879709168
0.0695040542193388
0.0970648573498156
0.109801788638248
0.0894760231939322
0.0798370547910365
0.0743354454621433
0.0758161572869909
0.0820471415730521
0.0741787965367111
0.0841917497591835
0.0755547645606143
0.0852228945446786
0.071355631031426
0.105090870943034
0.10142150476519
0.101515624789378
0.125186152188292
0.0898810231380628
0.163262121931682
0.095321828218439
0.0908193565650808
0.140765818759819
0.0895463771913599
0.0803990219930616
0.0774126895038483
0.0899499277231185
0.0840044597799595
0.090010175769472
0.0715796591149859
0.137080712034334
0.112592323461609
0.0878323345248477
0.0788065289207846
0.0867871889338429
0.0688567284229331
0.134145402281008
0.117061980822977
0.0870266925662331
0.103994591280864
0.0819030193015903
0.0810425810236091
0.135372847653184
0.106943146083531
0.0770955594449804
0.0816883391700182
0.0779770984894035
0.0770805016498217
0.0872791896339623
0.124719423025541
0.0861788961158338
0.0909197980012133
0.085295766396139
0.123169935463988
0.146490218226659
0.0887223784082056
0.0846501520307557
0.0722852947409815
0.0981836182926955
0.132529222280721
0.101062283529048
0.0765393966648321
0.104308451248715
0.0975776331283702
0.0768833656134378
0.0808124625444884
0.0778770274773407
0.104185132840158
0.100998631052701
0.0577440066642192
0.174188310843273
0.158608750452091
0.103644499275377
0.145230281133242
0.0749342469229002
0.0968319585468723
0.086087713942684
0.0822734382039172
0.0675717774937055
0.0849914289497056
0.0694108750511671
0.103058772700493
0.111831957605994
0.0732167303429885
0.091803355229202
0.123205450342427
0.113465294039285
0.0870046597613584
0.155306330933899
0.0913408331439149
0.078952883773162
0.131215808632018
0.0928946750694636
0.0746430723493687
0.0852721082387981
0.113908265784914
0.0725775692712995
0.0745549546518181
0.0692277930555451
0.0923026310896352
0.10237232164385
0.0932134550010208
0.0832010639633955
0.0833898589793112
0.0649369968089045
0.117737495065868
0.13621066775284
0.129726155050659
0.085196696936987
0.0992544441388682
0.0601874838301321
0.140180611219327
0.116841600554766
0.0814236242693625
0.07745298637605
0.0692251468317362
0.0759326851448241
0.074667185171202
0.0648346704376516
0.0753188668784427
0.0597212005047598
0.130499564736434
0.0960246112876678
0.0762593056111997
0.0695499543159598
0.0893326098375305
0.0927818090051715
0.146115909694571
0.104335792744244
0.0777952794195434
0.0898370674276334
0.0760512272147332
0.10023430763699
0.100220063558746
0.0772114657214645
0.0719541915150357
0.0744081375479709
0.0712175711781122
0.0709759399800007
0.0765953075616845
0.0838717744245596
0.0729947856018108
0.0755362717417871
0.0817036598419213
0.0842705632076098
0.0844508851769515
0.081052030381963
0.0732144931529259
0.0808433156009836
0.0705991124173442
0.0911502709277975
0.109441850663382
0.0804524684645068
0.0813574554270007
0.0727972010154349
0.0882316873720567
0.0741039715369028
0.0828678521245631
0.0792679995125525
0.0841151788996991
0.072441933261476
0.133945560428013
0.0793960866255851
0.0871827150740113
0.06389833041492
0.106501775687744
0.0959571702585011
0.0762379265238188
0.0762083448027434
0.0747186904214553
0.0704208613012668
0.0843622946393504
0.129371191457312
0.088828022325335
0.0865524414158206
0.109272507760547
0.0856963069436975
0.0804192924667055
0.0970555285298201
0.0868790143304545
0.168495500817035
0.103472147259867
0.0835694982117616
0.157372660222504
0.0987152188436794
0.0957956015561068
0.0912912077180213
0.0721479962402566
0.242005072950623
0.132779996272465
0.0879476144651468
0.0989526945410654
0.102264124465977
0.0795199776936894
0.0932480893404896
0.0946943327992861
0.108131990826164
0.127854394677218
0.143625576931958
0.172020623482164
0.0703708327950941
0.135666146881405
0.120782341195554
0.0855119969674774
0.0875761923169373
0.0856623019456124
0.0871690044902098
0.110847006793287
0.109918857383613
0.104480390386118
0.0932775167217318
0.0933441764064626
0.133215093675317
0.096236471061286
0.090640608553789
0.0963443028426559
0.109276162814274
0.0840437440236039
0.0939197991289304
0.0799538234399924
0.100700589512895
0.09048785379002
0.1036034266721
0.152127265768236
0.117236519750198
0.0980650998117081
0.131638950334268
0.091214010316986
0.091672412406599
0.0858502746784749
0.0975449376421161
0.0876751516363501
0.0855425843169977
0.0855197879798814
0.131478162045075
0.0934316635135989
0.0804149535420914
0.0893746466017538
0.0867846141088561
0.0921350035304894
0.090599348905863
0.0869671543922741
0.0902453743626843
0.0860726511861242
0.0869188084889426
0.118937554685265
0.130724513437692
0.0802224866400817
0.1505338650512
0.140056981634336
0.0944323581346944
0.0994960398901884
0.0898460342407856
0.0975960311845769
0.0952620947034637
0.101859576064254
0.0932007097864637
0.10783141536371
0.122146288496205
0.115933232172246
0.100001707767653
0.125330750712346
0.180060256988889
0.188303796033833
0.119624797892239
0.118327661190892
0.100527474630944
0.151893856707225
0.14849661727746
0.136647864589208
0.152600565737357
0.0997625863611105
0.12273848192959
0.101135742313975
0.122626136056861
0.113295929869084
0.12068078152183
0.114661787339312
0.121667834318974
0.11559983077205
0.125109174865569
0.119932856131069
0.138346729912307
0.171325443684854
0.140742729293266
0.123087262045405
0.137029425240425
0.129605524462315
0.18174839450913
0.184723779537107
0.186614155878295
0.190828080313166
0.172951013404029
0.201860105154039
0.14188160559517
0.150951263640507
0.138935075469397
0.148696581352903
0.155784478393832
0.157507888868165
0.148401831890288
0.152700904510365
0.15758893178803
0.171152825406957
0.144303793054824
0.167887744690271
0.153750750254794
0.18439869196805
0.167173526213574
0.172108074772419
0.163145473702781
0.194587795354609
0.244453465606484
0.236240640342879
0.19018394426727
0.186832599372775
0.190845623631076
0.178852564609697
0.191817116241695
0.186190050787756
0.207283301618298
0.205713402639818
0.239086210446524
0.229780744093041
0.2246280970442
0.219513364524196
0.205692989619787
0.243319613341135
0.238610280154155
0.225310025905326
0.237787005190798
0.227117608055733
0.225456785501022
0.256770708681664
0.256390967278888
0.230300484576695
0.260174141185559
0.226808321028203
0.244623039108476
0.239000357015424
0.247464213530393
0.245754451801632
0.276319076549882
0.257188613664459
0.253347326116801
0.269612789571638
0.248762888601398
0.262265176579113
0.281761509529253
0.2802008187896
0.272212468266856
0.294467754402011
0.258213115046696
0.28862351438107
0.284254365552395
0.300020106108827
0.319587660935068
0.317465056398045
0.342082493508423
0.294042862176172
0.311486019773073
0.306587597773772
0.304606792361248
0.303971906918783
0.313202566492349
0.325732215174651
0.325265190661752
0.317811311344284
0.329348896035097
0.32495055599372
0.349349722723123
0.343189858192035
0.339522888173916
0.339282657945963
0.350058482350204
0.371323066562742
0.35486383336364
0.396599745935014
0.418775689086376
0.397434141349726
0.40148643279593
0.362096736832782
0.382666137017374
0.396618899546976
0.402427992205927
0.379258777289927
0.407028998648058
0.409693068891521
0.412883984189946
0.408475697894961
0.427618011630236
0.42283349449142
0.408244301249625
0.433007840043691
0.44532813961716
0.428847891065089
0.435390123136128
0.435689250805139
0.452646487944165
0.437660427476874
0.452185679531473
0.471358603291993
0.496173173938715
0.47057378535349
0.463390981347804
0.463566554732166
0.462225839657266
0.497582445220172
0.490214887907081
0.47300212576344
0.50464916969756
0.498912200735066
0.515206238976015
0.517539896787578
0.503589024234866
0.523064400698488
0.526746469628963
0.533674105915139
0.528497756856377
0.556220762633187
0.558212322117742
0.531039950526024
0.565963668529312
0.552470841265243
0.540292632952666
0.552767260283283
0.604060045613788
0.5688640168517
0.572215051689137
0.579128757791456
0.586650415278497
0.578980629376965
0.601601422008552
0.596583916994871
0.609752693150166
0.6100963091673
0.589118389729083
0.614117855533263
0.670126580915393
0.635114120103859
0.655265726606733
0.634618273664139
0.633259041899894
0.648634890799167
0.651650845583599
0.657782526851615
0.674501406380295
0.662365008488945
0.686773807074152
0.679054323263886
0.672972174529349
0.666069181671099
0.687821099042633
0.687849448475643
0.692470261832392
0.695159772390272
0.717417994823497
0.723748947423269
0.734035409040954
0.716161824545147
0.727272312580969
0.730492423761429
0.744749425068684
0.762038484136939
0.74755208155087
0.740231132974656
0.775968869862938
0.732669752102122
0.777067167015311
0.763471137533756
0.772858591052522
0.758077811547609
0.751652644358877
0.78923933750689
0.778733292199103
0.758900791838347
0.805174460360047
0.832492385596259
0.845401878225334
0.778267776040513
0.814845811231838
0.821949020283566
0.848666277132012
0.826079865019896
0.822600505129491
0.828286543862267
0.852193275643053
0.837968043772943
0.868790356231994
0.835373849143583
0.86914813513236
0.903583861730047
0.893663393001328
0.880263135277722
0.907245324797561
0.875120707220944
0.895295706240984
0.911303502901411
0.89183214904529
0.904027829813455
0.881188006348968
0.899647289104777
0.908869948627899
0.906320296056155
0.929022215549068
0.971673541441533
0.943384669201921
0.947965864559641
1.0342190673
0.995225219229579
0.947496793009011
0.968651513939103
1.00575260366968
0.963368421300355
0.98013855200173
0.997404411601692
0.979206389033965
0.921372855835727
0.988526581129827
1.05013505013601
0.954640194353872
0.977911316443988
1.03660595626171
1.02493092647123
1.01439036359548
0.994641638462259
1.01358744931014
1.00436686805403
1.07140144342532
1.04081653789343
1.03523635385173
1.05172644902576
1.04108780917016
1.04098581196748
1.05790723269465
1.01057376768553
1.08085800751396
1.1197234406575
1.09149383563465
1.10814158262368
1.08000558691074
1.03810567944224
1.08087368176104
1.08663584705418
1.06989651374391
1.06299623638799
1.17194337660653
1.12206852535513
1.03190120139253
1.12632677358466
1.06169469720804
1.08927774201276
1.23201581940968
1.11210646809509
1.05497597964311
1.06204129795968
1.07142572162234
1.0715965587093
1.15335194888104
1.15955342134744
1.07680435968609
1.11142914529916
1.21721084789081
1.16202779248417
1.14930848367406
1.21283168712931
1.15842951641633
1.14487632514093
1.20300761171008
1.18423455682917
1.17506829579367
1.18752390297837
1.21752838056201
1.14150737785967
1.17307315189149
1.17493017145293
1.19986288060293
1.24880128314398
1.19133153500564
1.20724319343655
1.2852336945875
1.22639395039949
1.20007548645563
1.26707313128868
1.20656540945665
1.18220685930793
1.21270555755613
1.22046891087927
1.1754874826188
1.17506698521127
1.16518563531661
1.13881204688572
1.19821675214357
1.3241331074658
1.24275069335927
1.26251604371896
1.32202217090827
1.28833318548418
1.30700806895642
1.28664653832498
1.2770591395904
1.31783529299247
1.30310593028543
1.26441648935755
1.28613178536967
1.24219119904792
1.30392378767169
1.29511987080266
1.27388449991029
1.25274370418036
1.19298561499809
1.1771333704961
1.23447481260427
1.34133500467712
1.23527964581052
1.2760101340131
1.29851313005843
1.24511549779719
1.24844889361196
1.28076745239854
1.35828928796291
1.3036856001987
1.2610149187155
1.24556396827224
1.1950346811195
1.28535918689649
1.30082015087664
1.26300111555378
1.25239826164551
1.24658048612507
1.26346878620955
1.22676945233522
1.29394632378998
1.29624458120232
1.211406140494
1.23913921851077
1.29448698449159
1.26296419702858
1.25635965534892
1.32045054543015
1.29790484545897
1.32151870930145
1.28217860151572
1.30399971111451
1.24235444151568
1.30901126850484
1.23553386377425
1.20714997641785
1.27796708609033
1.29550461533168
1.31620306718027
1.32617942751078
1.30676873854274
1.27370543982803
1.23049672316198
1.28781185053387
1.32801429294202
1.27444827331405
1.24070820829985
1.24814139090258
1.23898407895177
1.27491644351354
1.28453283370554
1.27670672427535
1.22415822251698
1.24462004430767
1.2703516108905
1.26865298754881
1.3045642634355
1.26672436540421
1.23947246593777
1.28377116224031
1.22334917068372
1.27134276574388
1.30039982109514
1.23468571124626
1.24588900489541
1.28402515589817
1.25384083512749
1.23112980622093
1.22550071665088
1.21414989056076
1.22692911022684
1.22987578348519
1.21124363255775
1.25786993415094
1.15500641063863
1.19454645621183
1.28478632772141
1.24549538818833
1.26737837737657
1.26926192584137
1.24638964392773
1.26332523041076
1.18486396868347
1.21088627332617
1.20281553524664
1.27911152908902
1.2248773439695
1.27477394532079
1.24334549090065
1.16708702332686
1.26259499686065
1.22334431088715
1.18131780982844
1.22168135282764
1.23879977098692
1.21432074527931
1.13820288755114
1.19891463095443
1.15896055341316
1.16876229736491
1.16194180774519
1.15057504707266
1.15961023611741
1.21178075744405
1.22097899102009
1.15217554345588
1.12657565743013
1.19290502939175
1.21982144692725
1.19636059857255
1.13488662828437
1.15810558601543
1.11501493121583
1.17743837735588
1.19662178401968
1.20476015103702
1.17990645217884
1.14375896847361
1.11307486580915
1.11120667942583
1.13087742011378
1.17804113088892
1.10800601724945
1.15355910037791
1.14692356573431
1.10213653018812
1.10694629342748
1.1349494235552
1.10971064627779
1.10734017191175
1.11179696019571
1.08954723207741
1.10467788644684
1.12102407370903
1.10459825250349
1.12365835821038
1.09073653533178
1.06645744478483
1.04763482463297
1.07756571392844
1.10797294116243
1.08715724931066
1.05519680175678
1.08598054800587
1.0762826529435
1.0691430084409
1.07108037468009
1.09564615005799
1.02893570458033
1.04564582250557
1.02031285317265
1.04846980399846
1.03219366812839
1.0358931276189
1.02919823065625
1.02208230777729
1.00371488350508
1.03666221658417
0.971589668951678
1.00210736156813
1.00048421381193
1.00609508281097
0.998891969257898
1.04109536237038
0.965866901008143
0.973781125130558
0.968136875009637
0.950823669837973
0.955686867502244
0.989850746524477
0.964033309443678
0.965730828384791
0.95658223054247
0.968179345414615
0.956375603967999
0.963716301326087
0.931193578027093
0.933550562919905
0.925867842162019
0.924779422244872
0.895746902076302
0.932467965626579
0.934786435468689
0.916732762947618
0.925519489416401
0.918607862119226
0.889773928095895
0.889726657595849
0.861400865091842
0.87511430474286
0.885835467596072
0.890082534680861
0.887619279070024
0.892426087535004
0.859852165016868
0.906459287111667
0.865314771973691
0.860147488218447
0.843075081550018
0.846365550809691
0.844587428404471
0.825123507407195
0.804703413341233
0.824107044720896
0.821910941002758
0.815090326163003
0.807349010663787
0.831348072464703
0.803528484653156
0.793154922091756
0.779654855931363
0.790172639869459
0.776838352211544
0.817438794105368
0.801176867177077
0.774376882629959
0.770462097126904
0.771775308411483
0.760126424907299
0.767395219386593
0.764325875108975
0.779136962859001
0.741624674796023
0.739879303236995
0.729526300000608
0.748955874032556
0.738419338657179
0.735994576836333
0.72450188099155
0.732108696666611
0.71739794446064
0.723835226823436
0.710863751404365
0.706801651067335
0.701762320818464
0.697111105893152
0.696879357679915
0.689064229274745
0.675037208485392
0.699170684315916
0.68223363832094
0.66400310539442
0.664754476518781
0.680448253652339
0.65284920167639
0.66679315969222
0.661696156356284
0.664872939936183
0.6519622338688
0.645095666967154
0.642218147438036
0.649954851042229
0.624664719149128
0.637328177041993
0.639291361429482
0.627886349678783
0.623041244582607
0.624396438436412
0.596808580964717
0.619390714989535
0.600169546688675
0.597759591415081
0.592363676775753
0.608325671554704
0.608034899628288
0.608704197359155
0.578818839911093
0.583571263369918
0.583593992868845
0.58878886376749
0.572723463009712
0.57642664773486
0.571056714788824
0.571726189604154
0.549740018290366
0.568428916375903
0.556057904064524
0.55114162105351
0.54213278666196
0.551776346418084
0.53932089339707
0.544794900857875
0.542094017128187
0.544622842976917
0.522091426160089
0.530072768827219
0.525520905866452
0.524854923968809
0.51040811167056
0.519036155897325
0.520400744382883
0.509702686377246
0.507592622519239
0.515555968839953
0.496014435356975
0.498092893586954
0.492106842820042
0.504244792567914
0.492538545734041
0.495822249106956
0.477379908397638
0.487784321618749
0.477373410111184
0.475143063114289
0.472220726783667
0.481856407368731
0.473395329888618
0.480956831629396
0.463046917175945
0.477069235579527
0.456829080737695
0.468181782815653
0.447241897775032
0.453171170722897
0.449195094853617
0.457383597251382
0.441225196690273
0.445237191801134
0.443832190265661
0.450871830775934
0.431124434999122
0.431022905107941
0.427596128279057
0.430197845744209
0.416768219471514
0.424708156099848
0.415328235940777
0.418891761311824
0.417393546686473
0.416580929558282
0.417298998769623
0.416500313087056
0.411398286233309
0.411448318607676
0.40003440009573
0.397452928729887
0.398687619322166
0.397677197441223
0.391857795395478
0.39648219460986
0.390812162157234
0.401658650873261
0.388842357378395
0.389037120692931
0.38080037831536
0.386564090856959
0.376058150382124
0.387029702872621
0.378181275001659
0.375214287670262
0.374955841304728
0.373022495035363
0.371906562832292
0.361968317160612
0.362316131609215
0.365305888227546
0.355006765691578
0.365604815992947
0.355402158934439
0.357611942900126
0.355403130988785
0.354609606592812
0.353603829891254
0.358261084156297
0.35618144977343
0.355961661140306
0.352977509798332
0.353331995056736
0.346320666771126
0.354738215808704
0.345750554251188
0.34834616112826
0.341121977107305
0.35078475057321
0.344073455961302
0.350824920016288
0.332799645739281
0.334601733593477
0.340557302881756
0.349708583232119
0.34551935698425
0.348473041870317
0.343714808649113
0.346914667566462
0.343244712243353
0.345051273456615
0.345190744696774
0.345745458184797
0.341942195718419
0.355612074547666
0.343496663024263
0.349861629313818
0.348283705452738
0.35347592776414
0.356208460160579
0.364189387295758
0.355002826802081
0.355966813466515
0.355610103681789
0.361434150032727
0.354201047930571
0.360597904440249
0.361392266358418
0.372933732877041
0.361983420214141
0.375225772458488
0.370229579584753
0.37422092150424
0.369653849513281
0.378300062937509
0.379024516668646
0.373743832740065
0.382403188207788
0.389464885063497
0.38027507872932
0.385029433212993
0.388072721312634
0.394858744429852
0.387179247641363
0.397274405901953
0.38986985864971
0.4094859784122
0.399095038452955
0.40320145402151
0.398925102074587
0.415461653382613
0.410861610987347
0.422309997209497
0.422657741894612
0.432653904186199
0.425685590512244
0.440026378287487
0.426341137587901
0.434339887683163
0.448137735061438
0.454127701703018
0.453693806992794
0.460188634723254
0.452513212825401
0.464679807759522
0.46205529069808
0.480897144773752
0.465861456446864
0.481413211697229
0.476783794872489
0.489664724248781
0.476532844323621
0.49547831937232
0.488690670059729
0.481534696892415
0.468640810581314
0.495386472471907
0.485812916736003
0.489503732644911
0.490990176589077
0.494893587242715
0.488267549530284
0.5048045190493
0.483585592818393
0.504565446512602
0.489703682705106
0.499301427518737
0.48607432657393
0.482864884090635
0.475504255736298
0.495780645324051
0.479174317313405
0.478994043824334
0.475200377997013
0.474799102687516
0.477458585792191
0.480155505093212
0.472458015884659
0.483331170126895
0.473114857117162
0.477878939457222
0.468337734668798
0.468047732783114
0.469682980943302
0.479321677045614
0.468736821914902
0.481353707592329
0.467370190782891
0.473402664709186
0.472178396325545
0.473814753104747
0.46260678102109
0.4736616257629
0.4682493552395
0.470645057293154
0.477099051051965
0.4820766315988
0.462989826209816
0.476627828519891
0.464002022408822
0.476304379298863
0.466877033969366
0.465252411962539
0.466075314779139
0.471893446440157
0.452931091252232
0.462714091691794
0.457655009474585
0.465088519926319
0.457833424619228
0.464583397215798
0.446438216921004
0.46246577559339
0.447309306453019
0.439994511616487
0.445680638362615
0.451220854775486
0.43271378185866
0.446683051946854
0.437764721032106
0.436967635411907
0.426715429174699
0.435717311956552
0.418337290053482
0.42473347964336
0.413977659097231
0.421197830469184
0.411124414669366
0.410691737134256
0.407618273284443
0.412070317198597
0.399044259540519
0.396150493427579
0.393841040895338
0.386494341784391
0.384986558489343
0.383529909806874
0.371625390124997
0.386547856175495
0.365252091013954
0.36639022680915
0.358834575946107
0.360320381082581
0.356738245440206
0.359830420741883
0.35553976025997
0.358505317260774
0.350191356517634
0.360102252769568
0.346426649306487
0.347873640319575
0.344477902215858
0.339245079832091
0.330527469260223
0.337361849102392
0.321432121042462
0.327101529030714
0.320737735175713
0.324620079106648
0.320660676337038
0.323715638779404
0.315084502787136
0.319576539637519
0.311570700022002
0.311758174365029
0.307838615457253
0.31151989143273
0.307914684442919
0.311853253819476
0.302461982073928
0.30645931073227
0.299075921033309
0.303230401496016
0.29661940018716
0.301039703336518
0.293408316573646
0.293172984995443
0.295438712508653
0.292959068108633
0.288379737183889
0.28868494461058
0.284717178502941
0.285035518487358
0.282667166991678
0.287121490506321
0.28275729415715
0.278612699523377
0.276481409570629
0.272658956854936
0.272843261425578
0.274042655027545
0.267583750313901
0.272423233353496
0.261500647424604
0.266640568349213
0.266803719814537
0.260767716710303
0.256790612857477
0.261855618565346
0.255230653796983
0.260114552287892
0.258384618734213
0.257305058138698
0.251981265647449
0.256469608890335
0.248739785022256
0.252342847081254
0.247809135592481
0.25194284999986
0.249391466946745
0.250751185788356
0.245866575954773
0.251127623480528
0.246132158899023
0.24674003752362
0.241573231626827
0.247957824579342
0.236932749627676
0.241993384879686
0.242547545603268
0.240890193314857
0.237218324830326
0.24123313438213
0.234118763362309
0.238146994796965
0.237619057510333
0.236582823769835
0.23517617305231
0.239500769972524
0.234405151175179
0.232968755409735
0.226896100328213
0.237100357230025
0.232173235177084
0.233277091255621
0.22693218320841
0.230154757857202
0.23011002777482
0.23052979409705
0.228479670253024
0.222887444603401
0.225475107496583
0.230788742664089
0.223177924102634
0.22572545778083
0.219886256694416
0.223362804307483
0.221602045026739
0.22693920936686
0.218640175328583
0.223831817936443
0.220114222177799
0.221828520794243
0.219081779073928
0.221939082590388
0.21817467336771
0.220590218171961
0.212432100887678
0.218437996533413
0.21200463387751
0.218051965599659
0.213319884477062
0.212983722120239
0.211356679059246
0.216525358660641
0.216602236940772
0.213379468204269
0.211210984949435
0.214391667054062
0.208037800791378
0.210818103451046
0.213320899859692
0.215306002073151
0.20821708605222
0.212097692631526
0.211522948059055
0.215350389491776
0.210495385530502
0.209840867353262
0.206923207814939
0.208170086203539
0.204371391479196
0.2127855910407
0.207663912414745
0.205001259855456
0.200143079068365
0.206405567361345
0.206313216626164
0.206598030736795
0.204506237378823
0.205903120407821
0.206891887720413
0.205657372004396
0.205862460667085
0.204150779255224
0.198235381542332
0.204221723474749
0.198159363607859
0.202007718960651
0.199192998805334
0.195254159162117
0.194389820529861
0.195614333788227
0.196737499374854
0.203024066889683
0.194176567525489
0.197672018694607
0.186451544103565
0.194232782018326
0.190855913871472
0.19510842604354
0.19385382427798
0.195529160079167
0.19024104263206
0.190410867847577
0.186838840036124
0.189491634745294
0.188876159395585
0.186986611617927
0.185142603620013
0.188853900609261
0.1845258301235
0.187344812328326
0.179297020663495
0.189787428976175
0.177822912270224
0.180809693877078
0.178970976791418
0.185145989131419
0.176496436569922
0.181739252687569
0.177572978961835
0.179831569032147
0.175954356956211
0.177166442475267
0.17809100360393
0.17840411147403
0.172936071287639
0.176652513262743
0.177227129343568
0.174946093720032
0.173591264657831
0.177281596674575
0.169891293038156
0.17672411483179
0.174300291568643
0.170321062957328
0.171048696111568
0.17540016592078
0.169895289747088
0.17163067420677
0.169458213557589
0.170715257369046
0.164778768831514
0.167230456108374
0.165147150414538
0.166335938147395
0.162787588056269
0.162601922149662
0.163231152978334
0.165396834243145
0.156984371861781
0.158707283638166
0.162727681243561
0.160840306718673
0.158407336284456
0.157414445584547
0.157322451305237
0.159205264786965
0.15443352030585
0.153098996196017
0.150636869253793
0.151644691712378
0.150675435345549
0.149737759315059
0.148634863574731
0.147981400517173
0.150546643902909
0.149029651984716
0.145712131420919
0.149244656930494
0.145000651389477
0.145378932488939
0.14628196294342
0.144721749571616
0.140954909357846
0.145718395969038
0.142776467463718
0.143469444564473
0.141007282422379
0.142998905222541
0.142128332603058
0.14351922781813
0.138638544102988
0.138156738817813
0.139724106556027
0.140950235377513
0.136564729314013
0.138816732011376
0.138706224752188
0.137934013558732
0.134237717801694
0.138623419712549
0.136291167065403
0.138149860009842
0.136590786604782
0.136940545149582
0.137279683638176
0.135992808954838
0.134717231931705
0.13502042213284
0.1317937848648
0.132996161033848
0.132736777538823
0.13148616025197
0.130794262329777
0.133712119620347
0.129275131721101
0.128783872717062
0.126955535771775
0.130809238210828
0.130453701609276
0.127099547131745
0.1261226560139
0.127179793077395
0.126716022979723
0.128353705699992
0.125102817554992
0.127910798692361
0.12562845269471
0.126020184714557
0.124395562496489
0.123662022664339
0.123559993471602
0.125939145361081
0.120502615758553
0.121420248761746
0.118414901406916
0.121488139224043
0.122521687476598
0.121211605119407
0.115853904558095
0.124829287394576
0.119868684035652
0.120901702085903
0.120066296520356
0.120615589306117
0.122588332564653
0.121558637265773
0.116632453656935
0.121661548974338
0.119239318946797
0.116937555183715
0.118142239571571
0.12079457911752
0.117182343087399
0.117335347382588
0.114381811642939
0.113386589687747
0.116898189959372
0.118974610593494
0.118653145597273
0.117075903591842
0.118306721284343
0.119491112374486
0.114289691867045
0.119138086106266
0.115794122870951
0.118829499985975
0.117828754481807
0.114229142937231
0.118607510712403
0.114976117668682
0.112630164940449
0.116368733364325
0.11414507782384
0.116348455219768
0.11532299980054
0.113428996070719
0.114549486462357
0.116261010851996
0.110856382370543
0.115166860308465
0.114608677779489
0.11182228892657
0.111933595660112
0.112464796979901
0.110438356165072
0.110861376536486
0.111142812472631
0.108957379393833
0.10790989631054
0.108811588942731
0.10921927230254
0.110213992060834
0.109053689448264
0.109233987307937
0.10666057121021
0.108127272718025
0.109040254259959
0.108183531877999
0.108319979548005
0.106453802167767
0.10520692114594
0.108202872853198
0.107090871456948
0.107418735184389
0.104860473038379
0.106703804950726
0.105944635688187
0.106034653780923
0.104258722873765
0.104068319415517
0.103960184712527
0.103838376217959
0.104248686500836
0.106050562807708
0.10566420591736
0.106067974392771
0.104332588832666
0.104871159956459
0.103632572309484
0.104912232988474
0.101349210753466
0.103196012991654
0.102265644132649
0.104976530915802
0.103908264278728
0.102818105629954
0.101071086555863
0.101784837546228
0.102607890425401
0.100017134760582
0.10064665046237
0.101892841180629
0.0999121902945319
0.100563945112047
0.0987063128136284
0.0993216372836385
0.100955518351001
0.0984950578910887
0.0979012306801943
0.100283018267639
0.0966603401791554
0.097578111212638
0.0978428841752373
0.0957477275786344
0.095212558728263
0.0965894386171973
0.0944667062978696
0.0947221464968178
0.0963741210320135
0.0925341214149876
0.0930094805419497
0.0970525017523751
0.0919764738519176
0.0914470511628899
0.0939173498496846
0.0950557589914845
0.0919813728998433
0.094006491508756
0.088278307049191
0.0917211163085134
0.0916025842726189
0.0910875608748918
0.0909935739591178
0.0897042250420095
0.0884376633038959
0.0893306404001428
0.0891573152087645
0.0862231255008241
0.0882411128844837
0.0885734667334802
0.087454532710872
0.0883338025875749
0.0884117311078422
0.0852122911684217
0.0870264126199683
0.0884257771145624
0.0857488319305737
0.0867347303521541
0.0866867195863165
0.0856625355009537
0.0853582108439996
0.0856020016392559
0.0832861462016326
0.0847234748039151
0.0879072818383063
0.0863235839267203
0.0882101675573333
0.0845641083048212
0.0834439040478089
0.0848367494942083
0.0819400136945919
0.080362810458229
0.0854715193924852
0.0804928194580009
0.0832880166171749
0.0815262336847348
0.0828446772183576
0.0823958081287119
0.080983954671699
0.0811235470546858
0.0825450701525886
0.082150594161663
0.0815225834989382
0.078912744341698
0.0789880198028302
0.0762874816881761
0.078663132842366
0.0786913752487588
0.0760045009097162
0.0757278418263379
0.080311325035521
0.0760007007293556
0.0764717722905717
0.0768332169614568
0.0770106581380837
0.074246746377575
0.0740347243224036
0.073747020100768
0.0741550476225897
0.0738768662641628
0.0730890168356766
0.0736874107319256
0.0771743296295497
0.0736409759875937
0.0771475238149921
0.0751680235039273
0.0746590640858238
0.0735677718193895
0.0750346941481969
0.070549276775897
0.0770290899528158
0.0733223868429928
0.0732872396671345
0.0723552351881411
0.0743695968175404
0.0721599130861496
0.0748627406234567
0.07203694496274
0.0747758605671293
0.0768758931650918
0.0756052072905847
0.0726803270409693
0.0785436053210097
0.0737640553667796
0.0772232496417507
0.0760823895094575
0.076189384015799
0.0728361686118006
0.078322578254451
0.0760776628685629
0.0815656421621418
0.0746154756987072
0.0769716954846178
0.0638487432552008
0.0680170212045507
0.0653067019078967
0.0782464642166656
0.0752511064742885
0.0750032428080626
0.0604682475683943
0.0666159269354387
0.0683105519422071
0.0685076338342406
0.059485315990827
0.0732215278518458
0.0650277486712769
0.0692767641434872
0.057651945280099
0.0638798697301865
0.0633818593830186
0.0669284847425562
0.0666414036138674
0.0711247753936903
0.0604793710324061
0.0795002034433603
0.0671880632743556
0.0730138646325273
0.0621614007474442
0.0796813559096842
0.0572146285329094
0.0752208807378836
0.0634049111359245
0.0730084164468082
0.0550957899157846
0.0765144846373805
0.0578223401662784
0.077412959408753
0.0528129427952038
0.077306153070004
0.0514046412526125
0.0741870002803831
0.0458275583330849
0.0716395329296097
0.0481462154373052
0.0808311034089125
0.0570741971419029
0.0855718805356646
0.0506113467629057
0.0738456077979171
0.051549936649286
0.0823998856988959
0.0606365896407488
0.0790214101671032
0.0569789212912155
0.0766007103294915
0.0706562396163002
0.0675177920305516
0.0727982650673372
0.0632867578882967
0.0854937836187644
0.0490889336502861
0.0840963053618556
0.0519040731404363
0.093860101069889
0.0469511062388505
0.0939269879925976
0.050294946143098
0.0854826264617491
0.0611834430990359
0.0779105088668481
0.0601716763843203
0.0717862714096179
0.0659079385884925
0.0682830855327147
0.0666363945378108
0.0659591321186713
0.0662464792107184
0.0686649572503766
0.061492231144974
0.0694698287125256
0.0612041412822465
0.0707943670693927
0.0591170359610066
0.0667284617007506
0.0602200742791513
0.0653732922284532
0.0601076026738116
0.0646585672029949
0.0619585740757657
0.0655699383395939
0.0614445846389832
0.0648825902409678
0.060226955932196
0.0665049083205583
0.0588434321136427
0.0654599224272381
0.0606621857254078
0.0650359959304572
0.060453517215432
0.0637417861645402
0.0611919700812166
0.06705874559863
0.0596750493060948
0.0642197787941397
0.0614782530038403
0.0640726215339814
0.0607465062011737
0.0654919185046484
0.0578719561331648
0.062645318973435
0.0623786077731207
0.0626619321056399
0.059077740144647
0.0655933178982348
0.0623063723918194
0.0648284499073455
0.0636804219187065
0.0661163458293239
0.0649357449957066
0.0700114708553079
0.0626396491091417
0.0650877945014137
0.0608018058221948
0.0653520642720264
0.0620061037296696
0.0633879889834114
0.0614008719904479
0.0640986812612892
0.0613596560055279
0.0642667382891201
0.0623037236289584
0.0661056914503027
0.061673424031774
0.0652055518306602
0.060785376333164
0.0635650047999627
0.0619537960534061
0.0640835160140133
0.0616765344150653
0.0633233887149743
0.0599158611307309
0.0642472408351063
0.0627962383236102
0.0611734682524146
0.061908994208747
0.0645941811740013
0.062939065059023
0.0645900626577351
0.06139468431414
0.0630412495997915
0.0594983225852762
0.0654659316105319
0.0608684181888518
0.0636682021839774
0.0648837928273875
0.0644564931289646
0.0611771586806047
0.0653008759999136
0.0616948129581528
0.0634259080159176
0.0630193046293235
0.0656693406630128
0.0634350583515617
0.0652715943502225
0.0616584837399567
0.0657071515689091
0.0634202138786729
0.0640240289278692
0.0641051161144448
0.0645640266970711
0.0621624555595574
0.0669254035088107
0.0640730959761162
0.0660906101277018
0.0651673205012721
0.0672770777587458
0.0626478475534256
0.0657111967339074
0.0653497504913121
0.0656106786780129
0.0652309821937534
0.0662063385448354
0.0639223816034002
0.0681886997245863
0.0625942378035317
0.0651684263767428
0.0672538533865915
0.0662019028197142
0.0652866448372152
0.0671166814350054
0.0654102245736376
0.0657266477997849
0.0657031948374706
0.0658819323464414
0.0646907533914445
0.0673799082462379
0.0651207383339542
0.066951689628498
0.0658613965674073
0.0673731874946673
0.0656008245632969
0.0682706097180834
0.0642433202124063
0.0650097959258309
0.0655361767240128
0.0650389083517803
0.0651029602415692
0.0697681216009922
0.065290832054004
0.0656645786467855
0.0662719070367342
0.0681424007846778
0.0651833611452004
0.0658412196407733
0.067651674206795
0.0684642348919379
0.0667952389734104
0.0652650238002715
0.067089395158927
0.0693734004755008
0.065065164758353
0.0685971222487458
0.0680248654559468
0.0696844590633962
0.068653125415763
0.0673855128369338
0.0680415696385226
0.0680670048420489
0.0693162704263377
0.070909062842068
0.0706117091836415
0.069555303617088
0.0677511764502079
0.0711240595309057
0.068579227975804
0.06931181030077
0.0684740167551395
0.0690972854481892
0.0692365797274915
0.0691291342414872
0.0674020989586983
0.069908554095263
0.0672229933039842
0.0695642331864263
0.070610614124642
0.0699652379707379
0.0680476972227902
0.0672308588300011
0.0675384138272444
0.070952996896577
0.069422182559861
0.0689866090839059
0.0687623152869006
0.0683223051052973
0.0686452505330049
0.0689531406562496
0.0676712201108209
0.0677363794039547
0.0657964514250475
0.068573731417471
0.0675978023785436
0.0662907288354368
0.0664195555814263
0.0678887285692562
0.0679637206635242
0.0694553110555669
0.0657731703562247
0.0649003441101834
0.0663434098088052
0.0661743268638879
0.0643469673748881
0.0660803374590899
0.0657444836269447
0.0641305498621824
0.0668701549337536
0.0703166589926418
0.0644570788618827
0.0657914005460233
0.0685567593138547
0.0670087356025039
0.0656850408758315
0.0658073424609843
0.0650227571083201
0.0667458526591734
0.0646959919720647
0.0655472151296232
0.0664931130522246
0.0639834609417035
0.0637664815985433
0.0670150722805397
0.0646412192393834
0.0653184687658575
0.065430048175259
0.0653408973074996
0.0646287681816395
0.065817418015007
0.0646283656852452
0.0650403479745091
0.0650024304088514
0.0635360624169959
0.0623654409993964
0.0646629107924803
0.062513101080591
0.0637849100524226
0.066658139860411
0.0644834679392668
0.0638020434353688
0.0673282578911124
0.0664102744818234
0.0655788548616232
0.0637373590484035
0.0637577320929607
0.0643885315173718
0.0650255931358444
0.062352976484399
0.0637738063999486
0.0656127920585909
0.0642451300793585
0.0640290981526097
0.0649342980248396
0.0629442914971869
0.0654602559127916
0.0645628298352814
0.0626659182945659
0.0634473149097972
0.0635868608082839
0.0625550844038998
0.0646002026557983
0.0646065444813539
0.0628388785515067
0.0643103667878061
0.0666884685926175
0.0651411886662732
0.0622454696065273
0.0620238961427863
0.0625727896725509
0.0615165219729072
0.0614760839826208
0.061329394454302
0.0625108122712615
0.062151993630839
0.0614870352437029
0.0613318759586723
0.0616493347050255
0.0611157342901208
0.063044815082308
0.0614335942528242
0.0618456259698009
0.0624421463432634
0.0596501569025044
0.0611122967920561
0.0615306684663457
0.05943369717897
0.0617515031467197
0.0642840293650824
0.0618189563318944
0.0620457914344504
0.0646166610235824
0.0616057336619121
0.0620826995157128
0.0608861769960553
0.0595124054076281
0.06154136377271
0.059631551716529
0.0602905689916645
0.0595566384857459
0.0587882414287966
0.0589806094299742
0.0588836534312867
0.0609483894268652
0.0577752533806234
0.0575908057757086
0.0590181470792036
0.0562559227952656
0.056615918167187
0.0567677987492005
0.0580984954212018
0.0581281901817919
0.0563427719649138
0.0568188723112731
0.0576978593802796
0.0571551438762826
0.0594738445820794
0.0620761881132607
0.0593971769299562
0.0550572691276177
0.0574090827574113
0.0561718386276753
0.0532621098810279
0.054481820200925
0.0517070182846511
0.0521293365088639
0.0537716051197753
0.0524384491223019
0.0521519122233686
0.0548506172510683
0.0535332674155841
0.0521956944367159
0.0534437661679901
0.0537111726137491
0.0536546179473129
0.0511722668072434
0.0526503697240452
0.0527085659766122
0.052433695565237
0.0517054436219363
0.052437546818142
0.0530124857746148
0.0500750854240239
0.0622809406961256
0.0653411173857574
0.052826445163051
0.0536866817277656
0.0558490399728045
0.0534196030930974
0.0529427982040574
0.0521768927563512
0.0510863317740889
0.0532608555716611
0.0517428862303508
0.0524407753063425
0.052953093969223
0.0519557969280361
0.0512611032996817
0.0511873773477469
0.0517322656374356
0.0514271462945985
0.049864895555358
0.0492449231013254
0.0492890432162376
0.0507544961769089
0.0517521499121703
0.0503223552200094
0.051410606668224
0.0494588575648714
0.051519550808339
0.0607547341456549
0.0574864258141783
0.0527936101844855
0.0498430516755699
0.04973827113246
0.0481463395190237
0.0496188472878318
0.0494360503658039
0.0496923099739727
0.0496800727744087
0.0502082986531382
0.0491859610748333
0.049229181481037
0.0493130923334888
0.0490022960334609
0.0490784060104753
0.0490177742333066
0.0463869877270958
0.0495044993402207
0.0486934064838368
0.0480261222317786
0.0476647540930953
0.0480078452370878
0.0509088117457678
0.0522268213856616
0.0442897168633841
0.0607774303491569
0.066692097201153
0.0545335849369971
0.0485384464056548
0.0497178087450739
0.0485381092799375
0.0464221246751709
0.0457135958255265
0.0494370644288507
0.0472994880982855
0.047598832044332
0.0477883763114149
0.046458213152194
0.0471432252934656
0.0494727427559656
0.0486598194802973
0.0477128202101325
0.0461428208917504
0.0463141303618056
0.0456764073469847
0.0455049622426801
0.0547151755265536
0.0660060096673096
0.0521147402896675
0.0495600255414582
0.047955749791052
0.0556477937325816
0.0724469749422078
0.0593528000987792
0.0464992621730885
0.0476569991357878
0.0496295411236353
0.0467318104425467
0.0476429840651334
0.043615865752302
0.0514419237019832
0.0535730245263215
0.0522102287632227
0.0509534068614882
0.0491517615841436
0.0452253400858448
0.0461761889044105
0.0476829798170374
0.0444857666071277
0.0463867876653112
0.04613835442337
0.0454120405200089
0.0465248217149047
0.0465394282802675
0.0450799167527828
0.044049822965482
0.0555499295050211
0.0543263340542007
0.0476228730770229
0.0447901334580267
0.0455785154786954
0.0422016547323388
0.0607114483704629
0.0595683085858147
0.0492421248417169
0.045015140648869
0.0441685247037632
0.0491468589042872
0.0487289539390187
0.0473831814951703
0.0458188851318294
0.0454482776315826
0.0432073992210192
0.0473308519271513
0.0479041781679113
0.0449306673055778
0.0454735066883475
0.0476064050534989
0.0446379621277653
0.0470964402904216
0.0450122498505592
0.0468186391602029
0.0473358158102617
0.0502674232986265
0.0688747978823081
0.0706163849209221
0.0667887153726244
0.0577669594778104
0.0559015212952008
0.0467078978167357
0.0466338946767074
0.0453105150945077
0.0484468441007569
0.0481137795031525
0.0503833318144702
0.0456949086599042
0.0484822349184916
0.0467127535960307
0.0476936536601744
0.0442487355906018
0.0466764473149449
0.0436326586849658
0.0463019473210306
0.04412317298992
0.0477825292893444
0.0446319368225562
0.04731184884489
0.0559642095467074
0.0561608359494665
0.0474675128230574
0.0485339520406297
0.0915931479113233
0.0675128371092134
0.0598165619168981
0.0487463563813623
0.0508565108841297
0.0451011831779133
0.0448556563160713
0.0488157992579259
0.0561361581430022
0.0505178049572573
0.0488613179869641
0.0440734272206959
0.0514832488564163
0.0464199657693755
0.047588903514715
0.0729503550605648
0.0842814502564937
0.0586384007355941
0.0549277436470237
0.040983865258382
0.069999868607799
0.0743585520549185
0.0547060503797081
0.0508087356048027
0.0503924982884958
0.0482863296939353
0.0498037045865438
0.0456219535081083
0.0497966703661994
0.0562055573842125
0.048448837855327
0.0490776572525934
0.0477183714079416
0.0487607015932051
0.0523322252397147
0.0513209658621495
0.0638317867283738
0.0563367203290198
0.0501229925458334
0.0590035257380045
0.0540035679520939
0.0497261898302544
0.0510533196468647
0.0494017803475529
0.0471056624463235
0.0691258422208246
0.0665835734551595
0.0612292370712516
0.0744382816816414
0.0612680360571783
0.052344418050289
0.0569632780953637
0.0637438308601598
0.0624418165045683
0.0449139238425465
0.0852044817860518
0.0770271813356733
0.0923271669283859
0.0659856528512802
0.0594755913361075
0.0510733323375446
0.0559917537906446
0.0468099916096719
0.0617730830347002
0.0738096114850219
0.0556440175265587
0.0569857277204473
0.0476304349334337
0.0725610024240864
0.0649651708765134
0.0651543707797999
0.0576013016226083
0.0552961636544814
0.0532612048150178
0.0809228708941854
0.0526826615489607
0.0702670661956876
0.091667831708355
0.0945404930254163
0.0933548781093398
0.0578831479075678
0.070962548881748
0.0863308217795236
0.0694891198899439
0.0648673801357048
0.0529976281531238
0.0650472313543119
0.0493317040620763
0.0802945343223952
0.0947060542338111
0.064729876878329
0.0657909613398328
0.0645089963419781
0.0679174306533605
0.0901504879653489
0.0761349125919551
0.0624974820042531
0.0629991118561254
0.0645098782662515
0.0673696811489943
0.129534534911415
0.0785608306305021
0.103283970024425
0.089018200684305
0.101694553755204
0.077572784862258
0.0836391569196456
0.0691242958762319
0.0989343912844854
0.0904234247030842
0.0815518283751209
0.0619293930827161
0.1141321146754
0.0867965636263752
0.0843150997563295
0.0779994659591162
0.0784093707682887
0.0812583301874861
0.14450562944766
0.142595540798971
0.120579207284593
0.08136973307121
0.100866278207101
0.111789186911788
0.0937454445695589
0.0866061951617851
0.082935007208338
0.083636935218043
0.0833514924618782
0.0859179464570674
0.100585311809198
0.0851185741323093
0.0976073656065982
0.0839141827192154
0.103891512020385
0.121511885283168
0.184365729243989
0.122979486488804
0.125185276598083
0.135477563712886
0.126419814638025
0.113016769804049
0.101420102427383
0.103386726008651
0.113679640800014
0.113448555708147
0.105960914764312
0.108460914140436
0.148355789551585
0.115957166609897
0.15697527371301
0.125065923161681
0.130681298300883
0.113041289651343
0.178504028347895
0.255385563765636
0.155720826835083
0.157004064556756
0.129772041497484
0.196041426329603
0.191741635929201
0.157101423457795
0.14018775526471
0.142532089882279
0.13559533661731
0.158410610379482
0.161388823170808
0.168027072169113
0.178920851940729
0.166872963234911
0.164214532932549
0.21669616561486
0.253333096123049
0.259113010770776
0.198033188331629
0.198157071674163
0.213368119452162
0.215317809650407
0.200180437224677
0.213465883915407
0.190589814424377
0.258931386578972
0.247300740527471
0.242058183605071
0.217595412074323
0.251445034406276
0.256558925864291
0.243867114396349
0.308772468521432
0.275202991073539
0.275355335896111
0.246176151821786
0.27862075167239
0.250634459346408
0.282242430269143
0.306386344257668
0.298991774469235
0.287696367364402
0.288855228850972
0.291297505397439
0.291527408225452
0.302656055177546
0.299343448918337
0.317715625232299
0.342407778522087
0.351052567077032
0.515232405743111
0.332180030434968
0.329478067654114
0.301823225197691
0.341840788640901
0.351202747666672
0.359223827311513
0.382910511410909
0.340235036543141
0.325887575303348
0.311117234274152
0.322771818200725
0.3221799238368
0.331102074554364
0.321102636323916
0.317651967784785
0.367381052923533
0.313740279685944
0.434946584414098
0.361735477581917
0.34672391013533
0.311309176122507
0.321302918367321
0.302244607752931
0.328763970757967
0.299090119504766
0.342084539336284
0.321451355459582
0.324025515873115
0.298955809408284
0.310854760721642
0.342022120943067
0.329852256012483
0.305333637333017
0.300425610265496
0.287671951292712
0.294640256931492
0.269931514719901
0.338253445230695
0.316661606705116
0.299007488822216
0.271719868148073
0.272922524042335
0.271378285505841
0.273230730973217
0.263498871541657
0.285637816864597
0.264254141932503
0.271882479441174
0.264904300105272
0.258835757783198
0.257323603602909
0.258652948292943
0.261189885037725
0.259062621941415
0.251945352162164
0.257306383693378
0.250063344031377
0.250800477856081
0.245782249019044
0.249133045584542
0.239729816155096
0.255288507268192
0.252590783693013
0.246652469700809
0.247910937763913
0.244094013542892
0.24433945815963
0.244110095649977
0.236355327031565
0.23592800002995
0.238076299732401
0.233510103601386
0.232318284547777
0.230659468775236
0.229482650461842
0.230138877426765
0.234313288847401
0.230365209446785
0.233863537886157
0.22898691908509
0.233768989674996
0.30743449688706
0.233100798038177
0.24417740566378
0.210895385747147
0.231510142594739
0.207351039926464
0.226291707018323
0.265120637566474
0.237213428980415
0.217182330480216
0.209299371163269
0.201096694176289
0.236638136193846
0.204175547771355
0.2075637236748
0.196819494669472
0.201684843119606
0.282113021475854
0.243139755382459
0.371005650876888
0.263926613286046
0.227345871424424
0.180572842183248
0.244916699242487
0.214464043042034
0.199368035609169
0.185830127523109
0.182119562553279
0.244500085294513
0.191003998266257
0.192438851391602
0.17279886468729
0.177877695335737
0.221001021900089
0.221148080868087
0.194229440022518
0.231152495151666
0.214689560215736
0.215944444045273
0.249290784587346
0.266850735993577
0.202698232492335
0.174023884251597
0.182551023352384
0.161825181462059
0.204218559032541
0.220215847099038
0.17857794486262
0.197859367939794
0.155049486934379
0.17261191460274
0.166779808748492
0.209152160711635
0.159091844062043
0.207409672198808
0.194992504377951
0.164533338182298
0.189340750899095
0.187477766580681
0.244478893343377
0.225305407002572
0.18195401983036
0.150758243610358
0.234257697460347
0.194493967472464
0.189409229302114
0.185649057008325
0.1415007660223
0.177741236773393
0.17616406404012
0.152894068926185
0.194910248594181
0.178561406167397
0.215859051081263
0.242418159726195
0.263355604745452
0.228552626547619
0.167307495849202
0.160585759177684
0.153396001811899
0.167237230455901
0.16116271214039
0.151612194108511
0.222646927512385
0.155098004378478
0.189393127894006
0.209815522243417
0.177890776961579
0.168405310586771
0.172010058403381
0.16776238846667
0.186341196456345
0.212566230653815
0.24190037405794
0.188164237938652
0.227974403986527
0.208448859251317
0.202346936347305
0.189708849243744
0.199526458344864
0.193633195347919
0.210057445124234
0.219249290403522
0.214858250058844
0.218273859382976
0.225529583044662
0.216720684461766
0.289276663520383
0.255411918640032
0.253919270287422
0.297977440981843
0.278887210556513
0.340161167437718
0.272800494649876
0.283775851127447
0.267841491524817
0.281841762399778
0.28503494380301
0.282480030814247
0.326383461673224
0.327641490495299
0.311852314997911
0.313262333361651
0.306780080332574
0.319042073236475
0.323229860950039
0.37322405592425
0.344792557823473
0.457628054381865
0.361429930784601
0.385438092431148
0.340892811388111
0.341310276792388
0.353399246477209
0.347540483473866
0.343078800378671
0.340834350602625
0.351775065474937
0.378953162560099
0.345609367366314
0.360642930973139
0.343014251068976
0.354522984961098
0.348992663239677
0.359074710486184
0.357851081743712
0.361797957530959
0.368539198624977
0.36470000494639
0.389050514394744
0.460717892309044
0.387048442611417
0.395022079158338
0.379541594963466
0.405924507111846
0.381258840698093
0.398726721928038
0.421299545188542
0.40731084273383
0.399298322329227
0.401461032125863
0.40294136602517
0.404882188848258
0.43058073780881
0.442372908809072
0.406102218727408
0.433637314871913
0.395288016181365
0.511571995479781
0.430534318528033
0.463136791526917
0.436497257482446
0.441873080062232
0.420488278130434
0.435388461200985
0.422745553781831
0.430891665983564
0.428694716324858
0.429566511936637
0.426870310903981
0.424548106522255
0.425977711807115
0.421135468779475
0.429751507098109
0.460620077341936
0.426616995102573
0.430206593641817
0.417304647781707
0.421487840370027
0.409287085817588
0.45620926632439
0.429004445428209
0.434801952237185
0.413863744759157
0.440077914619448
0.451490716022807
0.435252534972361
0.407290126112464
0.426348790588929
0.401791820756081
0.421235138610614
0.398616843559835
0.444306100260277
0.44508901371066
0.43439660812651
0.415820215593675
0.425163720768918
0.429675681355818
0.431778184583875
0.429905679977784
0.438950394687084
0.435804077242512
0.448438039282694
0.445983382085626
0.442422300436349
0.44459035175032
0.46258757260873
0.4733682678938
0.470964195937428
0.447253168610405
0.454879468824493
0.441360248901778
0.4591863342269
0.4503265028046
0.452671253378157
0.438982582251562
0.449383648428708
0.431171140425404
0.454388388018749
0.462055894650489
0.440344480482483
0.454292116247509
0.419961986954383
0.42323091935846
0.422201579297278
0.415463079652245
0.412150832130801
0.412884736588773
0.413924421182506
0.404873622023615
0.405034828745474
0.396398504344177
0.40373959376523
0.399309048875312
0.406293109443325
0.398803227802666
0.399876074994527
0.399365277276823
0.403834891622356
0.392815040170688
0.399672894824117
0.39209921921398
0.388464325043638
0.413293757752951
0.412244949257595
0.420755361738643
0.396247415328596
0.410519114234796
0.394230454584404
0.392451509291383
0.390798368845976
0.386416730013519
0.392608092385075
0.389413532041439
0.389538026426217
0.387583669110863
0.389131657000578
0.382274886612979
0.385315911939224
0.381141544930303
0.382654199134692
0.378944297241182
0.384557387176432
0.377811689066915
0.384322611856369
0.376998754528312
0.390873202373029
0.374713773716952
0.384202382113631
0.375132526875741
0.375819321979777
0.37393914784894
0.376568273149249
0.378264015077394
0.370848890953308
0.367385728992164
0.36952032551098
0.367858366797342
0.371131339715719
0.366512387739847
0.366683419137695
0.362369846796481
0.366418441833924
0.361231209013175
0.35995555849696
0.359824154841013
0.357496482462631
0.350581983767829
0.351020870817826
0.342612548549644
0.347325134841749
0.338804857742562
0.340189833229213
0.336250561133303
0.336964320287594
0.328568680565146
0.328579526763506
0.324618891611747
0.322658391223277
0.323789492251268
0.325160718117403
0.3172670868858
0.315577988707477
0.314550384903089
0.315912003386693
0.314245011340968
0.315973374708374
0.312448572602112
0.314606226687738
0.311880254501632
0.313555356687527
0.310484553697805
0.314967701167123
0.312847125298553
0.317092654677575
0.316168403672943
0.322056579275537
0.32295170258312
0.322733372437569
0.321994188597487
0.324508503223886
0.326372140945566
0.329467653031523
0.327891296591476
0.331416515158509
0.331070347419276
0.337258670841364
0.333242550515885
0.331432279319193
0.335694183605333
0.337693451598912
0.332982503752306
0.335509162262415
0.335943843973741
0.333119555376994
0.334827142921847
0.334636887353599
0.332400703047935
0.331309082782197
0.331662513068738
0.333258719142408
0.332234249260708
0.330582889780298
0.328337595821063
0.332282581968706
0.328399906251161
0.327510937029509
0.328084119395006
0.326598245336932
0.323376280315897
0.3235642432125
0.318792816917547
0.323595674212347
0.320276436390055
0.319881977853124
0.318241156858211
0.320668657005507
0.316595000750682
0.317357799854204
0.315887289250433
0.312592404233891
0.312303273762135
0.313063486219682
0.310976875105054
0.311626762197638
0.30970024379197
0.30733737650986
0.302080648778947
0.308081991124524
0.303507438277058
0.303177843861884
0.29906432560882
0.298549639536583
0.296983963871728
0.296092116141912
0.291156986928748
0.292166533399561
0.288680784209869
0.289595869957871
0.287246286957838
0.286785599462826
0.28547315848182
0.284002291470704
0.281109050847292
0.281488892074187
0.278490975271609
0.281531931899805
0.279440376155645
0.278798839701795
0.278811949828544
0.280368289384109
0.277719511993597
0.282039625272993
0.277935857197338
0.278556301985137
0.275442486189725
0.27431903712562
0.272403339393786
0.269021313284253
0.263889410887003
0.264757977836268
0.261435867405182
0.256400158982901
0.253747493284113
0.251717843093706
0.247446253074058
0.244385069541023
0.241372348721383
0.243477091835278
0.238567928501422
0.242098051088154
0.244912180211014
0.249884903254946
0.249015451552744
0.255339693802333
0.261491647863494
0.268181028319545
0.275738458796622
0.286038405818385
0.293764300646363
0.306259441807419
0.317570759930658
0.330898848639145
0.343298279154742
0.359801700730989
0.371632034519092
0.387879248447153
0.399711024900093
0.418263169625922
0.42964873082602
0.446352528826871
0.4629422203455
0.482431548810258
0.495134025197206
0.514962348549686
0.528193394789799
0.549356382195474
0.560184480267006
0.576019249200611
0.590074761191598
0.607323204415637
0.622144800369458
0.627344206665461
0.642695819489987
0.65679863827801
0.656778594091582
0.663672169245111
0.670108021866566
0.670037253205129
0.670572461425521
0.67501397343135
0.669615036989286
0.670443327596107
0.669244780832978
0.664339543904947
0.661363158999281
0.662022112952111
0.654413292760856
0.656723046213889
0.650157727152541
0.643022443936856
0.643362217125865
0.647503181264299
0.65158198881801
0.647450139185254
0.6492033369081
0.654393892725568
0.6593119112914
0.658720557803942
0.661068224047225
0.672317226603189
0.670057842735254
0.681232873610743
0.692225314358629
0.704382793882944
0.709385839746663
0.717501363677267
0.724691716521724
0.739354090266206
0.744163567567534
0.758090409002875
0.753500082310823
0.765907219002613
0.771772630442479
0.775401943960803
0.77194718690197
0.781050204933625
0.780084073170934
0.783553094639836
0.785516236372886
0.78028592476566
0.785128462853775
0.78853508640062
0.780076049457103
0.781527929358763
0.789966595720977
0.788471842432282
0.800077672428922
0.807181979546267
0.811958504333533
0.825756525115461
0.830250887286383
0.844929182828318
0.848180544904256
0.866371692058751
0.868836962418566
0.885084081771349
0.886397901657492
0.892366259732207
0.901583895637939
0.932003278067359
0.932899284212867
0.954540827932092
0.979549217947551
0.995704832857155
0.994687460035731
1.01997549348417
1.04912004063829
1.06009850138215
1.09561730149327
1.12478386101288
1.14242167789213
1.17710840269669
1.17811822185566
1.20554871846988
1.24583918187893
1.24609059392951
1.24707204406374
1.28093410902586
1.2705004514344
1.27082825772851
1.27518560072758
1.29069194240449
1.29717965354526
1.29210610047632
1.29056627144322
1.28117756915602
1.27918315827414
1.25939174321359
1.26592411070717
1.26125178864582
1.27201872940226
1.26344573168985
1.27112851199214
1.29200509301609
1.28744549690212
1.31502485253097
1.30983010635607
1.31158225464537
1.31818500787588
1.32823025140335
1.33273752167379
1.35369100180831
1.37770649727608
1.38099860362695
1.38541524443667
1.41661007139622
1.43379676368111
1.41983319262236
1.51140899946293
1.47890106446155
1.4403428829621
1.4891495321743
1.53337738746499
1.52101841636798
1.54372961636829
1.57682792577209
1.50948473587071
1.49430416430605
1.59005835240189
1.56867280703312
1.62179521761971
1.66074594809943
1.7242380292407
1.72880796089662
1.65606549334242
1.69756100144108
1.71997940152049
1.64549830336522
1.66987650622722
1.68678719552706
1.71009878616587
1.72017454891666
1.77191893455832
1.73866263321733
1.77726583103543
1.70077865446173
1.68743597325865
1.73815873679885
1.69345861048794
1.69520432283107
1.68441150404165
1.62042308589327
1.63351260611433
1.57134602401334
1.55194826389694
1.478666847424
1.45398721946489
1.42192967053786
1.38245239494991
1.30596743559229
1.25790467401649
1.22889210622634
1.18713432177553
1.1640831502101
1.13869976403678
1.10855167958209
1.09139898556013
1.0777041895309
1.05925599602544
1.0359774353322
1.02320098220858
1.0167355002674
0.986473515174995
0.973800737059488
0.960366196372018
0.946877572662116
0.939148641434331
0.898479376273095
0.877932385059519
0.850053615976602
0.831842662318578
0.788808286262888
0.759056602268457
0.739620092518877
0.693840410353461
0.671999170033777
0.640977217403887
0.606798252493313
0.586237161427326
0.554709706923963
0.520809365304297
0.492881746004709
0.469783091649446
0.443232376884533
0.42954944153627
0.404588185038298
0.381285949940469
0.365840636916211
0.348037589729244
0.333921163575532
0.31975809099429
0.309132347142109
0.296665454468457
0.289286224690987
0.279903618210546
0.266278982963731
0.262221162027802
0.257482384664361
0.255137574494685
0.25279240881741
0.248950107320511
0.240913996278164
0.244621983808175
0.241589705950282
0.237576940125992
0.240409284142222
0.238969084907124
0.235452188923253
0.240420796960823
0.23893771934747
0.241788941301895
0.246849223112084
0.246697109545765
0.248000880970036
0.25079490141817
0.258778935008533
0.254776849665609
0.261854916791923
0.262405677323263
0.261412190088968
0.266408592586236
0.264433843693886
0.265296754428377
0.267949486340393
0.269166309525015
0.267936858016015
0.270398781422161
0.26890445176557
0.26640851021297
0.271967852464691
0.26677965628283
0.27245309954203
0.274376447763207
0.273733431212843
0.281109151879714
0.278031706680869
0.278252103154294
0.282289613259666
0.283538267698377
0.280218050333132
0.28261970548816
0.284550707721275
0.283062958819278
0.284626064492361
0.280925634235185
0.285134181447104
0.28618488293113
0.283389044616173
0.283960901706473
0.28760715945521
0.284329381001986
0.28031984726913
0.277155602254879
0.276845408204749
0.2839567672139
0.287126140207005
0.2847055807996
0.276401827053666
0.290715389460724
0.290058593598778
0.291979714785999
0.293111078030457
0.296380442066099
0.301291011390852
0.314433512870205
0.321554529886526
0.324844185545177
0.335367810549093
0.338882424805359
0.344678021020844
0.3554338551062
0.348082052257608
0.357664167237007
0.354130740020105
0.355584577953941
0.34305122273653
0.333868589548777
0.32893209223418
0.326461394202479
0.324329836821681
0.309992064233926
0.305022956145752
0.30742950156276
0.306518477464412
0.296721922695144
0.29528394024899
0.294116850746988
0.303604913448909
0.306663065848764
0.303656260175694
0.316371918010425
0.313568777671768
0.301173921634569
0.304489986755488
0.311725740104796
0.29370010148769
0.30201392614108
0.298269616997203
0.298538219728954
0.301985297958962
0.29715230225976
0.292878811275616
0.301813096260304
0.287018622267734
0.290190763398169
0.300182057130925
0.296348056347563
0.285441455062515
0.29367503604985
0.296687624183916
0.283324605082143
0.285186482651183
0.284966754259793
0.288693817150421
0.2929135745768
0.284575328050298
0.291968779170575
0.282550298258907
0.279159555394617
0.273942181966482
0.279401700390146
0.2724713779034
0.278650407283314
0.280766169387683
0.277022574965312
0.268314220590924
0.274961010958976
0.267015388295776
0.274582718420413
0.274549476702474
0.26015712410219
0.260578368472929
0.268811841100347
0.252223161793876
0.250487988605221
0.247314094474729
0.246162625784337
0.256747700136234
0.258007675640939
0.250099042735604
0.254806193374985
0.243036598393273
0.239666614845062
0.248878515689072
0.242434982846122
0.250849036521778
0.25926474517858
0.245203080357477
0.241216753819709
0.246152156763354
0.245862061367574
0.245361079760329
0.267543943647287
0.260898264273193
0.268241072250678
0.262915409486302
0.264568780686176
0.257925529821548
0.281222572505772
0.264298497286762
0.274095688130716
0.269742872868076
0.283868312907128
0.275999531289226
0.292095316792786
0.284602375479476
0.283835591830344
0.289504150494659
0.292807745275388
0.314613907828604
0.316566120519903
0.303560241385313
0.322249984297387
0.317991545714482
0.322876928970788
0.333825244125283
0.354806234424791
0.35421299660764
0.371643507252048
0.37310849928734
0.382017920284113
0.400183591026587
0.421340042948853
0.404720976099242
0.41422679662336
0.422211925751884
0.413619528329616
0.417680141508225
0.447845478558506
0.452955990321487
0.454599510037444
0.455657419147601
0.460378492861937
0.458060791051761
0.459507106295238
0.435694434701918
0.443165554724744
0.430729691792039
0.439657694214501
0.467234140652351
0.440293070234647
0.413781700876755
0.446721878259725
0.449826249497032
0.452018952751295
0.459041589024587
0.42912608486424
0.435750395492764
0.452054231974549
0.44018268325052
0.447641961961991
0.437902433252637
0.432990319706174
0.410450530984211
0.440217813847914
0.413597670906975
0.415739406913333
0.441117214710848
0.428997650545989
0.405157696206116
0.424060349197685
0.399535853884604
0.404055701688852
0.417727884216061
0.399899346262605
0.399636322691105
0.408353765076439
0.373863905160587
0.39689777109841
0.419696557325583
0.424216034791859
0.418475017213994
0.431588184871596
0.390829648665239
0.410904298346551
0.4019306067911
0.40358315932236
0.413272934775349
0.434954747883351
0.411207929583713
0.429540643785735
0.400619855396318
0.413362910844347
0.425357708723573
0.422683348978864
0.416339927318745
0.447287349584591
0.43627094956191
0.403507565333132
0.462974433904724
0.428427430034791
0.363746585495502
0.410021713914976
0.424880862731555
0.438736149449998
0.465391254734666
0.478180585352404
0.46851615684615
0.488840875630301
0.467585268025744
0.479528569860923
0.506944806913844
0.453469483377918
0.522991632051667
0.574949371806978
0.493460703765443
0.523281642633291
0.545937600293236
0.4901651765782
0.573988144533074
0.582292106457876
0.490352687114523
0.574417018764513
0.573535018462523
0.575797582914976
0.573740662516561
0.558822908020731
0.535948824836197
0.536968313423401
0.528885274525045
0.568324454982688
0.609804457602153
0.562400893718735
0.601208085702207
0.657739602144776
0.579901178938811
0.593410807097457
0.573420618762043
0.517772594417135
0.456427490627602
0.530765246115695
0.586815295708562
0.506639519611543
0.564488152326903
0.533383060523466
0.445099432040118
0.539496841395361
0.554846505543657
0.560510265033316
0.594867922628952
0.49846732906752
0.592978953177739
0.619309578879533
0.427230403314508
0.490093325360442
0.639014253757738
0.6284284829509
0.436321975861016
0.543725151263546
0.50090635085413
0.553313741938451
0.542676033610531
0.567434530264449
0.438806399849572
0.48420077957578
0.408983791838742
0.506142158953621
0.483707990510874
0.407744352179321
0.609303103812625
0.816752064254451
0.676035391926163
0.879975806291364
0.544746396232715
0.591139591109635
0.7311136653547
0.657542493212703
1.0135069864377
0.864456850621539
0.427272183895021
0.288767247030452
1.01254813145414
0.814947759066057
0.497075617473731
