3596
4000.36533379555
650.420452594757
1
2
2
0.0949678289448461
0.104711961576084
0.0912423036709153
0.0959732449407539
0.0985512280314332
0.105699670559543
0.0974818472154139
0.103183096481823
0.103684024910633
0.105879876017688
0.0966470962084377
0.0883709337303762
0.103787678733127
0.0898041725682084
0.0935785375787582
0.101013970839351
0.0978231474363269
0.102206083645445
0.0960538292102142
0.0966543248499915
0.0867550691985171
0.0913693622399637
0.101081033984258
0.0965125885575125
0.0995022525959793
0.096907863356396
0.0964840617807477
0.098478650298547
0.103278699454749
0.102559879139978
0.0905379200363937
0.0986856252409917
0.0919515522867221
0.0927185918515601
0.0985588693695182
0.100325071478893
0.0939559218110779
0.0955182378271291
0.0893049592584574
0.0998409303412369
0.105394385820955
0.0957681265872036
0.0935892356845482
0.0960177722064251
0.0933663330652511
0.096018427565327
0.102692253098799
0.092775686154864
0.0954174915751533
0.0995146246575308
0.0982354254220493
0.0931366538500322
0.116100277112082
0.105434934850127
0.100202604600888
0.117744209057188
0.0965894656912384
0.0987293456278869
0.09610192092299
0.0968211251579813
0.122044358081559
0.111507861730841
0.0879609819045059
0.0952049521722232
0.0895113882644526
0.0976571134849666
0.0929809509186647
0.100892936536528
0.0894162909627153
0.0978920206260856
0.0913391338731235
0.129340383293194
0.111194420656255
0.096557915951151
0.0937857523436316
0.0955766856215048
0.087840170497072
0.0929937869959975
0.0857774433002813
0.120585515553869
0.104669657692857
0.101811237671692
0.0997366822428922
0.0859310689394296
0.104786065838771
0.114196105421124
0.0869220689428215
0.102742601585297
0.118592191102322
0.10058608932318
0.0943735756504211
0.0864884313803858
0.0863608030678902
0.0891458736328216
0.0846081593206813
0.105774009738353
0.0884642508909336
0.0900013332031528
0.0819363625216803
0.113099702949958
0.106315522335777
0.113271523731524
0.125080852701197
0.102161643098504
0.163892725326712
0.113303965839951
0.10503237915049
0.144619746053529
0.104554515046469
0.0899896773894558
0.0917310358018631
0.0935092429088437
0.0900703277137251
0.105946214356669
0.080519353334807
0.139338819947743
0.129047271298721
0.0999285291762978
0.0894302897395168
0.0949419712599708
0.0815293904471098
0.146611913299368
0.128069930540149
0.0950759348515572
0.115227132327497
0.0998570376667025
0.088569914540256
0.143956698508486
0.112883566117528
0.0958341915414987
0.0868889319323246
0.0859763740943461
0.0829599271965786
0.0923446291604626
0.138344037336375
0.102328534307837
0.10089468691897
0.0963925864078265
0.133511543337162
0.155224265066586
0.106505125889869
0.0978650352291151
0.083456901326319
0.115853829679384
0.127782839722868
0.10656782110316
0.0851485764346937
0.121932851033224
0.10364536387092
0.0897443639934992
0.0852341219257427
0.0885415748515579
0.109465772678543
0.108677036883091
0.0607309773738175
0.180497317422392
0.171975885016789
0.134275782505525
0.163333967248998
0.0855514653136155
0.113056398261402
0.0870628205129249
0.0909827615467573
0.0861177186326482
0.0963567438183165
0.0775503895863053
0.108863269700872
0.124334792943129
0.0848793841005671
0.0931851948667142
0.134666059355364
0.119430582731203
0.096334160174983
0.177974186770405
0.102634160627564
0.0910756975305926
0.133822004132463
0.10293830121114
0.0825136313369804
0.106556415766789
0.126444157803799
0.0837847651330796
0.0855916355681341
0.0793763680409944
0.100349636482287
0.10920230155502
0.0967999370227465
0.0948806779218672
0.0968500202095023
0.0777888214610194
0.129560142537857
0.151264168032881
0.130042377831284
0.103004162863257
0.102183941935049
0.0608384382066069
0.147421667077261
0.120536230060772
0.0935750077648784
0.082707559124738
0.073105026984493
0.0853679747316256
0.0853623993444529
0.0814243042227356
0.0868311721483596
0.0734591390558595
0.14886019581747
0.108413592615073
0.0875174106156996
0.0750404778101237
0.102706432588665
0.0980471921931303
0.157007635463388
0.11820299683403
0.0824071723503605
0.0959447324621759
0.0872486349635057
0.11104019537604
0.117522380860816
0.0892996739731633
0.0866874705559247
0.0902693542210628
0.0871454374847987
0.081213256751813
0.0861910865110514
0.0882429391256057
0.0811322796261475
0.0865768751828861
0.0915789860698635
0.0889776901848264
0.0991604007264736
0.0904315357411479
0.0845043099235751
0.0905327011724976
0.0850508014233418
0.0968410010107214
0.120744928531137
0.0875389176895953
0.0976940835910777
0.0870965985202246
0.0952200693579392
0.0847193782566093
0.0907314935074995
0.0872389641217261
0.0899734466551027
0.0796981733809475
0.137877304229293
0.0933224751075532
0.0948338562198422
0.0779732595423888
0.122629145446424
0.10462216682865
0.0910007692778196
0.0851860753223873
0.0911680079797825
0.0816569442192336
0.0925047334995894
0.136702775871409
0.104779660984608
0.0946641792906334
0.118713884183729
0.104065537521921
0.0875902882693717
0.105666220688644
0.0907364605029969
0.189197743605008
0.106908818735019
0.10247221399323
0.178587067613114
0.115822159823339
0.106281042668269
0.101129828963083
0.0731511592031474
0.260712419809307
0.152008509478196
0.0958348831962653
0.107166682624884
0.115690343515304
0.0902460563184559
0.112650279903149
0.106929301581789
0.120165459186354
0.133553059007859
0.165094640172962
0.186533279619888
0.0759701553067153
0.157148118205433
0.144778426761082
0.104819420227363
0.0945600540189349
0.0979347957720573
0.0981914840823875
0.13225256796045
0.122125198961078
0.119943213236473
0.10708087755871
0.0990164747982667
0.150170170591862
0.107691717198809
0.107135724774598
0.111981423098684
0.130632367802101
0.101485989297296
0.108161291474462
0.0965234006041805
0.122816192711248
0.100563867188079
0.115570305816287
0.180666294234023
0.11651709447299
0.107839158441004
0.154229518072369
0.109933718419325
0.115626555884562
0.100314390916897
0.109192613673895
0.102101361745305
0.102880488694946
0.0971561222371428
0.151145971364443
0.116915238242744
0.104092942587495
0.106480139950408
0.102750457916906
0.113342110681312
0.110594055659207
0.104568573624745
0.112359011466035
0.114282815682503
0.107236897127226
0.15261618029034
0.153820523369856
0.0999116335186813
0.175511904422876
0.154659854951928
0.11451125398195
0.120325560383899
0.11334203980364
0.121823526472137
0.116320083645178
0.126630603197989
0.125294985974505
0.133208816409918
0.147448376110102
0.143459568877649
0.12452917842622
0.14662357958656
0.221574697725783
0.216680329072014
0.141355441066491
0.144411290244692
0.127160769273847
0.18578559246971
0.178710454658087
0.166448607947222
0.183996334564046
0.131252606904577
0.153677965572916
0.136043884157044
0.153846246556702
0.147834950573595
0.160017573954532
0.151596743201171
0.165253544558424
0.152349774709632
0.168113509466785
0.161965438227229
0.183249060896322
0.21155562650635
0.185684915671764
0.163732351172068
0.174431839585371
0.165644809378053
0.226452095317151
0.230034008453891
0.242343974742621
0.231744404826083
0.225074209549218
0.244152682898671
0.189811578450201
0.200105525109084
0.186436588892601
0.202354791651471
0.204542420245714
0.21007087066644
0.201168550417884
0.2093611539188
0.217042014445496
0.225824054665257
0.209783153512103
0.226937632101191
0.218330150985653
0.25879552699033
0.230604597012825
0.237053957944833
0.22776206087227
0.270667861157615
0.323982599822973
0.30234951612465
0.248555823760188
0.260780321675379
0.261543677797999
0.246287837573308
0.263654540105074
0.262459510530954
0.276927530487502
0.2728563686223
0.322439424016388
0.309109036342045
0.30774393820215
0.302959474506402
0.283042071507612
0.310949286637056
0.300198885920368
0.325447375728153
0.342886133972651
0.310728969645993
0.307721466524085
0.329743184453245
0.344215086205245
0.320400919117404
0.354478161206623
0.311741212847866
0.33322525793436
0.323022642925037
0.335977762035035
0.345428227440537
0.380716570304631
0.365307454566209
0.351827995095908
0.361121588437843
0.359525491714591
0.369295278791476
0.394298189276299
0.38530498565303
0.387365849638696
0.40139214405677
0.369138527489275
0.381262809820248
0.37925985539199
0.415090817589402
0.43458744743656
0.428482871223653
0.447373826738088
0.393273308779374
0.42317662076011
0.422496547053726
0.419100318845978
0.427931908665757
0.452536883296936
0.42947651758993
0.451032115816728
0.434621491635591
0.457869709355613
0.447783960062003
0.481027080133426
0.458381393423586
0.464235908924002
0.464976452498944
0.460307533679649
0.479647085599715
0.47195514550751
0.521623393259358
0.547090604167313
0.547157709515763
0.572810841098279
0.497126162758695
0.522031648257526
0.525958098472309
0.536272529032971
0.524093439902459
0.534605785884913
0.52306623147076
0.557701022549112
0.538635775529141
0.562856288842128
0.561875362777042
0.576218729480678
0.561252450666475
0.601565239008488
0.581087191232342
0.589290314444587
0.575408630263115
0.586468316110616
0.606772910607039
0.612213962215803
0.633322840155409
0.607860084480773
0.599936863432199
0.649537055041368
0.631206126767132
0.642301063938016
0.623072073248852
0.672682030355731
0.622561761150175
0.662382391452483
0.700374200798024
0.696812503044166
0.660147722810255
0.704601250672113
0.715965137577451
0.686431331694268
0.658482451473467
0.753199141736169
0.71356593665577
0.704331764507222
0.691935490215244
0.769593328082419
0.735914656529986
0.751210809311436
0.728656284380505
0.824929473199779
0.734291511168952
0.749903785238029
0.742980420109614
0.755574039463033
0.754866569530071
0.803489514156452
0.769631529610965
0.782056781453885
0.762724116045342
0.791529187896634
0.764012077192963
0.815259148296579
0.805477207359854
0.882900233046919
0.837384691499411
0.84781880204436
0.805551092412475
0.836971101178561
0.832531087990008
0.876334113149217
0.828014007326246
0.882962954216324
0.848068544635885
0.864122620494164
0.849766153106805
0.882684138641242
0.86196420814697
0.948403847191077
0.954935363172349
0.900432549973311
0.858190927123816
0.838272358329293
0.865070148865073
0.96240187379661
0.914420269996785
0.920545210784781
0.92660766236065
1.01824060964525
0.956128738520282
0.956839318724281
0.939391893932746
1.01504650835647
0.943478978584334
1.01847050171566
0.925606008653122
0.942405174596644
0.963504294484941
1.05402296922739
1.02247765214714
1.07334410252845
0.980900061044038
1.00293197059359
1.00012739278438
0.97640393514236
0.971205958499089
1.07089131745663
0.978109122419222
1.01958780888246
1.05778605161525
1.08525114285549
1.09623294392305
1.1664503895073
1.0608075536222
1.15803565865156
1.08450529572177
1.09248090479557
1.14992899986137
1.15679914150137
1.11498989690881
1.10382735276048
1.04480156509848
1.17692748806858
1.1142272214669
1.19823880712979
1.09642080031594
1.18468367911115
1.12232812604906
1.17478945228968
1.17492070980232
1.22234966283804
1.18158245682614
1.31651170578705
1.19523252902951
1.1080423422297
1.13909761016005
1.25059937526699
1.1434473773172
1.17558752921564
1.15123212696525
1.18436720332927
1.14397629076313
1.16462244954055
1.16736917544902
1.2457937723658
1.18151109509142
1.2899736187585
1.18136384587302
1.2488674631385
1.32412476363654
1.34469568028767
1.2346313662558
1.25575686486759
1.27495609891761
1.42442044039737
1.30278794939582
1.34638060213868
1.25914939265532
1.24767173225275
1.24245788964332
1.39223661588242
1.28883878560259
1.32069883829873
1.2559689752843
1.32889932873943
1.31916507465294
1.34123905932614
1.26027700862546
1.28614926389564
1.28153380739148
1.35965483908208
1.34844106140052
1.37538946367494
1.27308067200697
1.37885260380225
1.36627187353525
1.5148895709746
1.36390158225421
1.49762255725471
1.4043144101747
1.33610154666867
1.23910900016512
1.4161558882658
1.4940370459275
1.43203980252384
1.36360644285478
1.49011001157841
1.37456596588399
1.46470097084713
1.37716399784801
1.47694832402844
1.40246505300701
1.67425584840424
1.48257976718559
1.58563817852478
1.45879031596111
1.3825375468393
1.52719116080737
1.49986407513934
1.70648320742116
1.54592789609766
1.29771356548909
1.47937405782375
1.54822825539935
1.50499729168091
1.43958993914015
1.54776403893163
1.4546427521598
1.49228135171628
1.45936080236001
1.55017905252624
1.45393577232814
1.40930006620034
1.43340752700351
1.49198479013523
1.47253339414248
1.46441168499368
1.40580878972903
1.61864921425914
1.56514991029486
1.48734960783888
1.4951914981248
1.69588230463549
1.53587079039802
1.5591661520747
1.46019778955347
1.70309182820366
1.70141106572361
1.74096021457706
1.54934947148879
1.59018691403317
1.50107394783554
1.44311006881168
1.40222311956346
1.69008636715252
1.59419620859803
1.54187692192737
1.56964109289201
1.63783998978677
1.56941040594606
1.66563415371278
1.75826236599182
1.65095882385185
1.49650523994308
1.47614156814923
1.64655561070547
1.75862105049647
1.51000901795717
1.6289164877779
1.57320230431364
1.63955966884391
1.75619852684179
1.74017615629633
1.58321935023788
1.62804896922833
1.57379733446371
1.58135778814529
1.54515957612997
1.63525324130869
1.5816024486434
1.60992379722072
1.57748024514459
1.62378690272728
1.6602866484169
1.64034819848487
1.65721849510301
1.66985452640779
1.46365146668557
1.51963321928492
1.67193054446762
1.61733816816287
1.64546935351319
1.69470269506923
1.55114067578966
1.61835776275004
1.64631236670561
1.63784437479755
1.57669389287054
1.54731180003804
1.4569732564424
1.5150775260302
1.5660377742499
1.6806682346555
1.71256272706917
1.66008352096216
1.61145994842508
1.62756962055039
1.6380746736901
1.69106231479891
1.6903594375628
1.65635127139278
1.45888622453699
1.52194307358948
1.68451378224457
1.60187780629497
1.7178307956851
1.65105364888635
1.67775374547121
1.80851850828749
1.70652852360446
1.57978653954604
1.66586469949524
1.93887162942257
1.73008163522483
1.5786621789115
1.68006860791488
1.67968736945131
1.5836065200844
1.50809878902506
1.48795314149331
1.77683942512554
1.7207599187102
1.6142916200946
1.62487259348272
1.69867842512945
1.79144867976975
1.57289637489576
1.5147232063195
1.65023594123836
1.70015070432428
1.56927770344004
1.6053467964454
1.66630152188299
1.60840804688434
1.76229131545871
1.70116778627248
1.59798873855024
1.72278320700192
1.63278593486918
1.62484378288469
1.58205463352741
1.48994522282889
1.63885609269152
1.53405896910141
1.47248167020052
1.7310885128893
1.59057488198479
1.62962596681348
1.67761362906714
1.50754420347255
1.49463401261136
1.47951621556243
1.50141147738465
1.57117011342419
1.56370212702106
1.51125255921462
1.4784769835163
1.64112639194948
1.61994482800126
1.55704771990756
1.50905491225872
1.49357410356298
1.60445158059671
1.62118827481504
1.52889518889948
1.59341223808686
1.47535479816067
1.55883229620504
1.52846800962548
1.48903686418303
1.58521037834306
1.46583644280944
1.39955854067748
1.51123766255824
1.57215509912747
1.52324097119015
1.49606371731565
1.5101649800721
1.51640254330677
1.50414268040916
1.50080920123999
1.52802462020399
1.43809714726187
1.58963419350854
1.6689728905385
1.4658777808449
1.40071604920509
1.51810913461111
1.43448524899319
1.41647833826472
1.41978297591502
1.46870352062806
1.42834772069793
1.43479163944331
1.42823550925514
1.43367027822096
1.40433153540162
1.42598472742972
1.46609087727417
1.438973238009
1.44240558953777
1.38519532932055
1.39855282755495
1.50628682209863
1.37496037400653
1.35366238119534
1.35048532599801
1.36226940618668
1.37260564497118
1.35628881237112
1.32500016522227
1.44369026146005
1.37525840266516
1.30472216992441
1.32807098726193
1.34088139995814
1.3409464634756
1.31913650643489
1.30291877849609
1.31200237626584
1.25686484947684
1.31879277560462
1.33071169799902
1.37534722097999
1.33096414679069
1.27805571577425
1.31494935598603
1.29289483820328
1.25475234792279
1.28807483044721
1.27314598347742
1.36194260037126
1.28943262860916
1.2196928421196
1.19276532775922
1.22430049972589
1.23104821289301
1.23559445809694
1.19179867483232
1.20559782419152
1.1816187586726
1.18682789016402
1.16924052047837
1.14904637408801
1.19922557691731
1.18496507120069
1.1959779853165
1.19887105126694
1.13387100709977
1.12663492218901
1.15872767021868
1.18255628480754
1.11361203597219
1.13930578699169
1.14674158950881
1.17625264697533
1.12929058549739
1.12382309344477
1.10355685884336
1.12527947308239
1.08202280855598
1.08890793991743
1.10780480061063
1.12454173958916
1.09163054074275
1.1362859173551
1.06647938339965
1.03794453668243
1.06165132301785
1.02854256121943
1.01984533831654
1.04394152509501
1.00401192135663
1.00660944053793
1.01720175138906
1.02576140254034
1.00934070780541
1.01344137354577
1.00661631042345
0.984695681895004
0.978921391247682
0.973021098646873
0.963434794515022
0.977827789653906
0.953693363687087
0.957077031435684
0.92607838365797
0.949515320513635
0.941296017313979
0.958880338630629
0.930998349464368
0.939558801747252
0.911966633257585
0.929949368151428
0.924446602982926
0.904112111774306
0.892759759631198
0.89944006680242
0.878034858885946
0.898904148339284
0.901579658639064
0.893218031087011
0.869146925426625
0.872780240760201
0.841634074547829
0.858500717813602
0.85978403288983
0.862403646714407
0.835147031052226
0.853204464464177
0.843034247639314
0.836818847016144
0.833851014446749
0.836185211297986
0.821595980774273
0.828664994107784
0.795706053396793
0.817609637985821
0.804299089095638
0.785698931021319
0.789953321551824
0.801205772010145
0.794463790106866
0.78554993607663
0.757528218555607
0.780100477959702
0.777550999942266
0.763786740563481
0.736321059553961
0.757374098607898
0.75793732904694
0.746516330447776
0.735546663805912
0.749796500281343
0.736560830003562
0.735757713962881
0.722530650938825
0.730222647104289
0.701766137860155
0.71163295558423
0.707199121173119
0.711351925579998
0.702438417404242
0.70393977792927
0.694583612348981
0.70810790899911
0.698826421164051
0.683460725159633
0.676072489384711
0.687519799848042
0.673712895687239
0.665939328285417
0.666691017019837
0.668533662841814
0.653160702582932
0.668597583025344
0.656220282724925
0.65827016766924
0.641179755894646
0.639013799841259
0.634610519457011
0.640539952210472
0.629647037332815
0.634211838830414
0.621107630247741
0.615256550091762
0.613018175239334
0.612376841827577
0.602082162525259
0.619684942020751
0.593464487382346
0.598058149511394
0.595946216904179
0.594101524791814
0.581402966798946
0.588197061634862
0.586637929143103
0.587612321945743
0.588977398994284
0.592132060486724
0.571011788133112
0.583431669369761
0.569523272181028
0.571483945451813
0.554412299158515
0.558186872796239
0.555785287688155
0.564479081014128
0.547683771982696
0.558070863727925
0.557447908107212
0.547849300667277
0.540204249196259
0.544648448275315
0.530591350877268
0.538866037835895
0.530175342768962
0.535435027638936
0.521945331460851
0.524604794442821
0.518023577210637
0.526256860902012
0.511162216949919
0.521461226208241
0.509346758156276
0.518738952975828
0.514179591320381
0.513050565365076
0.505886779668737
0.507931255953243
0.50544140033096
0.499265917754199
0.495097714687066
0.508582664854248
0.495271406174274
0.501871843201453
0.497461915339866
0.488845210020083
0.484895188391316
0.489043412488585
0.48097900840447
0.48962761769856
0.481704294751575
0.490182481405879
0.474550160484721
0.487477756036715
0.481897646017821
0.49034863072105
0.486686785319024
0.490804620670204
0.487827948252656
0.48794429593774
0.485946814758182
0.496429081644219
0.489401004163209
0.501248129798181
0.488766862404697
0.491966370875466
0.484124324181406
0.485305724781029
0.494205025255081
0.50945875341235
0.501863153092343
0.506710092166251
0.503194065267531
0.500891722606641
0.494282011067215
0.506061219483524
0.509251237371614
0.517470152277287
0.513649703029193
0.515781279425604
0.501049695717623
0.522216635482431
0.511610404637663
0.524476363202814
0.525869022241952
0.529957696498762
0.524020020879292
0.530109441160168
0.521932618244104
0.534411654709417
0.52612489239939
0.541912366472459
0.534033300101222
0.542892870130378
0.537633503665393
0.546219022171315
0.543944178883178
0.550920119506504
0.554540666997028
0.568276325138798
0.564040200509947
0.568671915536767
0.574837819871676
0.586765111751966
0.580032790304711
0.599713392840131
0.590085207484247
0.595713749318801
0.591781252996434
0.601903175759829
0.614442728731223
0.621711206303835
0.616979680491818
0.628832871939977
0.62411447742445
0.652143035984848
0.642729831790172
0.653272267226001
0.638838783354815
0.662500775059474
0.645891114587409
0.662183473143433
0.649413677804726
0.650542378463918
0.651795852573399
0.658578806295643
0.651383081312968
0.665896562978754
0.650057190959411
0.662103765608498
0.648566949568071
0.67302399652164
0.657754846121473
0.673748981568177
0.641983553101537
0.656851127344644
0.652745973921633
0.663036736897858
0.647066870121345
0.651904313653552
0.652944761750378
0.648134256618453
0.632805756657636
0.640302514682573
0.630449764943299
0.637722022315679
0.636134477170096
0.641880553038168
0.62787706896301
0.637843515780321
0.622760772895963
0.641175976195933
0.637619278772197
0.632111573661741
0.625946687021728
0.648596809304352
0.628302006006224
0.648697675555756
0.620119171995435
0.631084874409584
0.628842315018448
0.637383760284577
0.620509185685831
0.634604777113144
0.614511378452704
0.625698726978997
0.62353408682223
0.630824323127487
0.617863227961266
0.63111717174682
0.618585160528863
0.639982089923683
0.624514627707206
0.627154371211665
0.615922101919323
0.611784662891427
0.617259858926557
0.618121392095492
0.604323113885552
0.613756474511727
0.601390508981648
0.607631417039924
0.59619644684747
0.604069119631079
0.594935464058316
0.592791661103845
0.577700120941526
0.590078202906206
0.579667330557892
0.577667671089126
0.571753968256694
0.576113317048771
0.56449704029402
0.573822971220651
0.553199454408789
0.563144681687376
0.558123570932622
0.549159112565763
0.538669025400533
0.549097767108478
0.533895779268663
0.533583700169739
0.529779096094408
0.53234503605399
0.518724689232404
0.506231854933517
0.508522760860633
0.501498000173728
0.507065675389389
0.498882369596489
0.495719831237938
0.497713938048769
0.489980498813463
0.488246629136334
0.487175581767117
0.485404126053309
0.473443076411385
0.480589532681812
0.47051978953583
0.467323797243524
0.467377074277488
0.460307676553781
0.445763233588892
0.4613595463128
0.446860331361762
0.456951312555163
0.446402971926542
0.442786760967493
0.435209364166064
0.44584330549113
0.438825712801696
0.443638057157787
0.436194157828303
0.433770130507965
0.435508466625465
0.43623171092444
0.425826402135761
0.42681857311718
0.42716695910206
0.427362700714226
0.418666622656249
0.422352487026428
0.411048003183908
0.416752759681878
0.41084486189354
0.409696771423841
0.400576210500282
0.40904306432745
0.397499248501477
0.402767886814154
0.395943668948421
0.401707567881179
0.386251408541811
0.396273009719913
0.400400138255792
0.391073054838621
0.387118906017862
0.389531205974854
0.379553542710755
0.382333264809138
0.379036062168535
0.383106977547165
0.373456767065091
0.377912445040626
0.374326623608968
0.370883230977015
0.369326325536478
0.369424516918114
0.365717362708702
0.371234776118349
0.360979409365659
0.368751408462245
0.362738770451714
0.362490136106751
0.354769687288067
0.359596108034577
0.352992686640641
0.356429979213473
0.356864722361528
0.350921311088992
0.348267648801149
0.357918627411146
0.345981641058437
0.349258343837105
0.350846189767289
0.349029848716679
0.339154014156253
0.349385323876546
0.340402157995368
0.346691536904914
0.335687099403878
0.347555908522709
0.332941565273169
0.343034844663795
0.336628125044997
0.3379791491845
0.327212930663375
0.338776518708254
0.332857429625633
0.331634901551191
0.330840988823398
0.340123507932556
0.330595997165714
0.330612454037302
0.32146410795601
0.332943526723456
0.322935967587606
0.326014693193735
0.327263971128658
0.324629621752728
0.316327522938484
0.326400091076588
0.321310630402045
0.326812558550414
0.317157582662546
0.31856981344584
0.315960925331721
0.322020277071109
0.312450118618113
0.320659519495217
0.314853485503278
0.314294026733769
0.309626743444775
0.317558414538897
0.309422026024251
0.314998244515553
0.304250848390899
0.311514714486201
0.305097100989845
0.312106220677685
0.3058114040184
0.304753578452751
0.303134031321059
0.309155387901788
0.304789620862746
0.3053784736661
0.303040494380682
0.307550750366285
0.301542781841754
0.305116079727756
0.302200602706735
0.303994172407777
0.306502318103186
0.305749804395138
0.294875574543338
0.304019693417872
0.296252701676595
0.297674635485189
0.295441025016343
0.300116239543854
0.29146684662664
0.294525945509174
0.293797469920669
0.298962622032205
0.290134915501995
0.293131875953995
0.29754908506159
0.299079049937564
0.292308414360631
0.302268665546976
0.287801125978788
0.295397846890397
0.285234879004567
0.288712788740609
0.284245802010414
0.294563348463835
0.284964115913221
0.287998550521172
0.283746485796525
0.28436946965089
0.279602153607838
0.283837976828964
0.27612300206861
0.285717164134896
0.280860443409499
0.285156698676382
0.275899747473602
0.279603196524224
0.273737286882096
0.279476619833692
0.275221447896465
0.276722586713257
0.268242280229373
0.273196276056512
0.265894870088948
0.274668482265354
0.26551342534558
0.26650315937358
0.262851928558533
0.273093296809982
0.264793655531226
0.266674237421499
0.258641674042359
0.268988260095535
0.263185338410428
0.263949312095457
0.264160109100269
0.261293338425077
0.257566074941804
0.265273882677191
0.255756169771487
0.259713405372211
0.254909957359106
0.257270928302136
0.256081508824099
0.255107285497656
0.252722243287128
0.256014904028287
0.253945493305795
0.253421915354474
0.250451929692669
0.250700151789534
0.247693894251897
0.248068222668913
0.245847926330295
0.246169967315151
0.244924062170601
0.247666877412239
0.244420096004165
0.246339647770699
0.240018731394829
0.238463389616111
0.237094166134197
0.239705219139163
0.2358659880785
0.234923619383272
0.230822619307066
0.233600267473236
0.235070908484352
0.232165323684835
0.227161743727425
0.231877706082244
0.233102296054648
0.23308070547404
0.223774166271398
0.222578252227417
0.226264152014564
0.2262694815288
0.22087496362218
0.222301813699813
0.216892633366673
0.22229755510981
0.214848736333988
0.218452672564952
0.21447777014814
0.220231972792061
0.216732723989232
0.211312274774894
0.210574022036205
0.215839276215336
0.206865665214065
0.208068148618998
0.208927623839334
0.208451260164318
0.201024971878447
0.209278936448767
0.20278187001022
0.206979503488131
0.205956856165077
0.205869609264744
0.19816723059587
0.202460965771311
0.195296837777496
0.197613574980478
0.199158329178349
0.202681658699217
0.198634794912345
0.199633235533172
0.197670247704921
0.194719480561639
0.194849910336297
0.195914448824883
0.194993738077672
0.196248586262151
0.192225542619643
0.194436124325817
0.193791436926332
0.191856298282796
0.194035225932858
0.191334636156253
0.188180984577083
0.190286411919649
0.189173261335855
0.189983813425926
0.185144938233473
0.191052175197874
0.189490755990111
0.190088830071775
0.185414864879315
0.187068184767641
0.183430609357217
0.184519835048432
0.180181988033781
0.184031661730889
0.181616616611503
0.186349324771652
0.183435302011937
0.182168810854944
0.179369823007935
0.182306531363103
0.180081097371529
0.180708764403391
0.180621294386019
0.181183301755672
0.178065825160839
0.175267741310296
0.171857551689062
0.174463062411033
0.176665049810377
0.175235494591847
0.170961267798981
0.175520210323195
0.173019135306412
0.172966446988686
0.16828070968579
0.17409629746184
0.172796124157597
0.172826171145852
0.169846344656103
0.172235766765991
0.173672269878079
0.175482900011949
0.168396048244888
0.17569997463575
0.17115936618744
0.171811430560754
0.169010637978338
0.172547871829116
0.170140625116506
0.171552781176348
0.166795465103796
0.171420229500648
0.168893287814307
0.170925091358482
0.169956056347092
0.170886391526751
0.168531888158762
0.167827409732044
0.165245438730618
0.165232999587859
0.168328837256921
0.165122221944536
0.16369497689471
0.166581037659227
0.167179727335141
0.16547163378819
0.16418468143305
0.166558504940774
0.162501691491438
0.166118863442589
0.161376556362614
0.162907511112776
0.161380565763188
0.16371667633017
0.16189598114489
0.159679644901143
0.157678401447352
0.160051922989512
0.160747833027699
0.155947314072218
0.15623342138287
0.159142970504341
0.157473568054715
0.157636721362205
0.157940582223225
0.159797250861573
0.155740528678454
0.157528014306304
0.155472459644763
0.158452856635614
0.156351386118843
0.1541063421609
0.153862250834729
0.15409181038794
0.151495224444017
0.15461100579648
0.149774521292098
0.155244179313938
0.153799524944446
0.156495276302505
0.153546122679542
0.152636062069769
0.150406745053518
0.152596887251486
0.152916095195009
0.152892873142832
0.152135393081858
0.154995235152784
0.152260289773117
0.150876704424102
0.152600573616275
0.151489833769138
0.15190410865854
0.150955155813051
0.149241257765989
0.151160788675146
0.151062474010016
0.148724093929667
0.144107943879593
0.150004458439779
0.150340665058109
0.146371229636167
0.149513382966518
0.145626832068754
0.148317142852277
0.147827281099095
0.141058365099895
0.144914143323831
0.144085004547105
0.142322656201258
0.141562245914337
0.145556228457332
0.139926263341048
0.142151210684191
0.140196248538349
0.139145196448853
0.138822979659846
0.140723131771724
0.137474686091588
0.136637582883661
0.13813619962069
0.138809325142203
0.136997907955583
0.140980101315866
0.13358789470744
0.133737039779036
0.136076670970112
0.135843820227288
0.133646102177965
0.13563619472079
0.131691176850693
0.13581409947359
0.134202647726758
0.133989708558992
0.132981748675756
0.133149583460988
0.128968301058234
0.129601934389749
0.128732375054825
0.128841521652887
0.128602113407164
0.12645913808163
0.12782570557211
0.13213103901027
0.12864475351265
0.126318297714482
0.128846997828431
0.126083967088558
0.127667227646474
0.126005895967931
0.12529342114762
0.125768549165744
0.127149420394412
0.126076134063164
0.121933988724105
0.124474441986512
0.123795557375654
0.125381716204711
0.127298005777976
0.123316698830044
0.124050159297241
0.124998634800439
0.121341024891538
0.119693829256755
0.122839152575964
0.12048115895391
0.12184565975953
0.119538581529295
0.11919241893001
0.121731157469293
0.117714487578126
0.116936746588128
0.121050014209348
0.119313236356013
0.11858030213607
0.116995238970979
0.117054963074225
0.113973009031815
0.115377659540663
0.117146311180761
0.11461149247412
0.11374759101876
0.115037349932187
0.113519634178522
0.112730017980266
0.111958348123294
0.113291760623143
0.10881103558832
0.112778577247499
0.111352103061086
0.111195782892806
0.111846884993216
0.110214003138359
0.109164356090576
0.113891811115605
0.108508635244578
0.112550556271483
0.109231939626121
0.109646243989475
0.108849215906077
0.110674746148683
0.108061234459732
0.110110450375941
0.108506988145333
0.106018152710941
0.109340231340874
0.109051726941156
0.105571542359407
0.108919657841926
0.109853624901776
0.108682035273615
0.109709864464974
0.113556288574153
0.107599973911356
0.112549514291147
0.11051676615325
0.11328180704891
0.108494028721785
0.11192261400923
0.111164832192377
0.114269479157088
0.110533090979576
0.1176159703905
0.110834701393428
0.11062958172115
0.0998409261966217
0.102790994410988
0.100374518336698
0.112239570503506
0.105434423043662
0.106664993750518
0.0920008799844189
0.102183787422775
0.106186899988807
0.105693037594757
0.0937348521985917
0.107698486996505
0.0972483476891169
0.100165463033674
0.100492368075141
0.0980832456746043
0.0969252212728287
0.101727566587083
0.0981452102335384
0.104892950038484
0.0931299656094966
0.113457031579442
0.102873116710767
0.107373527566128
0.0949476499280033
0.112037299970871
0.0896788133943686
0.111967831531166
0.0974954860091491
0.109400100454565
0.0898180518584732
0.111594133898372
0.0921932613971124
0.112370401693828
0.0868924811245738
0.11719697135193
0.0850365431855652
0.110887080730521
0.075736976610525
0.109266947789493
0.0789659302798872
0.113073018432859
0.0866483461764444
0.12120589940364
0.0845709099659469
0.113985279798608
0.0797350647705239
0.120792235737167
0.0949732229279905
0.113732294298455
0.0856273902178031
0.11457976726274
0.102333935891192
0.107864655969109
0.101103588327027
0.0987776508463016
0.123985112980531
0.0826646613599201
0.117841956910279
0.0849066999927608
0.131983450124757
0.0776580994616634
0.130984514336963
0.0794362081978655
0.119831465524605
0.0922479409057084
0.113861321848645
0.0928131371960623
0.107267210303983
0.101827925787914
0.101587763133169
0.100484133677469
0.101138969548569
0.0978244137957464
0.105001156461105
0.0964365145899237
0.103902686261025
0.0973149335800521
0.10431380176205
0.0925536773450739
0.101725458853625
0.0925602964976561
0.101477410895643
0.0971857695635387
0.0994168511070338
0.0942781233651745
0.102075681374863
0.0962067603679954
0.100236679114155
0.092940745331081
0.0991117391029636
0.0929188830297487
0.0996503795289394
0.0933510348258154
0.0974549818605992
0.0952322917466411
0.100764792698885
0.0939710347104591
0.100573532123489
0.0973705017962387
0.102002314685676
0.0978367266045835
0.100580263127313
0.0943947637432945
0.100486945491879
0.0956713440361379
0.100722966727699
0.0996433428308325
0.0992912604358287
0.0943698434585563
0.100168941344756
0.0991676392536693
0.100705022137036
0.0972119668057753
0.100477827963333
0.0994852755533618
0.105702564807433
0.0994134217236957
0.102218854911184
0.0971708311066798
0.100279098876445
0.0971781539748583
0.10283418324625
0.0976321443448341
0.101328470775914
0.100714403307999
0.102347006010925
0.0978013451720487
0.102787607859236
0.10024490880233
0.103277817872273
0.0986114305607259
0.10020289901888
0.0983388872273545
0.102621265778787
0.0973292892564096
0.099375661049352
0.0965788560964293
0.100712256891191
0.10000935479811
0.102161213300384
0.100503991024898
0.103063476746483
0.0987254828264467
0.101598208351418
0.101059129279745
0.103328712543729
0.0965127966504347
0.102200760244525
0.0997288414616127
0.103014218752987
0.100633831658834
0.102292781019274
0.0993637962664785
0.105229149752019
0.101142782595242
0.102801833017839
0.100542559444383
0.102641030893531
0.104051244547611
0.102508805434227
0.0987971378873264
0.103847411419703
0.100350909057631
0.105064111923376
0.104873649134554
0.104410723902541
0.102044686308859
0.105718793708395
0.102611968646553
0.105262416520867
0.102072002291432
0.103834704508826
0.103363557591275
0.10619448112811
0.104125811366974
0.107457779859369
0.106479402948269
0.107042467023327
0.103233763990596
0.107413248363541
0.103780802397227
0.108229304720797
0.106711574819306
0.10760045844606
0.104109207992936
0.108458375031992
0.107093566454614
0.108259381770007
0.10604268771788
0.107081941377415
0.106686326893552
0.109303205930026
0.106237642773608
0.109398515635998
0.108163143962673
0.108468734426177
0.106383669550335
0.110566099697989
0.106588913501775
0.108950482406369
0.109083172135891
0.107812693793401
0.106895106661632
0.110343871032762
0.105057973298167
0.109720955232731
0.109025447954848
0.110646237819092
0.110690371529902
0.112089634566054
0.10880109000741
0.112324351748288
0.110625004758367
0.107936168273045
0.108763903299627
0.111527764506905
0.110774658114458
0.115054503890344
0.111692660411609
0.112936912773432
0.112107614867963
0.113658853920964
0.113198520248726
0.114678598246998
0.112852990147817
0.112864698275006
0.112574955878781
0.112516539803056
0.110952720127425
0.115060329349756
0.112633940214149
0.114323965265872
0.115124545855363
0.115652442313731
0.114074679997222
0.115599506086247
0.114261853804023
0.11308453787694
0.112705603557461
0.115714507395178
0.115607099132873
0.114944038706755
0.113577212447535
0.11470397596252
0.113150878678336
0.115485194630305
0.113627405851252
0.116220174421269
0.113360796958396
0.113016547415505
0.113408100240365
0.115074723246363
0.111520237272095
0.112813771371269
0.111053552828488
0.113296711381572
0.112644293038288
0.11281377780102
0.112757096041206
0.111931175378406
0.110174960312483
0.113862371841654
0.111183094633018
0.111622003788638
0.112214925406535
0.11185703203248
0.10848205232986
0.1123293090802
0.11217572015638
0.109255431143795
0.111247738916078
0.11275774832133
0.110399639749689
0.112828446796743
0.109962183846857
0.11114728818398
0.11104590386964
0.109701099739407
0.109051424325046
0.10940101172202
0.108108537994051
0.108223163860319
0.111049328671201
0.109292365508668
0.106654891739998
0.111839230861055
0.110168817040374
0.108713481912862
0.1104901576149
0.109127700106085
0.10785013015417
0.110484226635431
0.10938114815714
0.108934182803043
0.108848147740242
0.109910358201636
0.107121960473159
0.108325520840053
0.107183314282027
0.11077047597187
0.111033113028265
0.108691108378705
0.109049446698129
0.109855450589257
0.108649024220903
0.110786609230503
0.108156482131511
0.108662335920371
0.107263071418164
0.106600346145537
0.105667541518813
0.108317102907621
0.106852529713564
0.105718157516629
0.109924885024732
0.10824811483988
0.105690846010219
0.109029423439265
0.10733625356622
0.105659154227279
0.105016533759215
0.107561368954521
0.104049404466658
0.107516774877312
0.109132258181327
0.106031471856059
0.10685605610186
0.108293706630301
0.106527789552179
0.106705097306723
0.104430040964009
0.106430675608533
0.107568195488957
0.105005673920932
0.10408883170133
0.105852586998137
0.105394897864425
0.102632162853328
0.102262326983663
0.104499473677019
0.104535811736037
0.10526252055381
0.102976395846845
0.105230601016894
0.10472558713118
0.100528427656929
0.102950470117059
0.105628734336518
0.101738973533406
0.10229732860987
0.105125667948278
0.10333479740669
0.102633052330353
0.107780816972459
0.102051078056075
0.100281095078193
0.100558697479542
0.100295285797975
0.101320109245162
0.100631496059835
0.100254096769734
0.100070059420683
0.0993111745161401
0.0989801169247676
0.0994156018998773
0.100144792376846
0.0972461197002189
0.097867512704971
0.0963124703314654
0.095264867942554
0.0970244694024588
0.0980249291420315
0.0964818925556747
0.0970755843520104
0.095167483862263
0.0932678661592303
0.0952125358279882
0.09469545965755
0.0961892883235964
0.102211706037448
0.096548690257955
0.0912751366516352
0.0939197892972898
0.0941668515740037
0.0903525533239481
0.0900921578549884
0.0912803833785472
0.0909946904725781
0.0912835827637926
0.089814416926232
0.0890237226164176
0.0891573322295102
0.0883650297633245
0.0893015556945907
0.0898507162396022
0.0883159584685119
0.0888995225572141
0.0884318514179008
0.0886771093079438
0.0885462589727749
0.0868960787676855
0.0861209382960064
0.0874143081535694
0.0892828446727541
0.0844367508189042
0.0963900599285111
0.102921118493959
0.0883277382831054
0.0894257288422912
0.0912189000000894
0.0868745928752288
0.0868113050971451
0.0874515232162006
0.0871860120749478
0.0877331024842279
0.0870427347693392
0.0874868928456629
0.087007636580779
0.0875115817358131
0.0863455824391625
0.0844600944887216
0.0854691371804437
0.0851207253025686
0.0835209025892345
0.0829185740707216
0.0843301791882847
0.0845733054154217
0.0835178116155243
0.0853571390155298
0.086901191794853
0.082145660081245
0.0849091674759037
0.0931207057816508
0.0906329051094471
0.0877825175770987
0.0833425136338874
0.0828990349249545
0.0835665139903305
0.0839113285798125
0.0815789508942338
0.0820332029200335
0.083960259766564
0.082989233883024
0.0813097397173992
0.0832552645232622
0.0818085100473264
0.0815024189986615
0.0840647274243144
0.0819306982453305
0.0790899962203732
0.0813943891718659
0.080854595184454
0.0816950971801772
0.0816971171704985
0.0810877067016464
0.083442198893319
0.0848695786897347
0.0779537693261227
0.0918187307373582
0.0991183687927477
0.0849270247631746
0.0810001634915774
0.0816987918511746
0.0804670881579161
0.0796617015115729
0.0778466897675185
0.0809805816368361
0.0784482352052606
0.0796671470654015
0.0808290813219698
0.0778349969611756
0.0780977572578068
0.0805965092340703
0.080604274844998
0.0784253617525025
0.0773495508875778
0.0795065439807316
0.0797161113642777
0.0765245673155097
0.0853493141318254
0.098897818234865
0.0847446854241427
0.0821016775893956
0.0777302319095361
0.0825378249879993
0.10383750938803
0.0896085322960408
0.0775515966423454
0.0801897554148642
0.0792110883583349
0.0772074836257578
0.0782622375328389
0.0748901443690873
0.0827819142186314
0.0877212710089348
0.083745793070083
0.08037755179033
0.0796493042360887
0.0787978216092361
0.0771916374848354
0.0782182817051635
0.0765333683817918
0.0770562491909689
0.0775641934486992
0.0763648135432149
0.0753741866448979
0.0753529967014413
0.0760761884721642
0.0754506687326292
0.0863079540178753
0.0841325534490894
0.0768583148211254
0.076898288627285
0.0754786515248344
0.0711179097446332
0.0902313056633471
0.0902746825988142
0.0791077752531919
0.0756048981654262
0.0748405099800639
0.0783275978205761
0.0774926728209445
0.0767001399825883
0.0772747087016492
0.077078841383291
0.0740543343717076
0.0772222245437109
0.0774965656604206
0.0754489886511776
0.0754697724561936
0.0776846880531444
0.0750731648567581
0.0765888813099965
0.0754135403439181
0.0765679388815574
0.0777794309912725
0.0813958551848048
0.101766329804526
0.106564686384393
0.0982019224379337
0.0880303596914997
0.0847746377393224
0.0763230608206852
0.0754628651876005
0.0755000074152145
0.0768495957242306
0.0778443070014656
0.0802474665874887
0.0766005484349672
0.0780950139257409
0.0760689574466983
0.0769505936824626
0.0742473762079846
0.0771633696280682
0.0745498736903158
0.0750966397226906
0.074894864298072
0.0779359046593606
0.0729060787301207
0.076783422351029
0.0874072656410106
0.0861755121115401
0.0761294834132785
0.0787793178983611
0.120568965221527
0.101305683822145
0.0896047276991201
0.0785551723226299
0.079327391708753
0.0767317354159438
0.0753575622825828
0.0765031045509251
0.0844767660616945
0.0801576922420335
0.0779464787172524
0.0739999940519658
0.0820973312305806
0.0793980128732839
0.0762455288086443
0.102524191228954
0.11806513329534
0.0907565793057673
0.0817961820846086
0.069586187335594
0.09927730746164
0.10774039461299
0.0859287953115785
0.0792477191014383
0.081843747221682
0.0777798038455952
0.0784755490531321
0.0769076216267782
0.0800097777277417
0.0859726315509029
0.0803292958572299
0.0809644795683552
0.0793855351150259
0.0789837745085644
0.0820328685500036
0.0818880457531606
0.0951582632434202
0.0895064526349409
0.0809442573233321
0.0898318298901541
0.0852228834511041
0.0820699046432533
0.0823775230143854
0.0808784419468026
0.0808419069150804
0.100642282822192
0.0997787520206905
0.0934530323471166
0.104160176706819
0.0940822750580483
0.0833326818084991
0.089050590283442
0.0975636639970425
0.0948063602179014
0.0773891723371132
0.116042924978242
0.111381087157025
0.124197749961439
0.0990318583314949
0.0952418078357185
0.0853512153328706
0.0894622761031966
0.0800481836206713
0.0948558479768537
0.106540051572882
0.0908842827739401
0.0907297267684811
0.0812599919221137
0.105553199756922
0.100135986179797
0.0994488902977566
0.0923628605277202
0.0900025018931874
0.0882055528079735
0.116121161337502
0.0877878417988415
0.104605504444158
0.132657523718347
0.132468916198707
0.128444944589308
0.0952555358159702
0.104555805506419
0.124364894832464
0.105723317884266
0.0982679564030002
0.0910074269480921
0.100511144375868
0.0864167531229214
0.116033336486754
0.134283345865171
0.103296901835245
0.102051826623679
0.100313419668882
0.107044985506768
0.132340343362941
0.116459566254808
0.0996904790696222
0.101425133721222
0.101534486434106
0.106461558791554
0.171238400349147
0.122658874005881
0.140887847935154
0.133677439732787
0.146978437950864
0.119851953064944
0.126341784904494
0.111647232927187
0.141218450994759
0.135493549566414
0.125309759152335
0.105596928217867
0.158777276469052
0.135977547012872
0.129400109142412
0.124333065205679
0.124920722136487
0.128200891713038
0.196809682810038
0.199664196937699
0.173734450166343
0.131420204669326
0.150414705551073
0.165090240687616
0.145844497114174
0.136316023786986
0.136593372809622
0.136671929816023
0.138878001990511
0.144830497594942
0.157478386554862
0.142672391597891
0.153572787805117
0.141638808183087
0.16538621648513
0.183418858758822
0.24755701467606
0.186969970392736
0.189130838997046
0.19842649506455
0.191755610657637
0.176764097457407
0.165443479575397
0.166279474615462
0.180150408905709
0.179068032192993
0.173935330046708
0.178057244659453
0.217918249357426
0.189892098712794
0.228895224399186
0.199280686068263
0.206507098422441
0.188867596118237
0.259950036431533
0.33984397767609
0.238031200525325
0.227754883909117
0.214127331988727
0.284585596757105
0.280400194699628
0.241939964006071
0.226399902422656
0.22994088895135
0.224910559628518
0.250498351104323
0.254696131902445
0.261839730678099
0.277344391708592
0.263634112507836
0.266696349415546
0.317691481060054
0.386645956003938
0.375468171861578
0.304412085273352
0.305488657200056
0.328560020506282
0.328180647451359
0.311109644568775
0.329353653595974
0.308777691202571
0.379801535767313
0.378308797634027
0.364583561200675
0.34415323257592
0.377311146401563
0.386511635168701
0.38176504038747
0.448831919824019
0.406509412112103
0.41238561679329
0.382835482495084
0.418053548767054
0.399664525275679
0.426656196573551
0.451722211433526
0.447393321763505
0.433847884813721
0.44194992436875
0.443981041594247
0.447144724491728
0.461996547455912
0.459428706803677
0.473670484923813
0.520268616189401
0.55247842132359
0.722969296514558
0.513922254542815
0.498003736679976
0.469211470341465
0.519448385670376
0.52475305009964
0.531487032357221
0.571405135117607
0.514669833354583
0.506283533823148
0.497380440168996
0.499192562954516
0.502300760051027
0.502012032515746
0.497121215623894
0.501817865467133
0.545327819767177
0.488511190400854
0.607161819940849
0.540757890091317
0.509210148011134
0.472569092850782
0.500947636469993
0.475973903397888
0.495148723258887
0.465868204915715
0.518145160135679
0.487894723240235
0.490955659788271
0.468537665726964
0.468817129045001
0.507133936823656
0.492980668198336
0.462018318305997
0.447252250198164
0.439191468328247
0.455059777827188
0.414616204588729
0.495087604837726
0.467243932039834
0.444126513778645
0.414948331719713
0.41518494664845
0.396472038024865
0.401013741710296
0.394744642645729
0.40723397283668
0.384752022635036
0.393967117126898
0.384644081955995
0.379333708208558
0.374524087686018
0.376277664421453
0.374269704120222
0.371280713103016
0.365146647323243
0.363976666613246
0.359423563751758
0.356148131144931
0.352425929973259
0.355601690245415
0.349257128824471
0.358194501738928
0.352797880056759
0.345016742248149
0.34608586035474
0.343482435123125
0.337677634905831
0.333285303318827
0.335504969507745
0.330289327105193
0.331201343962171
0.324482325158949
0.32463015368236
0.324575780391286
0.322747517700111
0.317373507540265
0.318163003762396
0.315423895726013
0.318539790153072
0.317666462958078
0.323327129351362
0.411906630475038
0.33133007856322
0.324676486225834
0.293340136184265
0.320055386010224
0.286797484830278
0.316652747282944
0.362266395395769
0.323452436254988
0.29873003320201
0.291037867528727
0.283607538381692
0.319440210024661
0.288967335767701
0.292421001010441
0.283174031458786
0.285701338900271
0.365038265380706
0.334081167528063
0.458928857966085
0.355105448640011
0.313957731502118
0.264611345287038
0.332927613774014
0.294815115419973
0.281585066433471
0.263830485379955
0.262302309406646
0.329411528550588
0.27086368692526
0.268554810612124
0.250748517183275
0.252928444044949
0.306649164195181
0.301102368421291
0.274394312374758
0.313453026978671
0.292551553629959
0.292153034479936
0.335905186970842
0.356777364244578
0.280034612461896
0.247051666204281
0.252990067586995
0.241530652848234
0.279075576536146
0.294705447853321
0.250116936759313
0.27269358226911
0.229001615460251
0.246634029318882
0.242676152367367
0.287318728405179
0.233332826536507
0.278873692925198
0.272024204640571
0.236127735561306
0.263917964376157
0.260272527852264
0.322589450391202
0.304890261036533
0.252028833186345
0.222483456544935
0.311273710661276
0.274116993044421
0.262911602010835
0.256577622070194
0.217462995673349
0.254834635597397
0.24852251014805
0.229348536756187
0.271341797953215
0.255519294225568
0.288378238642049
0.324007447283333
0.342349701022787
0.31172477515395
0.248094766348692
0.234828498039223
0.227738247761758
0.243490351356024
0.233243652982123
0.227320687215501
0.305313086070027
0.234355026911124
0.269439457121421
0.295306903397524
0.256092308617923
0.248690439729029
0.252172264163737
0.251009757810368
0.266376446765149
0.304121400582299
0.333384717690771
0.277553553545484
0.310633358879413
0.297823236824582
0.289667652092415
0.276538879224602
0.293085954246525
0.288858599840891
0.303157392451715
0.316995161857951
0.312857881421717
0.315105122145762
0.328881782300348
0.317794259992815
0.395431369910121
0.360841017201612
0.357868332302425
0.395637315828123
0.400616788519069
0.467838402080452
0.391265418576737
0.4035867079701
0.394672891526153
0.412777543146985
0.413655081650253
0.414305319745985
0.466814584973723
0.463733789790088
0.449331752264323
0.454171890603337
0.444768635123788
0.46127621532399
0.463441330971992
0.526189087531747
0.490851544101556
0.623535707628959
0.510203799480864
0.534714527391128
0.491833920016447
0.494036120386628
0.506594289372847
0.499727301223255
0.495045563680058
0.497231187261725
0.517822415335749
0.535253042439484
0.499321916656556
0.513712137075071
0.499780999341113
0.507439623356435
0.505355366914527
0.513458291279434
0.515102844339757
0.519317670726595
0.524495920504693
0.514533426787074
0.55536401066023
0.62980662794276
0.551476175125539
0.555554372052085
0.539572422947244
0.572440933387045
0.544009405165843
0.568494289902388
0.581919436717825
0.571652793887491
0.567685924616151
0.573306720024642
0.572627870951675
0.573682265938717
0.599301179252801
0.613104107802568
0.568916632723203
0.608499511203257
0.559343328573259
0.691711635200217
0.625916598432773
0.64458081726163
0.617039588502403
0.616385222279781
0.595005995379122
0.603337557692294
0.592092314432328
0.609155237749767
0.607276164662069
0.604338713309813
0.604815037126682
0.596821126166055
0.596953326200826
0.585957694073494
0.60450427505656
0.633070686860695
0.59230728095093
0.597523741175732
0.581874382650907
0.59551379633263
0.58071197692789
0.64128127057798
0.593881533875211
0.599977509027979
0.57393621921539
0.600297451101392
0.607555656600885
0.599273005217955
0.566367436942126
0.580494554005758
0.565245159393234
0.581271259588443
0.556902542756688
0.620702418697222
0.608049862765518
0.597779124860009
0.585975108906254
0.600963990152934
0.591822290302747
0.603768690441912
0.602635639404677
0.612329761184109
0.608504320942368
0.623868734546801
0.629563069206277
0.621207158025731
0.633152637870082
0.654137025637261
0.656314040503093
0.658866772271571
0.63925368140024
0.644570242245326
0.632592548356529
0.658602231399918
0.646048746582634
0.649281301475385
0.628617052003372
0.641515518358896
0.617968754742343
0.65602888789869
0.66305280455507
0.6341540665257
0.653158586540651
0.623053777243471
0.620410218170671
0.617480822454172
0.615769340684316
0.613139555252471
0.615611012273288
0.621185160466387
0.599531573005625
0.605384780028727
0.603260851016726
0.597210094382334
0.591031781305492
0.604341888449382
0.589296811410801
0.590804043583921
0.586198270478977
0.591002263575324
0.59032039883766
0.588489142606208
0.589402937574981
0.583375293178743
0.610559436422612
0.612632067435918
0.613638893226798
0.585687983140203
0.599240787600324
0.58508996516981
0.585704504677244
0.578189670189443
0.575936190995359
0.587766918212447
0.574332778592007
0.583272284609034
0.571575390121006
0.572804291006345
0.567425581116553
0.572030073562759
0.570585040132224
0.564969488632463
0.559291703551448
0.56735492085388
0.554405510663687
0.563459724572786
0.548682642164483
0.566224117124969
0.551104314970236
0.560777272993351
0.550859800309939
0.548738632658562
0.543890481887717
0.548864148726301
0.547618947348739
0.545827172372459
0.536898037085167
0.542063278077009
0.537649042903884
0.539950044300418
0.536615854185319
0.541589746273328
0.530805161877104
0.537815078854446
0.527494045829969
0.525235064254705
0.526316798550364
0.519019561878822
0.518118096949562
0.51639423366645
0.507350392426418
0.510223350820143
0.504742791423722
0.501194997150108
0.494095449692296
0.496815106343777
0.484692717920988
0.485117234148478
0.482375815601387
0.477542433575864
0.477560415654368
0.479028268931889
0.467339242337907
0.469231116276801
0.46790335986783
0.469517019204007
0.466450163984218
0.464747939011558
0.464816524670573
0.463959527927962
0.463239743812773
0.464290522059221
0.463243202716613
0.466322004209091
0.460248884695204
0.468080301540164
0.465814921862418
0.471624646297777
0.473736669170347
0.47857506490701
0.474814691296091
0.47880038741539
0.48094969127343
0.479774959318281
0.479555802654813
0.485495947305706
0.482803138130999
0.486282136135073
0.486897108792331
0.490425967988473
0.493196277360506
0.495603679435005
0.491413110153865
0.498162178333887
0.487834654871685
0.490764511783071
0.488728311218165
0.492679167979474
0.490531218660968
0.491608428808019
0.488060939245428
0.485716129771472
0.486546698387867
0.486526031850079
0.484587972979781
0.485621534656912
0.484348119103192
0.486565861112274
0.48708201465588
0.480985606759016
0.477278198235535
0.48200922692696
0.47505132295746
0.475928812265334
0.469461703441642
0.471748301466565
0.468996117673927
0.475385238429593
0.466191918918336
0.467616936585649
0.464798666477069
0.466946606163781
0.463093417138066
0.461833457706556
0.459003737618011
0.459919487588705
0.45513321210548
0.456242312026654
0.452001560671647
0.448171413388436
0.448428427180475
0.444931105716755
0.43971771196476
0.436600993287959
0.431064212585781
0.432632446444824
0.425780744198156
0.425095929218858
0.424398162854756
0.4237823348414
0.420329596808713
0.420346683819897
0.418438916170853
0.414961829517146
0.414166940292396
0.41467284227716
0.411681601296242
0.414998253664675
0.415582886230492
0.415241734136263
0.412293649871707
0.414980312146294
0.412190848795112
0.414222425033584
0.407632024293007
0.412639054127299
0.406880050554384
0.405956706247481
0.401480865727758
0.397085088317787
0.390881388980302
0.389935452982078
0.383697426092467
0.377400207872851
0.370109832462428
0.367701936801188
0.360930941497084
0.356954160810058
0.355098785736517
0.351240551985448
0.349000517748444
0.34795771428411
0.352832321413217
0.357575329441299
0.358844232347184
0.361156916903912
0.368907631315283
0.376471561798907
0.383764803194351
0.398624211176279
0.405198419713225
0.419083723453282
0.435454589191505
0.449998812009593
0.466145375926358
0.484272420861294
0.499646528434743
0.522623090163292
0.536907408763862
0.563342179767493
0.584725262680919
0.607823792271784
0.631208121037484
0.661895579749069
0.680178587862109
0.708985747015726
0.738800686614189
0.766329653386145
0.786059312697953
0.81171330809802
0.836202002248473
0.859922443543063
0.880376182825948
0.903512491807692
0.91935252693603
0.949123967076822
0.941922753382703
0.955559376052835
0.967385272664548
0.973028463606766
0.970813863568099
0.988203565502159
0.980902375536095
0.975250245450722
0.960377293443169
0.969922670653952
0.956666273938801
0.95443762608577
0.926300484033374
0.937590370698918
0.92261563740513
0.916251480592481
0.90376114300967
0.908619651990011
0.910350603337509
0.900732674079122
0.906429675294643
0.907743937801929
0.899379761126812
0.905682831369599
0.908527157237812
0.914253072571385
0.927192779677159
0.934341561970643
0.950393354228351
0.94858906299789
0.968232830996532
0.977776991853202
0.991898916260364
1.01368034100668
1.01198088768322
1.01813010544155
1.02286707081073
1.03600189768391
1.03142941915932
1.05552816497027
1.05783759904124
1.06336578251903
1.06835171511427
1.07609796769723
1.06863463189335
1.05074203722362
1.05987640177147
1.07259040472577
1.06051945919445
1.07126038943029
1.08823931765325
1.08890445969569
1.09281210377447
1.10672320151032
1.11185214353447
1.12156407689336
1.11485044478409
1.13897758112647
1.14556285126915
1.1518808447001
1.16101800626817
1.15654910879806
1.17785725927147
1.18934866475337
1.18232519670124
1.20338100347128
1.23192623118977
1.22569688163308
1.27948898110688
1.27066885080569
1.31775268587206
1.37035391721278
1.38134522950858
1.42028897633861
1.47083290706409
1.46577574227136
1.50026264736194
1.58087900688467
1.5776363288262
1.60234142947071
1.61695223090926
1.65521241470192
1.64644341200976
1.64356767731678
1.69446271936742
1.78991624883953
1.66668352080711
1.71212519511904
1.70716172163227
1.66060116645155
1.64219979250988
1.67292632776679
1.68326366719807
1.6891558717275
1.62945981835351
1.62185830268779
1.61861241989483
1.63703719901296
1.71383451744753
1.6490650795837
1.69155817115792
1.68997867495719
1.65872367910909
1.70132832546441
1.74348343779271
1.74965236193541
1.78240483994052
1.70294514973669
1.86631971214266
1.82467088510567
1.78691211671111
1.85774496976484
1.86059234892535
1.99391287009891
1.94701656435233
1.98287198947402
2.19109808992343
2.09418884245105
1.95834031643684
2.13534962499137
2.24255166095943
1.99006102123519
2.2524892848651
2.10086052751159
2.01093116420467
2.07299167355961
2.23395574895353
2.29781162774817
2.42576493858898
2.42406274854639
2.14075158918945
2.24808964987319
2.44534046730948
2.69956141115384
2.54569355285597
2.31642832515367
2.72250458991262
2.44805177979397
2.62879158323435
2.51069316891968
2.33672235307176
2.94495248122319
5
3.31598851329827
2.18797467379543
3.00709888985619
2.88723436360449
2.28541946050113
2.70161943933256
2.54171254558754
2.4593296829505
2.43254658230836
2.06810621415107
2.47271601121959
2.3900103512257
2.20701608874834
2.21362548751561
2.17441427876861
2.0057263403094
1.9298792530387
2.19665572172347
2.05553086776205
1.79553556143428
1.88473408559133
2.02239313184653
1.96370211861482
1.9914599679484
1.83488366999028
1.92724049054673
1.87431673751989
1.77045447737925
1.75631130339533
1.8282727320894
1.61721639222107
1.71294250988591
1.58798998221358
1.53244856785304
1.43132676279523
1.46901859589491
1.42682340968934
1.35139609317188
1.28551183985051
1.2158510275278
1.17377312883903
1.10687008685268
1.05136847281635
0.998152484743096
0.953995457416409
0.909333459661454
0.865318673734504
0.825832075621547
0.781177264910235
0.741229132382496
0.705129203853267
0.677941811156351
0.656908245506222
0.62950853285977
0.607458350687384
0.591442637212017
0.569556436478436
0.558296217259532
0.534456529264699
0.526998006732777
0.51358283534808
0.506701237652737
0.500489194758482
0.494368766512636
0.487893101698247
0.483311733660427
0.476880572832901
0.475714286393117
0.474511856283159
0.467563246187822
0.463523528925581
0.465268186957626
0.460826684198186
0.472051967597665
0.474291592717741
0.477304300244311
0.482819370344547
0.480518916758377
0.50012127056018
0.504500842823699
0.50257505669194
0.512301064704242
0.522684967877921
0.527103697108472
0.526472431364569
0.529000369259574
0.526481718389689
0.528712729717663
0.540580268427064
0.538504636542121
0.53897715708418
0.538357616390947
0.544407114349988
0.534091343322375
0.542259773862843
0.552407639075885
0.553659982600452
0.558840950144791
0.558505583868567
0.553486536349716
0.56176643378476
0.557972729422753
0.553737786697865
0.55599921222894
0.552246103553789
0.551543553713589
0.555816411699662
0.557294548915442
0.553127653070968
0.548746024469786
0.540743417302603
0.547579556179014
0.545766924975214
0.537973448372942
0.522387741057814
0.533282786658095
0.532294241422046
0.530214897798499
0.534350443133517
0.529709094082104
0.529118275331331
0.540976078800724
0.539323702316349
0.533641573275945
0.541127116220074
0.557845179641548
0.554252823300844
0.568089996173847
0.573361667489484
0.573192829050999
0.587333539498034
0.594902999425197
0.593162329431685
0.623223081157529
0.609309532932176
0.606946869293513
0.608459921264248
0.617053980250148
0.603544799526183
0.58206594728476
0.572565296486603
0.58075954502408
0.568347412976307
0.551153391452899
0.543812858289774
0.551888259511135
0.542255261306803
0.53306787684379
0.529259885585348
0.53118538245828
0.544745147762721
0.547674571297438
0.541823586738164
0.54610337314473
0.541576264445412
0.544088385116411
0.558282259436397
0.561592161501461
0.546084694757281
0.554502837970781
0.545695232988764
0.541555327648561
0.55325805249163
0.560472118687596
0.559466231520412
0.563313634441246
0.548092902235888
0.561112803803927
0.560325396660151
0.560449566346832
0.550309628761913
0.564442414999103
0.551638254061303
0.551176089201291
0.553683843985924
0.552641105445001
0.548245472177211
0.558769201423056
0.552527923709034
0.56162008835677
0.559024714481469
0.557863306986834
0.547932628416862
0.555669970918694
0.549944294432801
0.56512057523284
0.549067288222831
0.541199951842569
0.550323021112293
0.554320515278733
0.54656032245919
0.542756110299801
0.524204708505492
0.53045767779011
0.528655131149076
0.519370583846064
0.50778951214246
0.521565742558627
0.505590417174131
0.510938726087032
0.522839426461144
0.519021929426842
0.504850118231842
0.51194429437188
0.511675177554617
0.501053164174974
0.517341329672789
0.511001126241472
0.501042141707083
0.514294356736616
0.513204874471855
0.50961223242567
0.516356634080618
0.512120437232223
0.504335570082891
0.535831765659129
0.534808468932008
0.537318881130034
0.542769559715942
0.536312927555076
0.538554200414563
0.54528786672687
0.542139615309671
0.549207835062213
0.541165198278781
0.539625090836304
0.539487973610754
0.558492006499467
0.545168417323147
0.565597643319517
0.569655700583255
0.573327253219861
0.586131901163026
0.60404844110099
0.594322999202671
0.617151106594709
0.615725499881311
0.638796213675141
0.60693990686182
0.641596393145314
0.645911973266529
0.669612598811111
0.711733323544086
0.714431522974404
0.719130640407673
0.72599306488718
0.71177143452383
0.765445703083048
0.733604318558724
0.769134590563591
0.788792475641024
0.809388374506634
0.799768274843829
0.777362970308377
0.781135633809234
0.815209929697012
0.810768773209765
0.823193352572177
0.814367684554865
0.809091583000381
0.768267240955775
0.805526824737502
0.831835580191119
0.83663504918942
0.773604685541634
0.819788645899437
0.8181927612688
0.845945725666392
0.835830692314877
0.829913587288175
0.843234153581317
0.868888325577922
0.804016612707612
0.811179756672029
0.816850676037294
0.856298516863988
0.836279570147613
0.829675469945176
0.755523466023073
0.829353971665211
0.807782760474237
0.771851787212064
0.796698941310627
0.808777425577339
0.781830621612734
0.852101305433386
0.851896232987767
0.790697436868284
0.856808409649359
0.83334121047519
0.755166684064306
0.820643385703813
0.81455907100068
0.822338494804262
0.797281099655413
0.814907177388288
0.767291769047311
0.823402624396337
0.811707025366797
0.766231740111188
0.767087340245689
0.812080839519969
0.768501403624033
0.800433756115967
0.807682570913573
0.833213950963339
0.856658028727993
0.894456093313344
0.832831426336424
0.858994493356912
0.812812867123363
0.826036969498142
0.852403443282227
0.78361938415841
0.776392148236107
0.862708996407649
0.819871403838893
0.823991509372817
0.845535737438895
0.913514562311263
0.911477024031601
0.891265038565984
0.856361030117312
0.936147776593136
0.915858681995922
0.875295713589568
0.957544633341632
1.10123326607212
1.11248131457434
0.970348929178691
0.997296212921701
0.924270374633052
1.01388813758126
1.04092306945525
0.988716091030961
1.02775950365513
0.926946125950641
0.88905833648733
1.18304098329067
1.15864640453535
0.974262519877925
1.31552229471931
1.02026448020648
0.969915771390194
1.10596931140011
1.00343404259084
0.866461938355578
1.03031979237778
1.32716524643605
1.21897504448082
0.963287356933558
0.982026736714605
0.854063974170206
1.07585595090286
1.14260252473912
0.855108156420754
0.904041784455056
1.38872224799648
1.35163146445632
1.12452075641515
1.01202048385225
0.848352059510454
0.85054174426351
1.06500167777907
1.15013286764195
1.04924894754852
1.19776550444261
0.83956198625639
0.767757613217292
0.801049828516755
0.935405448619151
1.3071365018299
1.59279715169209
1.20354722967718
0.89892251186613
1.05246043692008
0.997249153601332
2.65440268559522
2.65747638991896
1.08851736915635
0.976171594461507
1.11880472598876
1.19307212522136
0.839986053948769
0.684153892322027
1.72652605248454
1.15552604885824
0.817613886651797
1.36798420414432
5
2.37111411491101
0.946070767658674
0.662181294251602
0.687639604261044
1.00170594291983
0.790651994624427
0.855343071189095
