3596
4000.36533379555
650.420452594757
1
2
2
0.0915024695011518
0.0854620470431869
0.0871852909380293
0.0908020445170569
0.0952400109928457
0.0887381234375775
0.0975039126203534
0.0934423530719056
0.0913053441609366
0.0954688279969915
0.0906608786437843
0.0858515730489003
0.0908840554157615
0.0822544101104295
0.0914299946313862
0.0873804000235174
0.0908741169990924
0.0881507850008918
0.0894843816928181
0.0809556911281133
0.0844611144500869
0.0795854839796621
0.0894773538217519
0.0883282236368108
0.0920447125095044
0.0882105469682687
0.0939610652769584
0.0897731633854489
0.0912289172703229
0.0946232108801967
0.0895383695249769
0.0831007533586145
0.0919406525366914
0.084061451042195
0.0973957164718627
0.0886390650502406
0.085126103829937
0.0913507975142884
0.0939428376172879
0.0918578592645982
0.101031095020224
0.0935923923399319
0.0905005212760988
0.0864238191160989
0.0904197816868711
0.0892165650995007
0.0963173023134952
0.0809024517849052
0.097245110738975
0.0900171558337856
0.0933329309111315
0.0930321499842136
0.107158619329916
0.0944190808575235
0.0933900357578182
0.104529716249384
0.097793956017341
0.0790011757652555
0.0901406231480175
0.0833632689429821
0.112721509377585
0.107044291863627
0.0839630491118127
0.0922360830672948
0.0918954978479999
0.0878225870502576
0.0890194219316652
0.0863065275254791
0.0825725622003192
0.0898128245584279
0.0947459977877723
0.104671314227334
0.115497892142317
0.0838856482241068
0.0878235993576029
0.0840856915964528
0.0906096779198367
0.0853902597996199
0.0806518244697648
0.0956991845544642
0.107692878152239
0.088795867018436
0.090082347239136
0.0839951473187576
0.096150988893853
0.0982721345454899
0.0864729561950991
0.0898716903923263
0.122472745017312
0.0887618527061649
0.091903245018303
0.0790667104063343
0.0792632305197909
0.0766288172870699
0.0903961388501877
0.0852808056152603
0.0867920195483848
0.0755424232240313
0.089837991480084
0.091653826489843
0.109800992999521
0.0892435152713953
0.129932728709491
0.100395560144323
0.141264430508268
0.110458733165316
0.0837436892757589
0.138875575153642
0.0945841781862176
0.0800576909589046
0.088727993319893
0.0818126299777726
0.0883682616724514
0.0816232578367959
0.0869007439460433
0.11206911716471
0.118344247723007
0.0782746498612576
0.0906373885499099
0.0785221587042575
0.0815371621753032
0.102226617606749
0.132592964088822
0.0824649269771614
0.110897588121704
0.091335481436981
0.0928682611955137
0.120522294329184
0.126370455415707
0.0792457014869314
0.0915955047019908
0.0735496851036195
0.0916564972409605
0.080815051952577
0.133791028285906
0.0927616046486782
0.0892003403133252
0.0921830445685107
0.10784195183082
0.138974058418489
0.104336551722035
0.083530044449073
0.0829003024603149
0.0893282481339198
0.136566646652607
0.0992069587803934
0.0884000511415591
0.101088494020684
0.104954462801448
0.0661454037394806
0.0798892532287128
0.0786665757525541
0.111346117477083
0.0913874967162172
0.0780611309571993
0.138512045449679
0.185108703726037
0.099973992963682
0.150824041757771
0.0864127174358616
0.0993023375218811
0.0834281943171895
0.0785027347293578
0.080183640488239
0.0875035005121235
0.0833920617756615
0.102280826872436
0.109078088480292
0.0771008384801991
0.089077261968263
0.121796140978152
0.104523631990597
0.0941401293340301
0.137838227473156
0.109892357100018
0.0745704947351033
0.141378105686991
0.0915571586784399
0.0840188553587718
0.0860752320896772
0.122433798544053
0.0742457354268986
0.0830058635780457
0.0746245240098264
0.0928541081782462
0.0892819806329897
0.0991614414797912
0.0747491706052656
0.0887801293408345
0.0733092483521471
0.116429482587803
0.129103737041464
0.132754125815115
0.0848520437715883
0.096453932762232
0.0699484562170992
0.126104257902537
0.11859105708669
0.0859154551884749
0.0787708298038914
0.0765256104115204
0.0790156861820297
0.0836976225349153
0.0676205577090716
0.0865371207367617
0.0597705143666635
0.128639665805853
0.10686925537252
0.0727212571543061
0.072077328291627
0.0905547368315161
0.0869680230072911
0.130558421496519
0.121111920171191
0.0826394611845956
0.0866944205421245
0.0771779114543243
0.107919276540827
0.112780864994616
0.0830206773628773
0.0858357585596232
0.0782794213319817
0.0831956240723928
0.0792247583325936
0.0777889290363927
0.0786280732141616
0.0844157390124691
0.0837648362236995
0.0901898416605857
0.0851064241334155
0.0925933219741919
0.0886986854068667
0.0800446951585817
0.080081421609172
0.0844665777626722
0.0922543221779573
0.115538553889285
0.0814138962323675
0.0917020457421251
0.0800090985513887
0.0946510173682672
0.0758345797188102
0.08868689612692
0.0854630767436024
0.0846665277678256
0.0770950688776134
0.125339829225187
0.0951665310253134
0.0892000858409041
0.0853670271639596
0.10315745962203
0.110375442912455
0.0813948809597102
0.08812378284454
0.0867927240986031
0.0811044126620779
0.0881126945051786
0.128380954674766
0.0978160775474702
0.0895098360496743
0.110421009696091
0.104344040386879
0.0901792814343331
0.0947629785271316
0.0992581611850871
0.157271623237825
0.117148322327037
0.0902656050150481
0.166779799169368
0.126753886398524
0.103585506165876
0.0978073899565711
0.0834380708363084
0.210673621428837
0.152790850951183
0.0958486676518895
0.112091559473587
0.108287086936465
0.0991154124061351
0.0926751855770498
0.116576370323511
0.109909125303709
0.144492526565787
0.161701235263766
0.163052992977651
0.0868939635399417
0.130186746712686
0.143618150107312
0.101984829659408
0.107320114635288
0.09955047091849
0.108175868082361
0.122278132502632
0.131294088230483
0.117966708587084
0.108756582022394
0.115812927273165
0.14248323772481
0.120540605572064
0.105153788674271
0.119863776001804
0.127892099369044
0.111541530580429
0.104112164326884
0.107540266514343
0.120477746969551
0.113923891551941
0.117448963817961
0.173700494852876
0.129619485652829
0.119432731220166
0.153484262597932
0.129677871425816
0.115312651350841
0.122287012859187
0.125392336873963
0.121283310250619
0.112215007061324
0.126558751149095
0.148878840782154
0.142532984294956
0.119340171243984
0.136187534084374
0.125567356670162
0.136065911379622
0.12679932215117
0.135305834867327
0.135029726320543
0.135793229481061
0.130818909147936
0.175516965298618
0.1737998500607
0.146813371690905
0.172425364068407
0.191914061524746
0.14807862417016
0.162257664546114
0.152303446529391
0.164414886197214
0.158574851957821
0.168262654853271
0.160076851335977
0.181560500823834
0.196255780330657
0.196041250785411
0.171853677756087
0.215447899357621
0.262133459384305
0.271662396822036
0.209839110175437
0.20545048172314
0.202518893977102
0.244468370674539
0.244959865344234
0.232301885146103
0.247167447455244
0.219190785454285
0.22294766227097
0.231440362015403
0.236778663279566
0.243501234973159
0.243653899799538
0.248380737563423
0.244082956033506
0.26721858684746
0.256585765736074
0.263431285087484
0.276566374295615
0.318805811701821
0.287837118548589
0.28109196871239
0.277383840686371
0.296004180458614
0.324229770822816
0.359507423565111
0.346607354100283
0.376768969105459
0.343702707806316
0.387524189164099
0.331527532643924
0.325128829709145
0.327725886127911
0.338951133939488
0.346006358361381
0.351543989791086
0.340605264344784
0.360857479531834
0.364096505197105
0.371587851660364
0.368475924841419
0.376543620174116
0.373377962477268
0.408576656549336
0.392596821930219
0.39173265225086
0.392255651743831
0.423863216177628
0.496526440723251
0.465793325759912
0.40554393192986
0.416186624226048
0.423197377423575
0.422628022174115
0.426973282522517
0.433468539916004
0.434767915957891
0.453335736969956
0.484065337310539
0.492180610196868
0.477739158544817
0.49032125893434
0.458568486567847
0.508717851458779
0.49157669460634
0.498626257807594
0.526312000941631
0.501834502088576
0.485751303475119
0.544331451694882
0.513715059901368
0.514536236086552
0.531158029235251
0.525614537289759
0.506696792633271
0.528250441380492
0.520865843325198
0.542158975575986
0.560046981743986
0.536872768986663
0.526515627606238
0.573562187563808
0.535020032730731
0.575113663000743
0.587311881855864
0.597422270645555
0.552786928456785
0.596177565867639
0.581820239581127
0.577898619218948
0.587585038046883
0.620912734013558
0.623416835510496
0.647263525444388
0.629605069795749
0.610015028853266
0.611992111586789
0.625441552829102
0.613410436296247
0.642890541239895
0.643276851185711
0.683948651273346
0.644444171766844
0.640807301661859
0.643291328659616
0.667590010830435
0.672976110438826
0.688223544100624
0.667742358260054
0.690639834876958
0.664886281888245
0.694595423380875
0.684100502391776
0.735539221929253
0.727461559851089
0.828330605949004
0.732481217095487
0.723520448197416
0.699779559297598
0.727870450692684
0.726116337000145
0.733785370021068
0.712599632464172
0.790724936086843
0.74735014897024
0.780250458796572
0.742788745309876
0.731630842995628
0.753358296354401
0.835662358321297
0.785880396455275
0.822851323366171
0.783250739577334
0.833792521716124
0.801816825759711
0.818639113091134
0.823506482419552
0.82797308797398
0.858772287059137
0.868571034692683
0.809647414526734
0.858048647904493
0.846250450549642
0.888191055199468
0.869716105201134
0.839195323439243
0.807028631167186
0.85230501022821
0.84861581762947
0.900452684891842
0.924422183898935
0.90631135114276
0.834071493057391
0.916661620502447
0.880428150183485
0.906612867995099
0.867468733434055
0.993591157434766
0.949094919455197
0.929331357546103
0.890145907396883
1.00463724958874
0.936634662218642
0.943923005750269
0.955865751847356
0.993602005549635
1.00552697711994
1.01377920954826
0.930203791412949
1.06420092505781
1.01923697852217
1.00771417707635
0.977728972281093
1.03174342018333
0.966474751393769
1.0571653792985
1.06625016884469
1.11613695901819
1.00310099851184
1.05550160526322
1.02068671485276
1.03097997134832
0.984879240595272
1.0747239446514
1.05698440313775
1.0643294234835
0.955088530183821
1.02673728003677
1.05465114875285
1.14554962320713
1.06597388764589
1.08117018321109
1.08006088911444
1.26609210322849
1.10646492386532
1.20582889202166
1.05020186987501
1.12532436865064
1.07426123369562
1.15859172551021
1.15437216883226
1.15566371322625
1.10607340138068
1.18787840384665
1.11431683578041
1.26290050853354
1.17101690260548
1.14042676905764
1.14236002206638
1.33892534630304
1.21646812510487
1.27334563032186
1.13894461986025
1.19082311730534
1.11301078167267
1.26602119209989
1.1866765540539
1.17118574352011
1.18159035085046
1.20802355586895
1.2085637860056
1.27015547532788
1.13822625278934
1.23499610435541
1.28412981039427
1.34087442171051
1.2747944058935
1.37964145009736
1.24698776774529
1.35608167460703
1.23658330956592
1.51231009629139
1.32988064724896
1.26173897869619
1.28140908128173
1.36581459145183
1.34514153409139
1.43007941177689
1.21442821864744
1.37175742998805
1.34353511999111
1.36406298683836
1.27336830040776
1.33133904130193
1.48034117756168
1.48852806647983
1.26492805975272
1.39913973654359
1.28165805097902
1.37992832337241
1.33419497986211
1.56139366205039
1.38893754685572
1.39661230186336
1.36396988880127
1.54413681660198
1.33408645708104
1.44536368230763
1.43202136486434
1.51897751481473
1.39819183966356
1.56733577881176
1.39260999811195
1.52802894540893
1.43864327174365
1.66977472101245
1.3440224151264
1.4436571114897
1.34706307595812
1.56128710393487
1.52110291428412
1.78655050009289
1.48199920370301
1.76527930747414
1.35326510675152
1.78975943851332
1.42881494182142
1.43424858875811
1.47800043694284
1.52867397402566
1.43576926222712
1.72770098830824
1.51370341935694
1.69498481392603
1.38620191809746
1.70401542390728
1.56366146750519
1.52430105477888
1.36786808550467
1.73481919414538
1.57521686292358
1.43327912714468
1.52420100298231
1.64190000814101
1.40584010213962
2.10825219646936
1.56002425549528
2.31811683972053
1.74033894294236
1.66055679431856
1.57718609457267
1.77542180709408
1.59037468365967
1.71857876178761
1.5779769322538
1.84566950969719
1.42468633120787
1.8283843181225
1.61895782978995
1.74529384158482
1.59608742109398
1.69224868706803
1.37583522093515
1.57728560404145
1.61230433509028
1.50829400301033
1.49920373911527
1.73215981314776
1.65146733343382
2.13400975644478
1.56229029468195
1.95606725462546
1.61787777780358
1.69071653073883
1.67218788603964
1.70909787846132
1.46516399836686
1.65612970458296
1.53785645454869
1.67858220951145
1.72980377792207
2.49022362189848
1.71449168342273
1.87327227537427
1.72497007082818
1.70952375413022
1.48458438723436
1.85367738296358
1.59598876768846
1.82861994899623
1.83398995678734
1.7342774997155
1.61534936267791
1.75175490254548
1.65284146647167
1.90398983440126
1.73599627198865
1.90121071462
1.60365631723105
1.63178346481477
1.53389777966668
1.78726796511641
1.80920638571879
1.65262765937745
1.49339238561396
1.87223843633873
1.55186819139569
1.9937512121106
1.7440770169887
1.64739071239682
1.65071358585937
2.02248068062064
1.61579979350158
1.6309748756295
1.68903320827614
1.81421728176041
1.63468052450536
1.88455824774489
1.76503463253618
2.04086131769269
1.73325162739223
1.73148384855817
1.58145962366727
1.78052144507276
1.85915931989488
1.8907867389138
1.49882394320158
1.94476299859167
1.62915601247533
1.9256709874313
1.60194265377654
1.76303739178334
1.60372778791337
1.98621412061006
1.67795376855686
1.92295540532138
1.71436077343134
1.8437104486861
1.57248103373
1.7383384330487
1.7197119359899
1.86403687360409
1.68959638002369
1.6225715323084
1.67840157758813
1.85666414555398
1.69618469899983
1.93533945972193
1.86913526397084
2.00810720318615
1.60151911143708
1.68998318357254
1.7559045638829
1.78208691502256
1.65209942590034
1.64311064935065
1.67314329602181
1.84854542106792
1.69474671134731
1.72497838794279
1.87807063384546
1.84044961074049
1.66098049783603
1.8234537036417
1.65787764601931
1.8900647890219
1.74445016694209
1.71177053767853
1.67773915813503
1.59352192054404
1.67573656647363
1.67531817466571
1.80632344764724
1.61996629086171
1.62735464211728
1.71992391668387
1.64904412085458
1.78185929106644
1.61634513677098
1.65474994282032
1.61446965127609
1.75924623792417
1.55486447996182
1.6054761335195
1.72938037807409
1.94717016920759
1.74975538988776
1.81110428982628
1.62274336002095
2.1193983561773
1.5364658403176
1.68795839901466
1.56017030914971
1.65792260629078
1.67634370493903
1.95364498680091
1.67842832913171
1.73087196253213
1.6789220757126
1.80968416035021
1.6504119888205
1.60909290228116
1.74980511784195
1.61744372040496
1.53031375672782
1.80356735817491
1.52402974738483
1.75964491293341
1.67280054839561
1.82047125113167
1.55875225536437
1.74790010254736
1.68709248743959
2.00387698276444
1.84092510955449
1.83911213961356
1.50701199372871
1.75229587860538
1.62505428315887
1.59869930700382
1.49776047376603
1.69505577086562
1.50116267342913
1.6440008792928
1.54397881146403
1.7647735820578
1.64858476013639
1.90834215692655
1.61585795081473
1.86418505118991
1.58267768376752
1.88051767513645
1.53689672187413
1.67426411470604
1.53407697232775
1.62138410151314
1.73145956739271
1.72374590965812
1.59891267567029
1.55395315192217
1.60318904018602
1.54641454154743
1.56706462195362
1.82865688189362
1.61760200614296
1.61884835037239
1.47134480855853
1.65486988725021
1.5716343663244
1.71671470179357
1.53643123625006
1.7523533366339
1.61026003489371
1.62339762907416
1.52656052145954
1.5496427918082
1.63042316325383
1.73205609546945
1.61609169306961
1.57482042901111
1.49611617144872
1.57443119982073
1.51311604755203
1.59424736777242
1.44710823311775
1.5843377260625
1.46109552676284
1.68586509845576
1.52656114884082
1.54003918508044
1.40005017573411
1.40156087536535
1.52636627079069
1.45287570168004
1.51463166658847
1.45525770221387
1.46869043295304
1.52052195378802
1.37446004162038
1.55742627922711
1.36823511252694
1.44633654937727
1.40868314114485
1.51195908743197
1.39940222315701
1.39554119299848
1.37410405131083
1.54381729950509
1.3764870288313
1.49697669239126
1.37385674810285
1.43942813661946
1.3105220214768
1.4293864762079
1.32992340044975
1.35938833545328
1.37137683473239
1.42456318535942
1.32151326553115
1.36324013411572
1.35032843999366
1.36645705389413
1.37064953995322
1.32914114351272
1.30257357143288
1.33503635994746
1.17827466507386
1.28734313094687
1.24812817902689
1.31032664039863
1.28666060445357
1.32039869459943
1.31545048256712
1.27210679761377
1.20198426091635
1.27114196244953
1.24000791045464
1.26587935916952
1.29761238783739
1.23337250675247
1.16134018268569
1.25370056831604
1.20225874687061
1.23371151520465
1.19989857971433
1.22741231555462
1.15292150331295
1.19410531373944
1.14132743330123
1.17376251086778
1.13248649057488
1.17459751905316
1.09629233070864
1.11449825961505
1.08814001539683
1.12460380814151
1.07233298575447
1.15309203948006
1.11801377443926
1.10893136658397
1.05230693879722
1.11239967118151
1.04542032026366
1.03850302496142
1.04912168799287
1.02887282038079
1.01641339358178
1.01878973396452
1.02802138577744
1.01594455505329
1.01114962342709
1.01533125075236
1.01979412611736
1.04054462935892
0.992607301118447
1.01266442943589
0.985837519108391
1.02323290806724
0.995125806684852
0.982882845437503
0.950909031760896
0.977765999426775
0.944578799153103
0.966978356867236
0.917717942802969
0.996978669791221
0.91952525780968
0.946268552289102
0.930711144751005
0.919438944239873
0.912418871602678
0.923536245796165
0.87778549423001
0.908277797424768
0.888436696407058
0.889824270216851
0.879700128355217
0.929016988200784
0.82464974063145
0.883847238146805
0.853905238223416
0.878541659203573
0.843733443822945
0.85865349009705
0.839689694202162
0.823639580396774
0.798236659665623
0.839428239451059
0.806819266075787
0.824030400008142
0.813248070125743
0.805831113748657
0.784605020061081
0.807111983717451
0.774580163165462
0.782064417579859
0.792230115544211
0.797704111875783
0.773595495967651
0.78509109326137
0.770297784440863
0.755949030607345
0.754409730499989
0.758195919070302
0.736118968200713
0.754607920712086
0.720314442501014
0.74602080628995
0.729426014191573
0.755450614143552
0.715070183547773
0.732245485868605
0.700281306541627
0.717621626637813
0.694779096671453
0.695518520565569
0.690382558126571
0.701747136123226
0.677402784820657
0.690431492439161
0.659998255196248
0.687014617304241
0.663317137745452
0.66637340584158
0.64103221254475
0.663305344362323
0.640045496502576
0.653977176169788
0.646742940875742
0.651358655534936
0.631984626925866
0.64212991409633
0.625394564559837
0.622074160860739
0.618568722798482
0.616150030303891
0.600672198092411
0.613094236991767
0.610351187678166
0.630206265695267
0.605662513157904
0.603186271052244
0.5850035354978
0.581069941153829
0.581701974387654
0.584525877698075
0.579022446669311
0.57010812282751
0.56654620339798
0.572777937618831
0.556899132790335
0.55944899583487
0.552917026942259
0.554947962284037
0.542035543126153
0.557694179200787
0.541944383679323
0.545729331654023
0.528893242433753
0.542910440321434
0.535766106629756
0.533067299069587
0.53471672121657
0.526067242415254
0.528668391336944
0.527086828956238
0.514689948924756
0.523289717092193
0.512667791601709
0.511256618057819
0.506052932424386
0.511420767875809
0.49246242859363
0.501042204304147
0.481617413284525
0.493600942311811
0.489419291800401
0.496201123983414
0.479653816316718
0.486430064383123
0.477881926455529
0.491772012140566
0.480762848125064
0.480843102506758
0.467379182013554
0.480506036180312
0.462636648303164
0.477530244789538
0.459497768938481
0.472179255349944
0.4659963755824
0.47364693919411
0.461611344095162
0.469799451617152
0.463695260160029
0.452884980598027
0.447249773877126
0.471569550897576
0.454916072236572
0.456462684826329
0.452306869361508
0.46688302462001
0.437619722126022
0.455563482683906
0.445903707617623
0.454125107787927
0.445361879780963
0.444560536502513
0.443705512670726
0.440628039348497
0.439572819113866
0.449556117413331
0.435539670699084
0.451834837957242
0.427786605350293
0.442597958435495
0.430490502533344
0.439978834366469
0.424372903736095
0.439553710514538
0.426216823645283
0.432528667068806
0.431312254728326
0.432921464123434
0.434734562893796
0.434782179557657
0.425756878848071
0.441430952560715
0.424244057485695
0.435286587957807
0.426842368904104
0.432771171588852
0.424719829844805
0.430761810006868
0.419270980387371
0.437781367441028
0.427206335250771
0.429988333026865
0.420237350688791
0.438150691966439
0.425875705467654
0.438381814165019
0.421322679601679
0.43358981410854
0.422011209986443
0.428747778834866
0.423322310205441
0.434586709384983
0.417004739800674
0.417215284623109
0.418119328114098
0.426398367472906
0.405770339892122
0.415551460964305
0.394197602643228
0.417256953709284
0.405772219698622
0.408097411650437
0.396547714063377
0.40721019902305
0.397963078505726
0.408477053543188
0.389300723350147
0.4046142589248
0.400050457060393
0.389370105492887
0.386055672040319
0.393839539049437
0.38464133277289
0.394492171212981
0.386111295126043
0.387873615261861
0.382342644718337
0.385264222006271
0.372187282891197
0.387722525579972
0.375528874958273
0.37910179393104
0.373382452178174
0.381525427938714
0.376583815983672
0.37346952707972
0.368362462237162
0.376256916757219
0.365030046703866
0.373300786475243
0.364989173128677
0.376091976403191
0.370164188497824
0.369187185696246
0.365360382041128
0.364291973811117
0.356682131629113
0.365620424700741
0.361283886423965
0.363158035367613
0.361115291944861
0.356028095448252
0.355647681571667
0.360121242675208
0.35117011909753
0.359820052317588
0.343201545891633
0.360460961004462
0.34717683136479
0.357125367013852
0.349199614367593
0.355916029865499
0.341398838845941
0.352030371775142
0.339308730778158
0.354093262104204
0.339739225291236
0.340471528595269
0.33471794115197
0.333176177934104
0.322483604048608
0.338473930778541
0.328671645463648
0.331265280306834
0.327143639878913
0.327166195243418
0.321678850836498
0.324090764692818
0.314354125024782
0.312161493199745
0.315325562111445
0.310656235431019
0.300087438730048
0.303118188742586
0.294156966346115
0.304645123260147
0.297580846634151
0.297113761912546
0.286961045611266
0.29775347999345
0.287845198706957
0.28827672019421
0.283363263512813
0.290553720290103
0.285905716796175
0.288775105493033
0.281161993763923
0.282666350058743
0.275766601667713
0.277779058979344
0.269570994608793
0.275369490607863
0.269553200022259
0.271817527330723
0.262062203432895
0.271243780425885
0.266420443326687
0.266281065828933
0.258298948223784
0.262081444959501
0.257916101357795
0.260754123033509
0.252166794085562
0.259273748212757
0.255189904309814
0.256797350328448
0.256760078183038
0.255520723625855
0.248658323168443
0.254185580665966
0.246822830512605
0.251101836814263
0.244221304807706
0.246040762564032
0.244295019059062
0.243201993096788
0.23428473386363
0.241119870382493
0.233193849196816
0.238742238482217
0.22736923373519
0.237056160814795
0.231539296694402
0.234328484335055
0.226807845302867
0.232429478027574
0.225708089831759
0.226445826615628
0.225134206252557
0.231084484373682
0.220780455586351
0.223754009654404
0.218819001735926
0.220352989440355
0.220044602326197
0.218253031593229
0.210066328762942
0.216727175075938
0.211474448684925
0.217890299372129
0.211574795584646
0.212043812523463
0.20811421353905
0.21160767948899
0.205030137871269
0.206540670289533
0.204404224610536
0.205960883093409
0.203936311982388
0.208984020637624
0.20474736522888
0.206955569812709
0.198900247946096
0.202946255609002
0.198945144070241
0.205692592939604
0.20180177820316
0.198400789410492
0.19535944584374
0.199865939343199
0.194270137583194
0.196441084673412
0.196762049951067
0.198963743204581
0.195064651684056
0.196432504531822
0.193088964701291
0.197463215305296
0.1911087466285
0.194210512337912
0.191551869629851
0.188310933508099
0.186743664025067
0.188698583041467
0.18466145494177
0.188919054977417
0.184626532972324
0.185625725473407
0.185015281615453
0.185779584412618
0.179764985840927
0.185216285670239
0.179398735905573
0.184649601037456
0.182964792942765
0.185384517264173
0.178252769409659
0.184680706827262
0.177355054413708
0.182994347499295
0.178878299445146
0.178419471366868
0.175575812316845
0.174826381888339
0.173342194562347
0.175720864054829
0.173470935116602
0.178872502315483
0.172762660464914
0.172613075305289
0.172787223068106
0.174049476271382
0.171355926431229
0.171323108831033
0.165991648437467
0.175075817782798
0.170128714951512
0.169016309122133
0.170699739642795
0.172265064111613
0.168590831539194
0.173244634314561
0.169623178016746
0.170405658189274
0.16476601068114
0.171399092487867
0.1691934862181
0.167990549642464
0.166758097940231
0.169111203237685
0.162871846660132
0.167675230301104
0.159456478559668
0.165015359068165
0.167640883723456
0.166607766665218
0.164118930949167
0.164146070858931
0.162725643632885
0.166343836902369
0.162254888167602
0.16602800184896
0.158664336183502
0.162833582569502
0.15771667936153
0.159203661676748
0.158174051706661
0.159550610860644
0.152960556829339
0.158025250329008
0.157823379805353
0.15677334135108
0.156376715851776
0.156221725684791
0.152284814662349
0.154300749667675
0.153707956520884
0.156347286279737
0.152430513898572
0.157197357566637
0.151847005833783
0.154360258604013
0.15117745745651
0.14922561246696
0.147876782292279
0.14445609461666
0.148081737570799
0.151168105669458
0.146809355064986
0.145761442271548
0.145741959091181
0.152269725146026
0.141720018348898
0.142112318952538
0.146196076094108
0.144300452797115
0.143925341103464
0.143969000704704
0.140045265718933
0.140771656056874
0.138755090660388
0.144835898977683
0.14061945467773
0.142437549091256
0.140026450638297
0.142885920759605
0.13977444800408
0.139832891367228
0.137647583788702
0.140416642189132
0.137804935038366
0.138162688933135
0.140321038583526
0.138756474502177
0.137392768751841
0.14448003590336
0.134853226301829
0.139538280297667
0.138631871718804
0.137441925400151
0.135119777063265
0.137130621118344
0.129725480835351
0.132189656183593
0.130009957006938
0.132594843306799
0.130614916050054
0.134397992641711
0.130340589827208
0.12860338679222
0.129802235826824
0.133510715969857
0.128137195003768
0.127736695981441
0.124883159471966
0.130103439795981
0.125518029731542
0.124584262419068
0.119605930118457
0.124785970522134
0.120948900139361
0.125236838176978
0.124031646004441
0.12400339543761
0.124464208038776
0.119994538574878
0.121184724505067
0.12597312903695
0.119828411045902
0.120576224685033
0.121678318730977
0.120977724615433
0.116827395784179
0.122904122938638
0.119695792546628
0.121160286764421
0.119837141649146
0.121156702960586
0.11692374690891
0.119285221201722
0.118021520070879
0.11988928178331
0.118214245757069
0.1196515019815
0.113990188428112
0.120194538905291
0.122759912825012
0.117411341819996
0.114562905022306
0.114878764349783
0.116505192163773
0.117490806992326
0.115251206155454
0.11777803524198
0.115444324681112
0.117196174154523
0.117796606276392
0.121574554780684
0.115241088921744
0.115885481682102
0.11462815696649
0.115825181037259
0.114437619864645
0.116332592136119
0.11321537961165
0.115598975288668
0.113571783746334
0.114915810576529
0.112343632438321
0.112406227881825
0.111322378075965
0.111653536982
0.113840736833969
0.115077509724142
0.113775301550086
0.112941122586996
0.113271988074303
0.113841259493978
0.112588797262378
0.111882328002798
0.111177379479126
0.113233721595327
0.109957118313857
0.108796144687981
0.106654338117005
0.111068472862407
0.109865668963972
0.109530273571578
0.106217134734007
0.110156442268411
0.110239627347036
0.109393476545296
0.109550191921882
0.112483837061312
0.111032859093053
0.110087910365198
0.110802293069856
0.111163899778235
0.110028851250476
0.110159829077327
0.106284854703229
0.109727060829175
0.111507672458605
0.112109589133121
0.110403111421485
0.109205588391502
0.107676912600134
0.111961013040624
0.106870506688239
0.110028697788872
0.109175784410844
0.111646868584578
0.110090348295183
0.111127843567528
0.109894569942308
0.111471415106128
0.110009837114271
0.10824736088999
0.109160104478387
0.109275691894388
0.108104271873398
0.110114409273658
0.109504453745275
0.109775472530163
0.110003983161928
0.107496972808883
0.106275163069865
0.111372347377607
0.107681056610311
0.106508641249498
0.109493158832604
0.106902203303765
0.108550604505012
0.109987628634459
0.106293280797204
0.105949595848958
0.108064821963352
0.109737380467783
0.10579219738019
0.105865645439922
0.104816035836889
0.10870518505002
0.108259393888264
0.107986945937434
0.105393965609263
0.106949640798255
0.107302392003036
0.106750259589559
0.105228386080133
0.103549010461568
0.106327695075673
0.10795237501913
0.103681350569347
0.105465350804829
0.104629398407277
0.106476991705961
0.108093750942099
0.106871190005112
0.105919438689196
0.105555045779162
0.103158573134791
0.107493942177582
0.108508927744344
0.108390064328485
0.108215272688834
0.108884399863955
0.105732636608088
0.107426150524306
0.107338341266452
0.106598604905526
0.106266531098241
0.107771970575852
0.108419363971964
0.109624170830921
0.10939206528355
0.106643217645698
0.105891233307343
0.105039693571061
0.106485493198435
0.10800857188851
0.106204566416029
0.108367228268328
0.109151610792971
0.108887111576844
0.103943434783443
0.104115255016938
0.10640384687986
0.106143950746003
0.104160374075053
0.105727117643795
0.106774316127637
0.105841374361176
0.10579032299235
0.105058978456571
0.105451646989672
0.106468550346305
0.103049954897857
0.102603832235459
0.105734331176911
0.106246191602422
0.103932211653916
0.108588926973214
0.104575005700062
0.100712764828366
0.105918627542385
0.106362908464613
0.105553250489416
0.105956448434278
0.103254878566822
0.105558620403215
0.105975204597103
0.10338448690113
0.104996127653386
0.104529735158125
0.101552512462479
0.103309118324456
0.105127254171724
0.102231552955113
0.103500218891554
0.103291203115291
0.101841917981419
0.106679458155776
0.106050501070431
0.103030259196102
0.105644805965503
0.106124735125386
0.102406590062803
0.103356668485456
0.107057422703142
0.106201708307251
0.104583200568082
0.103206542276047
0.10293464495036
0.105865364478707
0.106892553396796
0.106179113049599
0.106321616883506
0.105600636463103
0.106133242181906
0.108060196630782
0.105052605392293
0.103299185632102
0.10627832098088
0.103845709597062
0.106589883722373
0.106145489138137
0.105078721582739
0.105264699502322
0.105616693034444
0.106898074776639
0.106088887972343
0.107248359683152
0.106650418461534
0.104863891163633
0.106668262321987
0.102842995448537
0.104642587830423
0.104354932733479
0.102957931442852
0.104473586701014
0.107891388555147
0.105962139509569
0.106850603126079
0.108303515509447
0.104282352490858
0.101910272028285
0.105951538476895
0.104077850467559
0.105393331169435
0.106334318734539
0.103098037262993
0.10578569428326
0.105495432910077
0.102922604423745
0.105230533242726
0.105723959155096
0.107491309444868
0.10659147903475
0.106789606142577
0.106532330595945
0.108346602232073
0.107524607761643
0.10454038552924
0.106703099257414
0.109011814966202
0.105322022361926
0.107470092807302
0.107359631531154
0.10856595803242
0.11151230564096
0.11272772220153
0.109436065235079
0.112242861103398
0.112951385000795
0.11318541275955
0.112712977060273
0.114543055863729
0.112403498935232
0.115050124858841
0.112906064549241
0.114458512161637
0.112000930740003
0.110108686370431
0.102755772971128
0.10200249465019
0.10483073246877
0.114628451091031
0.117224643131724
0.110407781944149
0.100940713803782
0.107700156932837
0.109879809198118
0.109306256087451
0.105429051701322
0.109144993139215
0.107560915354843
0.109153884231772
0.0988009947807887
0.104688293581257
0.106515236285575
0.107534137009242
0.110851998278081
0.107933083264269
0.107367090991887
0.118970809881397
0.112612322102645
0.112232112798547
0.108883598489753
0.117463848400745
0.107040621891973
0.115835434116029
0.110678909309438
0.114096549830663
0.11004671666781
0.116852915524412
0.111415695518636
0.115596520675067
0.107726427094676
0.116397958653166
0.107398631742522
0.109793568052998
0.100834439042659
0.111230770220642
0.112126029458863
0.11845214315878
0.113987397780119
0.119664944832207
0.104790844810943
0.115727553246202
0.116468922728366
0.121936508006361
0.121119656282691
0.109498392928868
0.115744378893136
0.125495057678499
0.125649685340446
0.111648052251824
0.123929069225485
0.117594550460971
0.133751427129252
0.108654343795973
0.127685203605604
0.114024336955986
0.131212383472329
0.113228919611249
0.13367375236666
0.115294315626945
0.128313581005678
0.125041001605472
0.125718279738915
0.119318628561916
0.124143608498502
0.123805498259448
0.118909086467257
0.122779754232404
0.120449181433471
0.121255728866616
0.12504943030201
0.121199676035329
0.123570547374072
0.121034928347326
0.123482018747888
0.120156003314433
0.125118345471672
0.121925286819983
0.122262152866497
0.123179048036221
0.122866507761378
0.11981702289759
0.122410174742563
0.122984858715367
0.125414755176463
0.123629948025685
0.123030286758071
0.122250046292234
0.124232521606848
0.121252401235685
0.124949280000093
0.125335396876485
0.122195069930893
0.125459405232964
0.129932800194467
0.12463891640142
0.126289579813353
0.126826517237774
0.125776846865508
0.124136314860765
0.128502638043887
0.12510588084648
0.126397664148915
0.128427687998189
0.126866658671833
0.126017776531381
0.128058244812503
0.130333317521783
0.129515281204541
0.128077715280576
0.130338186442506
0.132680471728705
0.133848933730723
0.132418255907907
0.132637989229544
0.130392520259783
0.132297411316836
0.131908867266302
0.130958056291456
0.130532957809517
0.132157094864125
0.133435047388338
0.133632467905943
0.133586882992371
0.134280343957264
0.132505658194031
0.133703488966963
0.133176999477685
0.134386295357052
0.132509201646691
0.134533992325164
0.134142863898454
0.134204570675292
0.133310656789945
0.134778481367516
0.136436009685988
0.133736409879441
0.135349405891604
0.138636365268354
0.138241690499454
0.134409250881054
0.135955779871497
0.134864029063839
0.135000941902392
0.139422826668353
0.137892744443827
0.135569516778181
0.139142482096759
0.138245142148961
0.138220800761902
0.140920707347504
0.138072525275149
0.14017657561572
0.140986811663017
0.139409821029861
0.141288063999637
0.14038704366101
0.1402716605661
0.143129528723635
0.143505419749744
0.141322795342828
0.143277702687383
0.14259805718386
0.143903600556263
0.145759234858169
0.143737939065094
0.142603109299557
0.142604829498375
0.145961198441138
0.146892104822789
0.146763923389487
0.146106092087942
0.143502186578663
0.14759721233428
0.146289326210455
0.145954908552562
0.148189417907025
0.148596749302732
0.147986085278009
0.150412929518999
0.148795036293032
0.14698822693139
0.147989150431805
0.148286453669253
0.148843748402664
0.151942620514679
0.149423919998843
0.149038418202791
0.149584159680117
0.149404218174801
0.151246371932041
0.153361983479779
0.151227855561862
0.151338941289278
0.154511828239205
0.149725620439174
0.150247836117798
0.15318637913777
0.14928208566398
0.152245748720873
0.153442547458366
0.151039795191432
0.152185424851068
0.151580959560936
0.151626570471118
0.155819072751971
0.15335827937323
0.152069505412338
0.152265752422699
0.155054422148415
0.152544685891064
0.155115403199009
0.155112154449703
0.154351446686662
0.156768800999795
0.156083231820974
0.156106349116277
0.157846447542603
0.157722352316957
0.158757755364351
0.157877640865726
0.157260195906564
0.156749899322577
0.158408728916547
0.154104611870603
0.156680666895665
0.15768156476172
0.157767704013099
0.159404573106059
0.159979207663599
0.158459842774107
0.158957744219109
0.158953003168127
0.159756056825008
0.160748250194138
0.159492219808531
0.160002610461283
0.161514101973131
0.159738362694587
0.160226152374318
0.15886535533091
0.161316343101484
0.161637081679846
0.16131537370805
0.161418917869586
0.163809518205422
0.160509805916647
0.162248141878147
0.160853229205211
0.158761356929906
0.158994854987534
0.160129625441637
0.162587567562837
0.162024723731601
0.159111639797781
0.161009748404586
0.159912548185409
0.161101355487542
0.160674409801814
0.158450676107652
0.158405633702383
0.161343316761943
0.160618105108612
0.158921156586883
0.157666628318954
0.160159716966681
0.15748833311838
0.161201507010448
0.161632062053846
0.15966374703404
0.161924021245468
0.161581481705639
0.15952966523731
0.160508712430436
0.158378013794976
0.159921925784386
0.158682642992316
0.159102198876735
0.158258195143316
0.160616256235716
0.159283603581152
0.160740345470574
0.161742282023706
0.161116121218903
0.158993209723495
0.161777917846137
0.158391548892527
0.16013755853339
0.161051637412071
0.158789983655117
0.15844276063859
0.158975045119363
0.157591890016333
0.159457231106833
0.157935247929489
0.155521920551332
0.15864660696379
0.161983754088992
0.156501101432225
0.158579523325996
0.158810449047818
0.160149016243427
0.158157239981254
0.157617140056186
0.156158449649002
0.157423585067897
0.156156979109873
0.15654987341105
0.156948996081112
0.157887253930426
0.155414856732118
0.158454586758422
0.155532245838985
0.154948741143945
0.155019958809234
0.154104114448449
0.152759396996643
0.154740515225938
0.155360182270838
0.153732003568065
0.150946892419842
0.155619569449762
0.152309927147502
0.153841137276413
0.153695029615827
0.153430117424929
0.150136466729647
0.153117482766848
0.151725459383915
0.151520091888481
0.151747436398196
0.152769853550395
0.150432571727398
0.150941010875369
0.147539971116812
0.149787683400876
0.15073347467764
0.151790257836949
0.147900123921896
0.149099159496313
0.148785224315003
0.149501373002841
0.146244192752761
0.147309271476082
0.147333725300485
0.148919628906327
0.147685966958693
0.150387819308145
0.146654437090615
0.149099361747873
0.148167604678129
0.149245775328696
0.145547804635708
0.145162294096306
0.142518662079452
0.144973834548299
0.142031689985336
0.144817604052116
0.14339889171612
0.144564593430338
0.140877624372652
0.142456127407685
0.144376939531974
0.142828258179001
0.139921194496519
0.142223594572148
0.139072706430269
0.14132630179823
0.13984929141206
0.141620768255646
0.139769493353596
0.138955020627124
0.13529512095438
0.141145444537015
0.136970427551433
0.139624119533783
0.14127875626415
0.137557125459906
0.134234065683216
0.137292514258665
0.135457518823524
0.133617301959573
0.134512546203289
0.135216071128766
0.132830397958104
0.134490798589566
0.132101163950268
0.131601145378695
0.132537451724186
0.131852482671071
0.130168289994377
0.13162942594863
0.131011023420652
0.130752302200928
0.128357173103011
0.129833463597512
0.129812069891114
0.130011038785528
0.127258313886286
0.129357867273855
0.130161510982572
0.12487911773445
0.137885860613013
0.138943812862003
0.12941950302133
0.127810850512579
0.130683656067825
0.127844217655051
0.125233581582675
0.127347431993133
0.124647471579554
0.127653584053835
0.126534811081986
0.126467770047334
0.125597412143645
0.125494575690839
0.125533591484154
0.124900020304546
0.12276560968321
0.125036750551776
0.120668804416002
0.122541147689887
0.121383259677135
0.122122472688834
0.121709549096411
0.122435130093704
0.121704081688482
0.120620273972752
0.122286738531778
0.129784769546532
0.125406441793928
0.123569550694273
0.118184952099156
0.12067180227988
0.118625695926572
0.122351942781498
0.116948522992945
0.118490646021857
0.11562845062491
0.116465066743686
0.114400457152456
0.117347346333187
0.115633409833884
0.11754224943265
0.118353226701262
0.1167458872948
0.113236854980259
0.117474512694365
0.113313980904593
0.116127255855502
0.113613466881368
0.117749258008123
0.113257318866849
0.119420453934479
0.107774261260586
0.126208251767513
0.128278005112489
0.119674055154973
0.111917391171907
0.114802055746574
0.115241710691195
0.111575323267689
0.109761632403213
0.114488131649531
0.111206133389194
0.111949160648487
0.113524097309327
0.112354525061029
0.109763772190077
0.113276490148256
0.112071630674483
0.112656722516757
0.107921531625009
0.112544898894989
0.11179496973885
0.109355599437967
0.116953561883129
0.127965312921362
0.113209309942593
0.115758408188362
0.108120518451986
0.114911765593549
0.134121277413346
0.115851340414559
0.112509630701685
0.107879104352776
0.113437760237065
0.10609968266268
0.110548173921331
0.104590621132766
0.11502384817043
0.115076442572128
0.112841479110528
0.11077287919011
0.108857286171818
0.107765085139032
0.105977781012006
0.109115657719724
0.107002483318483
0.106959303085086
0.106694452090782
0.109223006778905
0.108119841850904
0.105835983487507
0.106488892938632
0.103318787372115
0.116061528834562
0.112143274941652
0.108566160598354
0.106155509829656
0.105659489483785
0.101718175961705
0.120235950449673
0.119413024280089
0.108749696327702
0.106362719156132
0.102147434253913
0.111029819931982
0.106614841426006
0.107997219386009
0.104201530653337
0.107230978568261
0.102346776502583
0.109857162077038
0.105582265637896
0.105251819942129
0.104205059421998
0.10831675798865
0.104077483126999
0.106969791419607
0.105098761167012
0.107258412510977
0.106228778240891
0.106767485912164
0.128565589580321
0.128291115697135
0.126883030918805
0.117107362728763
0.115266564493746
0.106038628874723
0.106835741050261
0.104241119859146
0.108577090262455
0.109643761451383
0.109607543085582
0.108163789679692
0.11075939811011
0.105411346130094
0.107106919902931
0.105848679631698
0.107509853453624
0.10478333992441
0.103829202165869
0.105838340377404
0.105346978152562
0.1071918554523
0.105455544352821
0.118776491889769
0.111383789531237
0.112416644411787
0.100015912260289
0.157423742600429
0.121561443829095
0.12190519625257
0.106968985647684
0.111284433161375
0.104673860553188
0.107357438612301
0.109260750834154
0.113908926904281
0.106293695251565
0.110178895866231
0.104257729993394
0.115146668214115
0.108700287256185
0.105391576554326
0.131387697712385
0.146529490100054
0.11610485427591
0.121172282764971
0.100031306387897
0.133148408503579
0.134475683119578
0.116359129592133
0.115349685570426
0.112817619720938
0.111320230488355
0.110346198159813
0.109616570310625
0.11198177812994
0.117571359246481
0.111653471266587
0.114958150732123
0.11181628657591
0.111519978936634
0.11645262542821
0.113508819464408
0.130168073516258
0.119376674805763
0.113517195389152
0.124206856592391
0.118984106205048
0.115160252283501
0.116199832138719
0.115366024893764
0.110605846787771
0.131870576852747
0.131652278625125
0.125239157815901
0.139686850738559
0.128585425702133
0.116931499677034
0.124543984201236
0.125870741904594
0.134841189145861
0.107019708945207
0.154688328641598
0.140802198229141
0.15417212405056
0.139320280797697
0.125091273153231
0.125592825679687
0.121244382879815
0.119801688027056
0.123813148080643
0.146745230982808
0.117394794313997
0.136756109831523
0.113122368628827
0.150538820602712
0.132491291914328
0.137719393669718
0.12839974550147
0.133359791496578
0.122428368083086
0.159453138536307
0.12365052649689
0.141551812138549
0.167064580726365
0.170087926227882
0.170355793418531
0.134851244519423
0.14420425478615
0.175214505971891
0.140300925750922
0.147398748160845
0.130619515029261
0.149309070109975
0.1276099841996
0.158686484178908
0.178102506222177
0.148247708589186
0.151057299989259
0.149966020901146
0.147699183018969
0.182631296837675
0.157451812004431
0.152966860713709
0.149427018971527
0.156732233573681
0.144531851596708
0.231874160618232
0.157609742418259
0.197297501981633
0.177110926496501
0.19544459309621
0.17070440125889
0.180744915206349
0.162971452591745
0.195774556160498
0.187806237664642
0.181381398730192
0.160789068700793
0.216359591075313
0.189675935271601
0.187323756749993
0.191367792725057
0.179667448116167
0.183975012880102
0.250922185816732
0.247471380919899
0.230505864039018
0.193256964726273
0.212657646365708
0.226816623336073
0.205623712215072
0.201228268920412
0.202315646993603
0.205993136299607
0.210539325798922
0.210686373922333
0.234285002244384
0.21335511686101
0.235377280559627
0.217350013402044
0.238884883346773
0.251476660927045
0.321248446800087
0.270186080905232
0.261087989659963
0.296106086858802
0.27490507713578
0.26944272945654
0.258401183237861
0.265623424547756
0.283830423526274
0.280410792764994
0.280527025310181
0.27849493148571
0.331316106174195
0.297123612158048
0.341700390406475
0.312379403033191
0.321171826267609
0.312318056064812
0.356756109215322
0.515838815533337
0.351884174735898
0.38000392282183
0.340879342890921
0.420361190997012
0.433867041102863
0.389454003534094
0.374989556389966
0.386541027200227
0.382295469140843
0.406548392841494
0.41284543274608
0.423292493103195
0.443699370682198
0.435784506370267
0.434773992764259
0.496118211932888
0.549629086893377
0.551022393030007
0.487956946445254
0.489234709044163
0.513594149124438
0.521565425697206
0.503432567999502
0.529187793241778
0.505888513093335
0.570870606390204
0.598619819815436
0.568680380314725
0.556962855534948
0.573879638286094
0.614648355622607
0.573772806161221
0.689104169050062
0.618805539452874
0.636923957845808
0.606955740134619
0.650559355190177
0.624285322409929
0.652335597700747
0.694061409407773
0.686157929157966
0.675862019221582
0.688143815228474
0.6834570884061
0.705910102840382
0.705644761095623
0.711338057372145
0.71507022337794
0.782966191162787
0.726666309266501
1.07306584465813
0.791203704655515
0.774125023782057
0.754736451013518
0.776031570171976
0.825949443090152
0.789822025823031
0.875930068017012
0.820479096616811
0.80190618899933
0.810700485791169
0.788510402743932
0.811863442704929
0.792814430217925
0.831050597681097
0.790664139257275
0.893769829409354
0.780285891056043
0.932138761300034
0.88773629632036
0.82310794272333
0.785024637197713
0.809004219038472
0.782709981798341
0.803014586298757
0.779837694685337
0.827285460731467
0.825269437780871
0.792746691290717
0.776006298223182
0.761581010165706
0.81246083481064
0.788027478379002
0.754522136434015
0.756304370963743
0.727205280555546
0.737416625937993
0.689556086521118
0.779148608010547
0.748642272852215
0.702410283526331
0.687272616672426
0.672815575562541
0.647476004003386
0.65603596966457
0.64507924132992
0.6440459223409
0.638283269861731
0.626135378192817
0.624506186039036
0.603713418845904
0.595130941095567
0.590625857731258
0.595625505651232
0.577545758947947
0.57302650301958
0.567922145018482
0.559891434014128
0.548946760254001
0.538967967968267
0.545505710604946
0.531505835752005
0.530863114973974
0.531726697246176
0.517569449341891
0.512829716561739
0.5061985547974
0.501044176966086
0.495775239440751
0.497315580857587
0.488145804194773
0.48402889023598
0.481215028198054
0.471582364014774
0.471096809830287
0.464381837441372
0.467134961848939
0.465647973488106
0.460991713951392
0.463120506442765
0.462683452435853
0.433925568281916
0.555264625219519
0.458888955750755
0.46004837849803
0.431558091927585
0.4471795277457
0.428349074224688
0.435809479193494
0.503985860862389
0.455377284032333
0.429519842711356
0.429520200798797
0.412473191954384
0.446636143286175
0.423232169643865
0.415628262128764
0.42027254734839
0.396469050448836
0.505465841761738
0.460457106555289
0.570164360774015
0.495892985936582
0.440635787499866
0.38463346634668
0.438720396599849
0.435511471880581
0.396720909297254
0.39601221796655
0.373375594368679
0.461009021307921
0.395577503074663
0.394406983354941
0.377747158162559
0.371167126902127
0.414488118874941
0.423372984603998
0.384061744369432
0.426252404917109
0.41877546504399
0.406450395513027
0.444245899288965
0.459678445966198
0.397889152825009
0.359814758903462
0.3691849371168
0.348496161722906
0.374481325000299
0.420190946516912
0.35629402683284
0.382223794227875
0.338410874651493
0.350015703175713
0.345454454162104
0.382734051854338
0.339336499098244
0.36642485249815
0.386655665502301
0.328237025436922
0.36664931955007
0.350129920729195
0.405659512565473
0.394498285460373
0.352265282094313
0.316122740308303
0.400615076626448
0.363089169049072
0.343198855072626
0.350516898873215
0.306103056535668
0.336182620835312
0.347010494856771
0.310867560988269
0.357675807769055
0.331518024438937
0.357495906657314
0.389184724250123
0.415821814348082
0.39488668437161
0.319817401989741
0.304672890990174
0.304494224040864
0.311253403543862
0.307200735973679
0.287702939587242
0.367433581875067
0.296850226636771
0.310655575063867
0.359891193483988
0.311470188016311
0.300304559537641
0.305216342020694
0.292081661607578
0.314171220961123
0.339546423007903
0.368116644734803
0.311670673588838
0.33868152838619
0.327282030167554
0.308325982967404
0.303921560598517
0.306398717453472
0.30599544723386
0.310971081026055
0.32798471767212
0.313326230240447
0.309559634497154
0.319626490639505
0.307822414259675
0.364571295163344
0.350017287978199
0.320750797087118
0.377446640922497
0.344428913528064
0.418269774706267
0.342301911664554
0.351917014202743
0.337985659831429
0.343359518621683
0.347253874487377
0.340562626454552
0.370617696104109
0.391854712250369
0.351084544391479
0.361264869352646
0.345364941566869
0.364469637048283
0.361064501416919
0.421563457639275
0.373309286222587
0.498807632901845
0.40592189915821
0.408053037920365
0.373242823141581
0.368067586743843
0.387241802584293
0.371450852672897
0.369445067199694
0.366583488916941
0.373980888407212
0.407444010849028
0.370366564301621
0.378213765009814
0.363900202217553
0.375128106125015
0.36708177858372
0.373789489216959
0.370794533076021
0.375201643915839
0.379209212521552
0.373205550919431
0.386922641258674
0.478619411134642
0.393213186165128
0.394331781402007
0.381632826637904
0.402084922973709
0.385677414008535
0.391615934366895
0.416572930087784
0.405688512578601
0.397009801024823
0.396868145503538
0.392408802090961
0.397357282026369
0.413754161535562
0.428250801927324
0.385837061704968
0.423349499478368
0.377153961614574
0.480051862068745
0.439592457821307
0.43253004002148
0.416954671808852
0.415542262540065
0.40606960828414
0.40886248766998
0.405313259943024
0.409818033849136
0.408418425603982
0.406861953768652
0.409585569278864
0.405228661774942
0.410618835063251
0.403302886298569
0.407303646676396
0.435717077812345
0.404306669494976
0.410870981822146
0.395927412601356
0.403431455053186
0.393259647507378
0.441135973653162
0.413899217233518
0.419560366448165
0.409525711243991
0.422452797820175
0.432623867168083
0.421181130209481
0.397762010403487
0.407790215213894
0.395080904153841
0.411207968650861
0.391801342506445
0.429937531603876
0.430770906006728
0.414785778905721
0.405975831359789
0.407468663907923
0.409189460627359
0.4136802041287
0.412127444032985
0.414875289984501
0.41083552650995
0.419410779012447
0.422238715245554
0.417002350715373
0.416733348769835
0.438216992146308
0.442920897669864
0.443058874151573
0.417182513724389
0.424844534710919
0.408757611171556
0.420366495035113
0.42425202749784
0.422333162490644
0.40744418707828
0.410933860843849
0.402574812641279
0.414707853522678
0.440516802526406
0.40298946038989
0.421439163627388
0.402567507489623
0.398949955350246
0.401468760501912
0.396110835281222
0.391922020008842
0.39319204799997
0.395600489519086
0.391161865194066
0.389240035682534
0.382450072385967
0.385252115293184
0.384914383376133
0.387335581117317
0.383611956809569
0.383515347810508
0.384069100953724
0.387393739118248
0.37832603324286
0.383503823230608
0.379473598696029
0.380368138600305
0.397652252607389
0.399734935884555
0.40461749396805
0.384249173234676
0.388669218830719
0.385097790995472
0.376030438054978
0.380510755399359
0.372889756251502
0.383956656041134
0.374263792312463
0.379127155652185
0.379471241442568
0.379962913607622
0.369928564635456
0.378404788881095
0.370389955686565
0.374693834852121
0.371214300176644
0.380274934276327
0.370851353514978
0.380563748826565
0.371183377346606
0.387425758322338
0.374096520850706
0.37888559430049
0.370809970069293
0.372006450214333
0.371929321218604
0.371498572960684
0.374652078434206
0.36878112797094
0.363164415134227
0.371519350275159
0.369320205526276
0.370606031501986
0.37049634789324
0.368698535225127
0.364486751686168
0.365748715224347
0.362247383296075
0.36260845859425
0.362794651017297
0.359861903562563
0.359017478907678
0.35966948675079
0.354001948672664
0.356317213132486
0.351531487642778
0.355380499677591
0.354636344873353
0.353741566866336
0.348453998963037
0.349483579627995
0.349677792504264
0.349679307375438
0.347551892390257
0.349073902581768
0.347777518972968
0.346656041579937
0.345783901776287
0.345857119341782
0.346530569163934
0.34418796219945
0.343212297071628
0.346927238169947
0.344083862256599
0.34254360709826
0.342053242600469
0.345717261976844
0.343053605174824
0.346504399554664
0.348946597649025
0.348093411184343
0.353566422654653
0.351247956222983
0.35109107907753
0.35246761131491
0.352105500320728
0.353551391219279
0.352576730194883
0.354895680579102
0.353025413853731
0.352738532781198
0.356966907956854
0.356292095083565
0.359248821707736
0.356901193101696
0.355643313259286
0.357731550233093
0.354093795171683
0.357511495442096
0.35203556354471
0.352390629836777
0.352692265924615
0.354204884032284
0.35074562794846
0.351800290962033
0.349045556857486
0.349566139597268
0.348775650057908
0.34968103501742
0.345957062158799
0.346098759065199
0.346289460961415
0.347360437524324
0.343298021833336
0.344992184830017
0.341402124396805
0.343881244872026
0.340935420427464
0.340217808602277
0.339202282429629
0.340288449726359
0.339224086779264
0.336848102931614
0.334200463259951
0.337361771355639
0.335523712917796
0.336109657100675
0.333818277219901
0.335660225406589
0.337216804776473
0.337294458790848
0.33690530934087
0.335778034085199
0.331430530514842
0.331110025091726
0.332542898961271
0.330643458694461
0.32911219259899
0.329646472942249
0.32606937558842
0.325626692629405
0.322925767961321
0.321095284923791
0.321123113310574
0.319790359737514
0.319593473806767
0.31693513232684
0.315809488039542
0.315589202952677
0.315118349936573
0.314573866953785
0.314509438310582
0.314658884368511
0.31292506679558
0.314028222015295
0.313539552701649
0.312472265383686
0.311031299824423
0.31260263915397
0.308155518971446
0.309468332824243
0.30677698691545
0.306303463900787
0.302616807968019
0.306117928735318
0.302457207618709
0.298549797865463
0.298699648972355
0.297563223185943
0.295040149168454
0.293540558169811
0.293145298971247
0.293756929237806
0.294374245743682
0.294523190159645
0.297519444752925
0.299253669419905
0.296985574502293
0.300045424216785
0.307293212288625
0.308821775736839
0.310381640410589
0.319904747457859
0.320850647475567
0.3282079805489
0.333795348899077
0.340013139767048
0.351378782801231
0.361963917002364
0.36649205726063
0.373835013122988
0.381226310683446
0.392124618823234
0.40021907784352
0.409396479481524
0.418638566475794
0.430815337989601
0.436533902813975
0.44197160955696
0.448595078765292
0.461161641119593
0.462498517559438
0.469512824190764
0.476618058142701
0.478744083066142
0.485708952778193
0.486222930603149
0.483525202811035
0.487008198685098
0.489118752873352
0.491381519023951
0.48890775279347
0.487261185719421
0.484506479142737
0.483847046537656
0.481777210100215
0.481352191260848
0.479428554800537
0.48071585874682
0.478008761823779
0.474767372319589
0.47436924952173
0.479336987652576
0.475926401954075
0.477238998141059
0.478965666164659
0.482438506131959
0.483015218560259
0.48511004171377
0.485036725080193
0.4933354289205
0.49520651569289
0.498656104865081
0.503598985890951
0.508546196715268
0.512888136526723
0.518739478720834
0.528496481768308
0.536077845098512
0.543224051243846
0.547539916922733
0.561930762270884
0.566612045964645
0.5701249600715
0.574460171487379
0.578638676323261
0.577687478141993
0.583870657691436
0.579514577312502
0.576318915915551
0.578756015474042
0.574819066826546
0.574653076912379
0.571438646884893
0.569491808329115
0.562183304466855
0.557790182581292
0.55889747955199
0.56187273614517
0.560247195053801
0.565175846307484
0.578370279235977
0.585091608852219
0.582788031778656
0.591335375578364
0.602657631962104
0.608151980024777
0.618677908264977
0.624372287860569
0.629111809418503
0.637751281300971
0.644797366925718
0.64694716101866
0.656101178047136
0.665588044871875
0.67337882193097
0.681296690269934
0.682698734847848
0.695488992896388
0.703626383928813
0.714433160056727
0.725575416495864
0.746018526845571
0.748322540921174
0.762967801769592
0.785952406304471
0.791773701853565
0.798805749810702
0.80682476810726
0.82648928634094
0.839755293421783
0.839180590015598
0.853419574034065
0.850058128398278
0.86556627564069
0.861337416398671
0.862446778884989
0.863873298275229
0.855396771231443
0.863355662401715
0.858220972289656
0.849965287401793
0.850709554785628
0.844609954026018
0.84401651992474
0.827605707437337
0.824265397257453
0.824728137080344
0.824464723211858
0.839385451045916
0.826836872914518
0.825577670050574
0.835097908189837
0.836237075776965
0.829708017388822
0.842607593989271
0.850384065102521
0.853742280207274
0.863922006609226
0.869606891115035
0.880483505653721
0.880877267491024
0.874084663506292
0.885163854601638
0.88960508262327
0.88163829564715
0.88488264682
0.892189123823163
0.892077938066533
0.897168678046685
0.902259399819053
0.893091120238952
0.900084575545088
0.897953604299228
0.909888955504417
0.914897411024181
0.940037011630044
0.981245424403283
0.940657679494885
0.917131275827254
0.902656496134904
0.900357221938932
0.889010014879117
0.890116166398121
0.881832640631309
0.87547913477215
0.876826327930417
0.877761621323717
0.868431154482682
0.866982340182373
0.869343835385886
0.85467663530467
0.849073008273857
0.847319658281161
0.828817908832373
0.823741321286072
0.794530400529097
0.776229020919284
0.756767541290975
0.741227413867312
0.718017128912603
0.704692614378262
0.684337623983458
0.659387012478475
0.648707345267135
0.63006226841693
0.616437200113939
0.60441420978283
0.605258530173502
0.597915957077014
0.5997425160527
0.595400515843379
0.591918567260718
0.597931904408976
0.594287253266612
0.594411334394432
0.591983932997711
0.593382425251991
0.582383138369481
0.58104709711241
0.575725701383562
0.577541165105368
0.564364436074469
0.560084180139419
0.548818445358712
0.551115426588643
0.537411203377133
0.534391772542273
0.526539849751161
0.513542643640311
0.505335463160596
0.495473226698269
0.484906971133248
0.483470506669976
0.477159124122234
0.461485946225952
0.456232196296499
0.455024743228961
0.436809429516351
0.43350956340165
0.428542963150226
0.424178261382525
0.417527501457796
0.412880857736294
0.408730358421562
0.407455481637717
0.402058072616476
0.400699252856961
0.395742408441988
0.396915681778849
0.389475259656969
0.391952090497475
0.390832107567614
0.387698479354147
0.386129437706624
0.388102236572543
0.389708526675696
0.395509954391499
0.39396918360517
0.392840463324022
0.390108479383293
0.390867897753623
0.393591665540657
0.397599676553585
0.395323090567553
0.402276850940682
0.403706678780077
0.405011028419468
0.40777629054525
0.406366440662616
0.41412194780312
0.411108632359906
0.414758270801141
0.409395807899492
0.413923241014679
0.407379218207349
0.40614889817464
0.411292779567818
0.412533988662108
0.41703432314224
0.416985375484677
0.420834502831525
0.419506967060086
0.419905136728549
0.421992146023473
0.413636070732304
0.423863564927046
0.433232674209459
0.430103233079609
0.434319606689706
0.435568935571995
0.441636002336069
0.440275849139778
0.440174514819626
0.437354838629536
0.444884359057436
0.449128948759335
0.447895728374315
0.458596601336677
0.461169885080748
0.457528487489974
0.464229098631186
0.461357823370555
0.462296668197091
0.469188933960281
0.468918598348998
0.468409986665135
0.470044177800447
0.475482707430225
0.477252448830669
0.485140029544458
0.482148584452451
0.477188287296616
0.501355967098253
0.502222971675789
0.497028007274032
0.50755146223294
0.507616913920458
0.50707175495176
0.515029422325603
0.513383033700476
0.534105689471439
0.551113985349164
0.547272111340668
0.545153613697611
0.559782730978096
0.555562127614098
0.559720139860488
0.55910432177973
0.563104525159659
0.563725386349271
0.559387945342549
0.563557229766444
0.571873230389027
0.570979581345192
0.57337877963121
0.565315868460252
0.574297623486679
0.57735944916458
0.578526451859787
0.577474391646874
0.582847653061477
0.588083993251603
0.585748583992828
0.582928523550354
0.598780183841487
0.607768858245856
0.601302203720402
0.599651831308734
0.60345122864397
0.612214930347442
0.616235275996081
0.606381322470294
0.619404497084222
0.615135865170519
0.618705764461082
0.614341023705544
0.626521552813654
0.630391894425943
0.629840410471864
0.639514351124772
0.646331316066441
0.645237031869415
0.656751780717635
0.646712872728732
0.6439305565198
0.657235986877859
0.660442734021208
0.667207494950266
0.682932360590098
0.655070154242411
0.669791259146304
0.679550060935535
0.685417880733668
0.676542247876312
0.690075393035769
0.668977854989825
0.690030502113441
0.699575281123598
0.686246268795211
0.708854396409237
0.715110691805185
0.71119844242913
0.71968385735461
0.716019674576131
0.703126991422216
0.709753846002608
0.726045823867125
0.726637589585234
0.751872192896512
0.731484952092607
0.720226329819966
0.758218864342801
0.760311578821661
0.752564809251081
0.767660420587608
0.737012275961608
0.74964102642127
0.776104052187289
0.761293992165669
0.767716075951593
0.776799515294708
0.772136606535402
0.781542731363838
0.788227909520126
0.815439341190345
0.806339245396435
0.804890883203241
0.79132647055068
0.806380018262071
0.824344525584421
0.81970418455673
0.797159458850041
0.83241213904688
0.846060075018608
0.842273650747485
0.833285592503197
0.827765495617101
0.830041204588653
0.87786542163372
0.863432931514577
0.903638661205923
0.880448366829975
0.87533274973362
0.902202882737855
0.906497136161345
0.891192073761814
0.890904335233743
0.91340682507135
0.890692180551558
0.876897740646568
0.917153675084081
0.907292231412969
0.965045996994041
0.962710308348496
0.956815204343872
0.966598802981237
0.969650637717219
0.989981758439796
0.968166632418515
0.949614240598797
1.00843386719096
1.00007630055043
1.03547253156225
1.02727585084864
1.03139741320181
1.01160776732901
0.990324100146111
1.03020704148318
1.07320155539922
1.09128901584503
1.01566975040568
0.955724102842324
1.02757078704069
1.01082113111728
1.02755645434889
1.07603001984055
1.08772074207142
1.06600748554833
1.02267868999439
1.0698323800619
1.05752324222999
1.05885602687479
1.09045664173699
1.05335083514933
1.14311803696221
1.08112514922884
1.14258579945215
1.12871734529222
1.10416653328799
1.21073351949175
1.10756989024111
1.13604073813032
1.08708616393124
1.0953449201895
1.25439241048207
1.14072049742224
1.10707796319346
1.11538610850295
1.11502082040061
1.21300728470425
1.20418895226407
1.10549216199358
1.05911763304834
1.15999274400862
1.17357093432863
1.14315927530577
1.15157035214812
1.1406619943198
1.25922572561706
1.23249502343282
1.18412529208171
1.13386997190125
1.2156741121413
1.18775973364782
1.06566792522911
1.15620661521023
1.13320941036464
1.35412771059962
1.44346444602465
1.08917361403865
1.14938665148478
1.30643843290618
1.17304850580638
1.31196261125357
1.16807362565608
1.06863959104105
1.15703341638443
1.28291360237735
1.19834809037768
1.31189266772938
1.52620236082029
1.35843735346569
1.58160682439125
1.50979289161132
1.45435016728918
1.46348481889286
1.39847456996749
1.49722990343664
1.36176537079953
1.28522047095057
1.41612698647891
1.39552073980024
1.31479544815724
1.45474218364385
1.14982697135127
1.14512510546371
1.32522218454682
1.32233732375666
1.4360160782597
1.37512635331444
1.2879699553503
1.24387459880922
1.33687287710417
5
1.70898737005919
1.28238070018919
1.77016482685032
1.62403110795455
1.75184274362102
1.34661014754114
2.12896005542463
5
1.23334693056078
1.42017550461625
2.37435732122725
2.31116387342016
1.64739166884466
1.446459605143
1.85258166335816
1.36739489433083
1.28859457946752
2.05248193820271
1.52925888200259
1.55538049337998
1.23642585200024
1.11948092348285
1.53025823498854
1.25847843091198
1.11347580418923
1.72717981811646
1.15871512282431
1.49541266863147
1.73539609619584
1.28878077374937
0.970695439672009
1.75782551299101
5
5
5
1.11259304972591
1.82741601163437
5
1.85397310560455
1.20429915650965
1.2377969505086
0.958560850111909
1.16007525549378
1.64185181341055
1.74072403863644
5
1.62643538534691
1.03950043970651
5
5
5
5
0.931194979785013
5
