3596
4000.36533379555
650.420452594757
1
2
2
0.0857179544616706
0.0875261153600582
0.0892747592142925
0.089617745979585
0.0915648495593318
0.0922679793076726
0.0928162974268385
0.0948007072429302
0.0928806721152885
0.0977848797081998
0.0931611495393457
0.083784455358796
0.088334537004217
0.0877120634620961
0.0933297423320669
0.086307865811647
0.0840106488364918
0.0879011310338873
0.0856613168251441
0.0846891378215838
0.0825255861951737
0.0838993536331805
0.0880063408605717
0.0891356439594084
0.093613576208322
0.0909496072481578
0.0863976322106664
0.0868221343012239
0.0875021193927097
0.0940223408124243
0.0860559318260561
0.0942173969243763
0.092192352906789
0.0837984734968351
0.0950047057843533
0.0930960834047089
0.087790085144291
0.0891108300137028
0.0851473803013734
0.0938477595097993
0.0956783134559862
0.0990515369909801
0.0874276395148874
0.0914608239044135
0.0882462123452238
0.0848723154447024
0.100655518012831
0.0852613453748645
0.0955345777656314
0.0924324565629672
0.08719128132844
0.0864937032880472
0.110129946476961
0.100686184641369
0.101050098081964
0.110643741711199
0.0945042839845868
0.086307589651561
0.0921350273660872
0.0786485455777981
0.116634180522008
0.10002491362747
0.0838009586497205
0.0975503555436778
0.0874857378898284
0.0930744049069236
0.0848412655979607
0.0880325392450544
0.0818155333989797
0.0900830195434668
0.0874558546349072
0.121418347887365
0.104423153371256
0.0925806424536506
0.0879955905588395
0.0939873391108335
0.0883506209862702
0.0848480313498748
0.0888727545666542
0.115090438745999
0.106193897386004
0.0934811850341814
0.0928021771816723
0.0863244637322367
0.103427865473403
0.101131799457845
0.0784225542075292
0.0997445161852892
0.112370916153294
0.0931792273834593
0.0867857260172862
0.0818457119864977
0.0781735097659675
0.0828374337846197
0.0807403464211219
0.0922003539199183
0.0856279593705064
0.0824295018645125
0.0759412187755361
0.103103541670574
0.0926525133250903
0.115074442645903
0.124494074381362
0.103418822976512
0.148212023455686
0.107279450406663
0.109915143250437
0.139793616998386
0.0977455827214045
0.0865927192926464
0.0825414520131649
0.0874261899573083
0.08796869477784
0.0870543959985512
0.0793036287496133
0.139080946458928
0.118700478835955
0.0941378867472668
0.0801277323417174
0.0922463293665147
0.0654850701989108
0.143506591112426
0.11816139543201
0.0875454482432519
0.1050614915505
0.0932498351732005
0.0928709877132785
0.147879812584553
0.11355348138499
0.0928468647346498
0.0787180265042279
0.0852237740468369
0.074795206941993
0.0986414410783769
0.129434355630997
0.0933021419404924
0.0926392822400154
0.084424773517215
0.132889379657178
0.150759235491258
0.0952758412086416
0.0920089313752118
0.0765703460413219
0.106865677199795
0.121880914071394
0.108265377349388
0.0795448967331694
0.109070179080268
0.090641470020174
0.0822823962792028
0.0774559500421419
0.0827178255108391
0.10400859733328
0.0998615976587114
0.0682528807601479
0.188025401547038
0.160781481159204
0.145201482773156
0.139941957036186
0.0851889924091934
0.0948163766402795
0.0832690598276872
0.0846482500138515
0.0757208025297085
0.0822748891371227
0.0747621967231004
0.104188505595971
0.106723028549349
0.0822910820553682
0.094597388363052
0.125847551208679
0.108972088693679
0.0921120867716344
0.161556853160286
0.0989211847807381
0.0972387878800011
0.12101272869492
0.0950081572794169
0.0777123346345893
0.10105930134657
0.106404469544529
0.0803119901573255
0.084836017597797
0.0713464341583063
0.0924094135095532
0.107405315358073
0.0954001184031517
0.0866965502184717
0.0843856722972313
0.0789281350617499
0.117360467018911
0.152455510000641
0.121830169607075
0.0931947481023435
0.091243677056733
0.0717114389560732
0.147092737844755
0.113903586133233
0.0891230362470449
0.0793586840822066
0.0622793502054683
0.0784322220506497
0.0760725921436815
0.0770465668110901
0.0769968790456805
0.0686467799530624
0.135900258175477
0.097021203058322
0.0753579327201945
0.0777287046060357
0.091755508376082
0.0874500210369533
0.153849019042907
0.118424736415494
0.0880295405102567
0.0872040212128432
0.080782800822824
0.106858104077678
0.104195442988921
0.0842289738979132
0.0835756648975852
0.0730584960673805
0.0798929302880794
0.079015598839897
0.0794057404011607
0.0781336175607145
0.0767841952901626
0.0826378954661207
0.0791066287594917
0.0853313519276068
0.087366189554607
0.0809165562715167
0.0786104053161547
0.0880559788554494
0.0700632993650848
0.0985403902577557
0.106323609125377
0.0896848552645496
0.0816487257822483
0.0783796929988931
0.0832340812132161
0.0755204718009653
0.0760338520357629
0.089656297293588
0.0821011288928582
0.0822185510549624
0.126608260995458
0.0805779572829705
0.0907175017734165
0.0697411253168657
0.116705421982676
0.0972253017726311
0.0803881870130484
0.0734840186476066
0.0818556867027461
0.0725720571779522
0.08953668882267
0.124725606599045
0.094954859008968
0.0850914914442504
0.115298702742842
0.095096327659611
0.0845031593204345
0.0929288457918247
0.0920908092366138
0.176472482606166
0.0969887840772864
0.102430744527143
0.160321785377847
0.103556980644219
0.10610659259674
0.0901443494292271
0.0892597527424329
0.249700399416826
0.138168582688853
0.084460961191632
0.10150076979269
0.108521044981689
0.0747246338301049
0.105025371490609
0.0994407861266937
0.113962733141207
0.127023983918807
0.165610867237976
0.161071618513545
0.0735667355792497
0.152470094429948
0.129329463977816
0.0916368350639075
0.0817696612780401
0.0943685988669255
0.081407902504361
0.119868438186205
0.107687465873487
0.114570151573186
0.0952515254995608
0.105903032983442
0.134621497544582
0.100113162105097
0.0919864161327136
0.106890787904516
0.1097037711416
0.0867860419699564
0.0893359201468227
0.0836037364111235
0.109793777999021
0.0854619178233618
0.107694435463409
0.161463523512422
0.108854408134744
0.0992977739229159
0.136668061808032
0.094898115072087
0.0954471025030258
0.0945066775020527
0.095447248304261
0.0893998350867163
0.0876259605519264
0.0890742229423222
0.136323920280156
0.100577807838902
0.0948550259795735
0.094068930546831
0.0908034328656376
0.0917706474463407
0.0931766586458587
0.0867416818837508
0.0989120619973446
0.0927554419885202
0.0860753272752271
0.128876700462218
0.136039688502018
0.0802789596923464
0.162099595477661
0.132559077695042
0.0961179026448927
0.100380998198673
0.0952620849064579
0.103103535530216
0.0909684809236165
0.101474278965381
0.0940117758413579
0.115284501699112
0.128049309162936
0.116229879817069
0.108287282824414
0.124324567833041
0.198696407103809
0.187888673935473
0.124786893579872
0.119296944355954
0.103744744342022
0.17156421544612
0.141972891070916
0.15541663797623
0.153471812831047
0.102692455417354
0.122550754472658
0.103648123896258
0.123300979496321
0.111415799823394
0.124947465328359
0.112636084451227
0.124952488737691
0.116405359032484
0.136443674584517
0.116218785282304
0.142828310924683
0.179747155568719
0.148677322071279
0.130117561771229
0.13112273957182
0.125871599547564
0.182425162128636
0.164231655717729
0.230953767506837
0.175332620994444
0.19725548181477
0.205880274291855
0.150010073961005
0.156147505623356
0.140014968963757
0.149498067750674
0.155764946925186
0.159049210776782
0.146789287704375
0.154788830524729
0.163596250418255
0.164401621336825
0.154898153186727
0.157088211994666
0.157988800108267
0.193784216283088
0.165868437458016
0.181731925379612
0.172770125396981
0.211044405933708
0.248609756825068
0.246798063340666
0.189200758414043
0.195367817216964
0.18920837620545
0.189037981892121
0.198207563155237
0.187738618111883
0.210000307959699
0.204237758575198
0.246455877146493
0.227205319143659
0.251517451032359
0.224850762599036
0.203532608886094
0.242315854676934
0.230029175229509
0.242237051645204
0.264897289118038
0.239835342607744
0.219152544111546
0.26219114396681
0.248618311628867
0.239466028788184
0.270399666331918
0.231549108790122
0.247860437340389
0.229956030822314
0.250439296268961
0.239502182104229
0.276262359952935
0.266188308918995
0.2519117305981
0.268460248796648
0.259949230533782
0.250048860111605
0.311124418272203
0.276884329439728
0.28875968110569
0.290985921788121
0.259844944973475
0.279399701798221
0.280811072687578
0.32520411276242
0.319664525898876
0.327218893706054
0.347694471653059
0.295763997227601
0.315141177069002
0.310806543687951
0.31261419491666
0.305990307112558
0.327556300576198
0.32611883845784
0.332919368124377
0.332204117080149
0.337173954715508
0.332939629102617
0.350451035877965
0.340266710221039
0.349228471708801
0.33655283429114
0.345749350043395
0.347365153394646
0.34436364584518
0.410282809427057
0.418967747270254
0.415838305385513
0.429260749647911
0.364004242226183
0.392709290567339
0.383562256800039
0.413871613136674
0.377972444718316
0.41148994579634
0.391315144601816
0.410738605076703
0.415082787226938
0.420476327077138
0.400016957093183
0.418794135285512
0.432752690086397
0.457967622734697
0.443554764584642
0.451444064576276
0.438966192829104
0.455026614483813
0.430793944961585
0.47519056623658
0.447144382647294
0.47960058594569
0.468904665772805
0.490107152811096
0.47635476974398
0.482829937967728
0.487643376781507
0.515019615798637
0.479272183508488
0.501311948366337
0.513151831631548
0.519039168122994
0.503415874171391
0.502418128301803
0.498428467600138
0.507327536239507
0.520858819186928
0.54397285746806
0.517917670906834
0.540702574289079
0.519779219236423
0.555118177026738
0.533566665868844
0.575485114300178
0.544412760348992
0.588190427845676
0.565180352912181
0.595815671980839
0.545919211238069
0.605279592652465
0.577081312976344
0.603310412712235
0.598175214768082
0.581706343968715
0.603076392914543
0.641040062835602
0.603720421163871
0.644286435518694
0.650833801603462
0.68918776757574
0.658064681097181
0.644215286328356
0.626390743537758
0.614807565079739
0.638559245132582
0.657468468382991
0.668804327754363
0.694983316523099
0.673223247435841
0.685592416230413
0.670724581948909
0.666418306619484
0.66878479568886
0.713668417918507
0.68051099364716
0.702191884503371
0.703372650203338
0.727647934667313
0.70651629207909
0.720752370260521
0.726294926975003
0.750438451372657
0.731599881153961
0.731157603197467
0.734553660267161
0.804013639640436
0.748275793363619
0.770713616309591
0.788268548001035
0.819369770194641
0.761565754643031
0.7991846394178
0.770079603116855
0.823782828039014
0.777929073447142
0.80707546247447
0.764972131159878
0.789951589798065
0.801142116234254
0.810294154337501
0.801795533572751
0.869771106130525
0.799790381777719
0.831924392228384
0.844051699438162
0.875567769536728
0.843495231728334
0.883898000542711
0.856314579533634
0.852129409171725
0.840717910544802
0.909155392056849
0.877756348430202
0.883886689163391
0.848913995421096
0.932281126319828
0.827550456977593
0.90454442860097
0.900577997282255
0.925970315135332
0.910380607748527
0.931484409129812
0.908557677538934
0.915075144233842
0.930811311163222
0.953451555086934
0.911638707741201
1.00626740497809
0.959602784596402
0.945686958119963
0.942981189636981
0.959721583577235
0.943791013148335
0.98183254917475
0.933896731848391
0.961214211320261
0.910214977459127
1.01211717053788
0.994438706645391
0.970137024195793
0.971322784147219
1.02075012213665
1.06561218826225
1.03208407317067
0.994517492299417
1.02984129026568
0.951423672893772
1.05572036224524
1.0329799049184
1.04955218652663
0.98806302347459
1.0805245046599
1.04498068272418
1.06595471682308
0.975235995812628
1.1002448646398
1.07998449100294
1.07794763774837
1.04841245996438
1.13958675605145
1.08885564721295
1.16685804171458
1.17027564943016
1.14166379335398
1.01420101002707
1.07025944142338
1.04884157440471
1.066536660678
1.11140639613129
1.15345600319647
1.09624743857473
1.1332326958662
1.1128664915999
1.12067760260952
1.09854325044845
1.09273341672249
1.10988227014246
1.15655893405969
1.13834091257392
1.24847530711998
1.11720944525259
1.18320803739718
1.09276415216124
1.13331824198081
1.08667650549185
1.2041990419312
1.149684714639
1.1755721379845
1.18222272229838
1.25395022713285
1.16189787550812
1.22264115601015
1.14571731788084
1.23196236266199
1.10158779530849
1.24563303838863
1.19639391632001
1.16681589967406
1.17187983302442
1.24844726005138
1.20551753601395
1.22359416813798
1.12903392312756
1.27757130275092
1.22188572511403
1.25362831387732
1.18139115576828
1.14728857026266
1.21039246067403
1.23025449036489
1.18362044159503
1.34020349160652
1.21506728699638
1.24189140205949
1.23948656887575
1.37335941443067
1.21865563265617
1.26504979861923
1.16400322219301
1.20096624967998
1.29708483083244
1.40658586384804
1.24364458418582
1.22238053641518
1.22147750518972
1.29438396822919
1.27702416849874
1.25186439395803
1.20137553389882
1.2778248569606
1.19693084840757
1.28438005476686
1.2971689905046
1.2945396282209
1.21114691733346
1.27859831630842
1.2426178497087
1.22579207015495
1.20990792655763
1.29178937475801
1.25096734099987
1.26975811597645
1.22597573782584
1.31559521992541
1.28944615977175
1.35679768129578
1.26584975495839
1.33907640023978
1.22091543347903
1.26434022686342
1.23772106719228
1.27696614094205
1.20282677168282
1.24679719579799
1.29794470012063
1.24411576927878
1.24016853318419
1.28486121948316
1.29157638126501
1.29631778618126
1.20739001595976
1.37722160149884
1.2938156073867
1.28504679431809
1.32924271319914
1.29947862735731
1.23714655955217
1.31018449118773
1.31638679142258
1.31326681854216
1.2430210372602
1.28138840521156
1.27043838957614
1.27417462242189
1.26472334852787
1.27203439760556
1.25251803813903
1.27349660586904
1.2257740748851
1.2868242561365
1.30845798415885
1.26617524908068
1.24272225384964
1.28258565708125
1.23570155309417
1.26479818854555
1.21671387831428
1.26999371396726
1.26191928081545
1.30113113825175
1.3004650979426
1.24061933589002
1.23091619836463
1.33600497057408
1.28413092441087
1.29235306151449
1.27742192341721
1.24092004447466
1.20440921968639
1.29939420479576
1.29864188016669
1.28982303857987
1.31145086608185
1.2803032300343
1.22806353373344
1.3118241187696
1.26040938554768
1.26216043675436
1.26247269303462
1.1659673981608
1.19065235714516
1.29808822520256
1.27402360816044
1.26630787664264
1.17292634537395
1.1577792320434
1.23973328997384
1.25494234554999
1.2601554414712
1.26976957664969
1.22439314395032
1.31828282905106
1.22319474067522
1.19662055872449
1.21989374252283
1.1869056731679
1.20231129230315
1.23205101965432
1.23349531623147
1.21316615292411
1.20834155371817
1.2456247543147
1.2422605954016
1.20968112861239
1.18725033693456
1.20692858866603
1.22321838547763
1.22770386582751
1.22128609955632
1.24406527855699
1.17293729673083
1.17355398116562
1.20950972318667
1.20700937112473
1.1904022480751
1.14538738832623
1.16073648403134
1.16515589432071
1.12878257871761
1.18645112096488
1.18832415734333
1.14858115776873
1.12943542257515
1.1429123853453
1.14261992832668
1.12789763414974
1.14795985631548
1.1568619031948
1.0953896632731
1.14138009540957
1.16258229043296
1.12796904117906
1.14598656465206
1.11263665717709
1.12932822444888
1.12337638444087
1.11637775124356
1.13663049982151
1.09974237456243
1.13105933242276
1.10665984857721
1.12450495607937
1.11677908789172
1.07439662437284
1.11457209774423
1.09911638797858
1.07997610979395
1.09685557987424
1.0610421699026
1.07403715802577
1.072283350879
1.09860913301323
1.07399533674874
1.05676426433225
1.05166861712718
1.03758103894984
1.03191989039671
1.07289278946772
1.0468186263642
1.04989769850145
1.04576899219329
1.02963614239727
1.04013920710496
1.03976098965399
1.03555060047323
1.02777786073712
1.01325091237036
1.02246757934292
1.01473920033373
1.03350314884958
0.991063128922307
0.971035033156665
0.972067352163236
0.956597821589973
0.987355431876959
0.999852272386006
1.00331564247236
0.971749649649239
0.948907657740892
0.966212754722052
0.954852445313722
0.96205750113947
0.970584351370178
0.969594103480613
0.961082500633229
0.947400325610709
0.947992789136304
0.945557339750362
0.931286706703746
0.95380430513829
0.923154573526927
0.903887977222064
0.920063523849026
0.914694200467433
0.909417238994052
0.913612230200262
0.904696506563131
0.869609140285412
0.870214865888851
0.889601919738312
0.880993140178985
0.872986887350136
0.8789716378531
0.877623519977143
0.850958738041642
0.849142030906788
0.888364826306233
0.856790953851025
0.831315410941752
0.838448894327769
0.837503579623513
0.835723762572182
0.834593418697373
0.813385571121396
0.83904922293493
0.841321047432565
0.829739570284999
0.819533867657883
0.794697161657509
0.81423238798136
0.813632232289278
0.794344286145378
0.784849062073425
0.778046013207045
0.782918698857239
0.779921542790415
0.780286545743462
0.764542731885077
0.766100978294319
0.768470000181369
0.759592049160206
0.75575620543778
0.750031229258811
0.74033629927975
0.765913283298893
0.758953800366165
0.738638983289547
0.727808727118617
0.735392988085088
0.711773257890466
0.714069562820034
0.725521734136565
0.716824046160798
0.700398325647358
0.695779212454088
0.699141492240041
0.68848186630901
0.679703498176327
0.680220068496588
0.687933998470988
0.68595975455868
0.676392928222981
0.683438562282146
0.675739179193951
0.660767133074886
0.669372868158896
0.666002801154953
0.654544646046421
0.65646267988845
0.640310684594235
0.646213619513611
0.636561764035287
0.632082599753141
0.629515469937458
0.640070656854101
0.646137693500406
0.641308963535533
0.624988820452358
0.618410737086554
0.61674802326013
0.613300286850185
0.604736777455468
0.611682225477348
0.60654108955959
0.599396856005917
0.603094811444218
0.604768012009035
0.601520828812485
0.594605206047141
0.578738074866371
0.580841186839817
0.572995768507413
0.57642629431115
0.579525171179884
0.572678759514374
0.567310193548035
0.573252936673977
0.560915894068217
0.563465339852842
0.549451453573277
0.554745014349042
0.559634848919891
0.549607743866835
0.548275678990904
0.54382279660647
0.537428694560051
0.540183990716249
0.537035120327115
0.53438432632357
0.52220250720079
0.520904123483099
0.51974371965564
0.521673417812399
0.508430179176342
0.514695769376067
0.514838751213855
0.51565449044596
0.499187609212099
0.506756150236046
0.511261317379752
0.51103955200724
0.503549927082668
0.501636513339028
0.48913185526412
0.488251052110497
0.481521053936339
0.483041032897123
0.480768805965309
0.48835045361231
0.474229346550001
0.473043807338248
0.463663338750597
0.462695911131339
0.472177335510726
0.47267945486693
0.458659221628945
0.461070591804001
0.452502662356842
0.460884047488853
0.44821592147117
0.449570071002363
0.458631597843063
0.452320321856767
0.441974251834981
0.447062134690142
0.434989249122941
0.435011302934191
0.434788352763281
0.431439447733472
0.427439749295317
0.429887825688223
0.425003034330562
0.428601349229465
0.423608671851758
0.428894003755172
0.427261016434626
0.416665640913942
0.410000271854407
0.416026659006627
0.405782345571513
0.412124149458198
0.40553002583479
0.407245846414823
0.394841912824238
0.39067026092669
0.392002214929297
0.396802065023254
0.39217902918959
0.393007775884501
0.388722291947214
0.389945648652323
0.3844774602657
0.391970833164273
0.390292214314443
0.389706210580281
0.384701576466236
0.387524735653087
0.380558625967751
0.378235384254712
0.379845693906747
0.379367126167789
0.368864990566495
0.368467316206582
0.372990592722143
0.37700830346749
0.370014407373935
0.374518715687862
0.368159561016679
0.368655734208588
0.364004383511231
0.374482686939059
0.369555377701969
0.372396908930542
0.366310718294625
0.367210391432106
0.367019320490343
0.372495187547338
0.366009119983424
0.375352070613104
0.373821319456931
0.382025383609936
0.374713565245996
0.373257205806905
0.375487162930447
0.383108531741076
0.378823076197779
0.380757992169674
0.386000999584942
0.387359085645836
0.377044720032024
0.388945756170388
0.380605876174202
0.385441146966151
0.393709948757223
0.393396427817405
0.384044853625112
0.402097038244332
0.396923218418855
0.397574103249862
0.398385992231657
0.40357022969086
0.406081651207791
0.411214398772833
0.403383427889788
0.408512751696798
0.409154632812227
0.414879008386393
0.412066888051641
0.419007985111026
0.413467247048367
0.421581133068599
0.420483336607332
0.431386940447374
0.422897510448156
0.427111943096157
0.431846788187801
0.442985480390351
0.442725519084442
0.441332449819143
0.446218917422938
0.454868239262322
0.442669144900783
0.45831098204922
0.458281306759811
0.45870081864327
0.463674913479432
0.468702066046281
0.465144168981663
0.482249018761424
0.47690711303102
0.485361696507082
0.485619756787038
0.491264122468925
0.488489847568718
0.502554617299512
0.496189067198592
0.50104230305452
0.501651068297397
0.496667157062482
0.499811891762791
0.509519497103139
0.502285107174382
0.509716835303919
0.521878025759667
0.509103508370239
0.507436592580645
0.516745676850733
0.507374989133726
0.520065483852188
0.514076824039406
0.516319194989315
0.513768133972082
0.518441053180746
0.503831075861641
0.511171559404125
0.511229912015316
0.510939957561951
0.503446179924118
0.505621554485063
0.492092667118555
0.508339432454875
0.496386058199982
0.513169998584192
0.499971564418881
0.500066196845659
0.488065154184512
0.494018027432961
0.496773615917446
0.512485325634804
0.492520294194048
0.498812646214409
0.497332606407867
0.501883149053433
0.49288082602808
0.496789418447626
0.492661528540334
0.502318282671452
0.49514717425837
0.507320017083313
0.503513156727577
0.504994610560757
0.499953673638469
0.506984537613195
0.498445579531299
0.513801031612829
0.502284983622941
0.505636871689854
0.498470807470524
0.500162034799939
0.496512121789304
0.501398926211029
0.498370821831154
0.498756741702782
0.494394509811792
0.496159494792203
0.489248063713293
0.495242547400615
0.484314163332177
0.495357668184297
0.486971995684509
0.489855056206843
0.482775382665877
0.482339937202219
0.477026999007517
0.481657836022401
0.475425349910093
0.476046004898872
0.474116003996655
0.467131173705906
0.456107654514076
0.462451258336129
0.457687452716628
0.457837529850218
0.45078950001972
0.448388394079164
0.439601356080632
0.455898593098522
0.434859319338764
0.433238282993749
0.432926126353216
0.428105616816239
0.422117907282346
0.421330547294636
0.407440688462245
0.413729505536193
0.404366012455277
0.407946665523741
0.393441743259254
0.395752565919345
0.391087688054948
0.394585109737001
0.388295052616608
0.384911785929442
0.378878739125622
0.383805431959272
0.371740491085001
0.382536733633789
0.370456624616167
0.369793536236217
0.364407040940786
0.363684738664612
0.360700991243941
0.361015855613202
0.350677582467449
0.354688292598346
0.359006994257203
0.351387169073575
0.346254175439924
0.347647298154731
0.340849642177623
0.343196873970441
0.339513666947425
0.342171209054939
0.335804665954247
0.343091672682231
0.331212740596454
0.335705773034677
0.331476238702016
0.331920919110301
0.326497043908982
0.327613675670829
0.32355417960908
0.329982837818699
0.32181781594366
0.32187969858608
0.316102303987863
0.321624042618737
0.312157741666916
0.311569765215634
0.307563834190016
0.31146843316967
0.307438888574034
0.305826727380609
0.302280882303547
0.303357344674521
0.298279948201835
0.297500234958261
0.30067316970899
0.302232282816022
0.286934632883011
0.295852528520476
0.293001005804833
0.292524965370416
0.286691739951435
0.287718837737356
0.283422300373342
0.292260199141631
0.283237818968312
0.282467611487495
0.27931325591275
0.282291261206683
0.275733283766035
0.281947879331507
0.277048638931983
0.274877748258565
0.276576123818941
0.277598978996221
0.273769017585211
0.276243316707849
0.273767245953057
0.274745730542255
0.265858725533299
0.270026932075597
0.267153844045161
0.269685914657363
0.268728520451613
0.272674680529122
0.264743376480722
0.267677209207509
0.259304221109471
0.262795755460894
0.260690908541534
0.25962350957708
0.256053436565641
0.260285905397355
0.256869044648354
0.264178446539137
0.255455830816985
0.257072660958687
0.255655023935555
0.25507235206641
0.254148947763116
0.258233665795473
0.254200702889187
0.249673114266059
0.247004104212415
0.251190629066824
0.251634517885523
0.254158873049163
0.248003651860939
0.248104821979011
0.245571800463946
0.24987451065901
0.246892133691976
0.248594291712151
0.245663005758993
0.245403902585338
0.238378676443108
0.2440828978706
0.240443082732979
0.241087581750214
0.238576765098668
0.244708237369303
0.238540876383217
0.246118735587295
0.230674521212561
0.241836939619533
0.237453744287049
0.23393926164953
0.234573122288572
0.236865082366047
0.240101518860803
0.235966257102446
0.229630046277319
0.237892418682397
0.232646495065919
0.233471987758143
0.234977121567389
0.237119496008329
0.23543000329354
0.238303826566878
0.232021762144326
0.235074455669107
0.231108792514589
0.230087577435852
0.233430662773702
0.232108090566612
0.227906711328408
0.236604071646633
0.229879894196192
0.230616119958761
0.225057291722491
0.228805907774391
0.22680033216721
0.233166818419892
0.22947188562694
0.228500176937252
0.226927388974761
0.227996220515866
0.226121086254912
0.223699005820401
0.222571213452669
0.222435735110128
0.222616997870574
0.22230256855265
0.222962669309031
0.22298222793101
0.216583387796109
0.22409873667376
0.216998252559651
0.219776356763874
0.217989200106206
0.218792863056034
0.213401726247615
0.216473700675939
0.214347258324619
0.217042295604212
0.212493165498865
0.215737838431242
0.213949075858551
0.211713167451906
0.209177365983772
0.206923656098927
0.206860150596608
0.206130611157675
0.203679498850142
0.212211512677269
0.204631747174344
0.207585117479852
0.200986858429495
0.204501517792476
0.204170241473758
0.20484332856469
0.201009005689194
0.202542519751948
0.197716286782672
0.201170525324324
0.200663063784921
0.200799198576392
0.195799359833943
0.201525673716989
0.196193702770366
0.201234409227281
0.196902165056637
0.197891722372879
0.197919509135
0.193530731313229
0.193136985464107
0.193055355952363
0.19028649949009
0.195533374025149
0.188228213256491
0.191171876132714
0.188985611594867
0.194987943360073
0.186850285342473
0.187970653539977
0.185713395916286
0.188115885201115
0.185170543810244
0.18559582203184
0.180792530802761
0.185038760856528
0.181978144622385
0.182819771891168
0.181853013893451
0.18324469890001
0.174446605137072
0.178112182886352
0.176811457587943
0.179398265697683
0.175623160592619
0.172610075024595
0.170251827413864
0.178786812661002
0.17118885805662
0.172187788151534
0.166623157087456
0.167467043431297
0.165595794045639
0.168465614013385
0.165338492446275
0.166470233932238
0.164814683337822
0.16474025944504
0.163338864859897
0.167922709263759
0.16085452482877
0.160399733062937
0.16323757390489
0.162536822065733
0.155995610780457
0.165906844446444
0.161062241013427
0.16489296670646
0.156054288684744
0.157123859740683
0.153270394256517
0.159765315691281
0.156484970902171
0.15717816939273
0.154110514521372
0.155868122406478
0.152422861848629
0.155641480504626
0.151262520162374
0.154308679602434
0.150864876842961
0.151804104985324
0.150104645075463
0.153164943152914
0.147687059433774
0.150838809179059
0.152731435312128
0.150374691682477
0.148697468147964
0.151800018533201
0.146164901234856
0.148384455805499
0.144408428111148
0.150875200662077
0.145946378726957
0.146504918718159
0.144862559275481
0.146194932073688
0.142787717803883
0.147382010781842
0.143617401516629
0.143747678862777
0.139232610343741
0.141638433094669
0.137166000911152
0.139972060994304
0.139371710580922
0.143192745438778
0.140032273905105
0.14083607431279
0.140180232225018
0.139716828503676
0.138609374122107
0.140058324063014
0.136719577652656
0.135996479304737
0.131220840902527
0.134860845893763
0.134985200154051
0.135781625996088
0.13022189377832
0.134293609202131
0.132777949002645
0.134413149142991
0.130750631049176
0.135435497361637
0.13219175181174
0.132975578084844
0.127686775979859
0.135115804482401
0.131534529682138
0.132733183952015
0.132685479456441
0.134131918822274
0.132198745386607
0.131219678963838
0.129228466877416
0.131014853101763
0.130452086556426
0.134353609060445
0.129619924636164
0.131545989039849
0.129702263997437
0.130707115798789
0.128219409036204
0.131241957336038
0.128983028328429
0.132202346277777
0.127320995298325
0.128786078922382
0.128710453511959
0.130124671407703
0.123759366548617
0.127131392149088
0.127372671744303
0.12702931748292
0.127466372815323
0.126368494027164
0.123159922705219
0.12723990582203
0.124785132157526
0.123987950694127
0.127440119849181
0.124770963799006
0.121023508850975
0.126869728843895
0.122899752570406
0.121924639925358
0.122345193258512
0.12349431741411
0.121901279857845
0.123964676769789
0.119580509548611
0.123918477751731
0.120597772928164
0.122333787472087
0.118830514980516
0.12020292352041
0.117277219242099
0.119516951455457
0.117436027371631
0.11561893210748
0.118284818081859
0.117435038593045
0.114708370250385
0.118038620388465
0.115903017478383
0.118078003764575
0.114184364009097
0.119405574903664
0.117739503364955
0.116114664252728
0.113415791586423
0.117679251044522
0.118720193078224
0.117946784189036
0.115020455635821
0.117098563914316
0.114568422910669
0.11577324730725
0.112854895706612
0.112928020301937
0.11292376415158
0.114560156782532
0.113736048162332
0.116045515749449
0.11504154415747
0.110233402424992
0.111931118654398
0.113465448338648
0.112331034137695
0.113274308486436
0.113858956857107
0.114886831899546
0.111224609260334
0.114041284810611
0.1087972718416
0.11007250323488
0.111451564091275
0.108115843422688
0.104080294456352
0.108751087433174
0.104601835550812
0.109240383722791
0.109692807918001
0.106960576800839
0.103393364028046
0.107022660568568
0.10220594812892
0.105307687621503
0.10400353809134
0.10354881266538
0.101226623671792
0.10672941161009
0.101201204443399
0.100610316240894
0.101508986300731
0.103266500482046
0.101631822715825
0.102802873777606
0.0968044456823518
0.0990745369780962
0.0980676233771555
0.0988528476613693
0.0986494615051215
0.10152790392049
0.0979185801830902
0.0977694830216656
0.0964101107014942
0.0976998926401899
0.0981174692296156
0.0971554832898772
0.0930654433108906
0.0997248144877225
0.0943207806921107
0.0957798713684517
0.0955990910580214
0.0942874865388836
0.0961887676085222
0.0962058048442496
0.0933067632128528
0.0960123212770263
0.0945333923083616
0.0925929230800451
0.0920896410015642
0.0949908641480151
0.0912164379574235
0.0941952836637018
0.0926283088322245
0.0927858490028452
0.092400514465669
0.0927496147675705
0.0908103989482545
0.0913733761050877
0.0914928383234556
0.0898608395983681
0.0897378371181994
0.0910049147843503
0.0892605122985369
0.0918806079938742
0.0886863552203089
0.0870975093820563
0.0870203645827745
0.0901068477169249
0.0883523235052766
0.0857647822678447
0.0871112574612372
0.0829703624658825
0.084869491061426
0.0878638066830445
0.084350921890055
0.0848528641281407
0.0873568281270924
0.0839002020588682
0.0833684258791636
0.0846466444473895
0.0832578202613425
0.0817586809335628
0.082814515659096
0.0821743166110716
0.0842147813663688
0.0816183174817664
0.0823096825454167
0.081388515512413
0.0837560359542951
0.0813910521472834
0.0836109642194028
0.0795423310977215
0.0830264916096925
0.0813672552850761
0.0821092182936537
0.0794880658470121
0.0801572746778773
0.0814848388415783
0.0813466130599219
0.0796446508674294
0.082909485706763
0.0787721491445133
0.080777972787728
0.0807593234073529
0.0799373299371613
0.0823918877653488
0.0838926838897677
0.0805998308089615
0.0871631294407835
0.0846273204903038
0.0835097200429285
0.0807435930906927
0.0843949450056884
0.084375169648893
0.0899158073222279
0.0813688039473047
0.0870426462689941
0.083831319402879
0.0836176725875599
0.074203490009764
0.0738522383432276
0.0702440636542268
0.0810249604161222
0.0818436635809371
0.0833422972150039
0.068980685838997
0.0735646547284285
0.0787853923279491
0.0797648597719744
0.0669830439027082
0.0815220010793361
0.0722657793770856
0.0756703605798401
0.0670375745383519
0.0728505913753928
0.0693408686242256
0.0753795956095834
0.0707105869930652
0.0764455482092969
0.066520594605554
0.0853078710473511
0.0745936314281631
0.0797590660556468
0.0685140799510542
0.0872779122719728
0.065047100444743
0.085980402027482
0.0673545258442923
0.0816035747179124
0.0600764283419358
0.0858110987916504
0.0602617789654724
0.0870791294813826
0.0591582515685555
0.0894247064185323
0.0561786447091015
0.0841430917658953
0.0478097713242842
0.086302232452234
0.0470191951530889
0.0931734870622546
0.0572445901827022
0.101221437547761
0.0481851750963586
0.09197120035991
0.0480822276974994
0.0973269065419058
0.0631517593137656
0.0971616284899389
0.0527448776350996
0.096068084624683
0.0682218044065799
0.0880221324903988
0.0674086885545906
0.0773913807763498
0.0852664084900742
0.0623882262849526
0.0869201946986733
0.0597884165625209
0.102606183640585
0.0487357297860982
0.104834145290574
0.0544047837573359
0.0973504933913986
0.0619177229573776
0.0880103719949323
0.0637168994868095
0.0826310938891155
0.0723262341000876
0.0750268068027313
0.0763687563665359
0.0714909559348437
0.0712678075902648
0.0767817454079689
0.0704900751201678
0.0779564243494205
0.0667892211337906
0.0771737078965207
0.0647643761562757
0.0769929515849641
0.0663340775338624
0.0723449634508472
0.0660315349975532
0.0702368888479663
0.0656565674964332
0.0726290191586897
0.0657603219588522
0.0722267681405422
0.0670395567906089
0.0721730884539353
0.0634213138469178
0.071823551913838
0.0664137337450326
0.0700776045151162
0.0670640151961323
0.0714592351239855
0.0645384348856197
0.0730047372076525
0.065890437287816
0.0725682405448746
0.066935398842493
0.0703816522140796
0.0642039306858941
0.0702040352700662
0.0662956178903339
0.0703667402332001
0.0676282695453205
0.0703340837451773
0.0660220658186891
0.0728599075870986
0.0658274367654968
0.0706619888734162
0.0678995520610875
0.0704229580243611
0.0702650588817362
0.0754779684008604
0.0689870673923068
0.0743462443935578
0.0660449212055306
0.0713278522381918
0.0662637956687692
0.0698672077008178
0.0663515859072807
0.0699262141861799
0.0685658059815458
0.0727861217913917
0.0681074673126916
0.0740164277666717
0.0688318762437822
0.0720113657638418
0.0668873171308569
0.0698195800015441
0.065815286540034
0.0707936934945486
0.067084572823312
0.0693468470131532
0.0657840818356906
0.0697717776955931
0.0676810466952311
0.068490025037284
0.0674793949558776
0.0715903369732754
0.0667518195236701
0.0702456534115251
0.0676086689151737
0.0692738986570622
0.0673860611726855
0.0719421989949115
0.0669396868149236
0.0693056940509032
0.0692821931939062
0.0707516994969695
0.0646113419893793
0.072716491749726
0.0664972860098209
0.0686458687132624
0.0668502722329695
0.0703324179186677
0.0696112918062295
0.0714760901412979
0.0687099820435235
0.0701262615620772
0.0687826823432024
0.0696577083383961
0.0708561785614281
0.0710148398114125
0.0668659876836945
0.0739574531110695
0.0699095567321653
0.0705858741670165
0.067539290392983
0.0730026848241871
0.0691719074844062
0.0716491455530215
0.0700773798636969
0.0721776090152105
0.0711190459124281
0.0717307334140421
0.0683871082876801
0.0747486178525167
0.071410166039835
0.0721587354829279
0.0716832599598373
0.0737646152799757
0.0700735450448109
0.0730442341342786
0.0699543356102682
0.0725657606901238
0.0704116194234377
0.0740038395771276
0.068706235756262
0.0740138960978921
0.0730097886109457
0.0741133653669834
0.07229040025841
0.0733200076412781
0.0700392430327178
0.0747065614297554
0.0706347237693294
0.0712729538571445
0.0711863780660703
0.0693517176809282
0.0706743984623958
0.0747392138682129
0.0710341853310357
0.0711519160319034
0.0710614200832227
0.0735152016653911
0.0717960783131553
0.0746975110445599
0.0703528726642615
0.074228579349964
0.0729400794436541
0.0714888962635981
0.07149693970132
0.0754250546160533
0.0710808046283316
0.0745634630930867
0.0712979732164111
0.0750581105379389
0.074818577779887
0.0751444953238558
0.0749491447076098
0.0756416590855588
0.0748597268793808
0.0735876777313512
0.0735101635716994
0.073895748698175
0.0714807063608339
0.0750312618789772
0.0753552934479098
0.0758048596242649
0.0757623754874716
0.0767331018155978
0.0729541169778191
0.0751713056360456
0.073796089640357
0.0756053106481756
0.0742389496891081
0.0764193723502547
0.0753371058969654
0.0759126236056799
0.0723639966607942
0.0736905577561284
0.0730166374597768
0.0774587914166287
0.0736194044397652
0.0754448229695379
0.0747309901410241
0.0726610085494976
0.0724309725644934
0.0760520184086985
0.071636141110087
0.0732443546800331
0.0711741223735144
0.0737651174956663
0.071679006787959
0.0709573699420725
0.0713316207577052
0.0736200443012323
0.0724033184913672
0.0739999108649341
0.072250804128112
0.0721100091553488
0.0727306062917131
0.0716753789982874
0.0682000849534583
0.0723716852568475
0.0694951492069086
0.0694374152699947
0.0719460017987237
0.0748205746159964
0.0698452915217418
0.0726668412561826
0.0706093984941734
0.0710657563559784
0.0702434647081576
0.0681747640598711
0.0694678146857451
0.0702964030961331
0.0693735170765065
0.0701095660956623
0.0690296292010859
0.0698884660406377
0.0694200130974907
0.0728587638459686
0.0679566964574511
0.067559028794944
0.0701421734634918
0.0733834331125493
0.0695361745605139
0.0716992890563828
0.0682918730725291
0.0675938775718426
0.0684396272330535
0.0698648016102158
0.0672297916631924
0.0694313059083126
0.0677678475946428
0.0699003506292459
0.0708810589470698
0.0698827791558105
0.0690865572131374
0.0714295565114904
0.0712498835929483
0.0711367382139105
0.0678528912894751
0.0692148776124846
0.0683725070926476
0.0692146550369762
0.0671439178686807
0.0693519153232178
0.0701720766572644
0.0702555160862264
0.0698311153603414
0.0702165685236178
0.0670686525960917
0.0697102802763654
0.0656359965806419
0.0665544084787067
0.0678398719300174
0.0670190465980679
0.0660476662383471
0.0692423981280299
0.0688431100185137
0.067232258699007
0.0680682829078746
0.0724484354914178
0.0684203047111257
0.0666870612120552
0.0670711187296525
0.0679805954966125
0.0667525232428225
0.0668243770912258
0.0672018226999866
0.0692039711148902
0.0679638986633713
0.0656123545465128
0.0651255497296505
0.0660895319803408
0.0650323178014148
0.0676875720771299
0.0662639442839001
0.0685643380924565
0.0670497791697513
0.0630354281483423
0.0650001025778982
0.0681474309457301
0.0651828057024206
0.0682264476374998
0.0682894419328857
0.0663656229525299
0.0671155567828824
0.0687324069766583
0.0659782981382578
0.0666431686032234
0.0633764793936655
0.0653883570147842
0.0642465746367318
0.0618526819598798
0.0627437541153153
0.0647906115313123
0.0642857067772454
0.0637425101318643
0.062815303689823
0.0658489497015972
0.0615473939027515
0.0612590214355104
0.0601601646688067
0.0604727511432007
0.0630807072760069
0.06244155751122
0.0627159276873121
0.064253285654304
0.0612773586964945
0.0622771470822952
0.0613224706957504
0.0616388483002651
0.0617913623635605
0.0671055709492459
0.062604401834615
0.0606408245148976
0.0620645158188656
0.0593385121712845
0.0574857119105106
0.0595487923004531
0.0574881843176979
0.0584084958523396
0.0597755292887396
0.0568220310643262
0.0553401451056941
0.0586300833785754
0.0569566363006153
0.057059551647341
0.0587980203102901
0.0575913730694833
0.0551795540269879
0.0547831785678802
0.0569925106134266
0.0567882168024128
0.0556954092179834
0.0563278571288289
0.0552052034551796
0.0569599403009192
0.0555231416454127
0.067621255217345
0.0744067013238696
0.0560182227583285
0.0554904979094204
0.0612969162958927
0.0578689757294362
0.0565428580808918
0.0565988311285013
0.056015753982154
0.0558731660842158
0.0564052293911613
0.0579512618691811
0.0566452584521724
0.0566118423465199
0.0572294384451802
0.0539056064824272
0.0550927251536636
0.0568883145102231
0.054163144526243
0.0540802852592522
0.0540595911350154
0.0533712357594057
0.0553880752948279
0.0535733319135341
0.0548876279365394
0.0533690674375948
0.0557652156138317
0.0639141041870829
0.0624910330349906
0.0570247784109389
0.0530969798526316
0.0542049930671524
0.0539629938173743
0.054482863262644
0.053594746224651
0.0508768935000946
0.0541211942521764
0.0530392381441294
0.0499637228999812
0.0528759092251267
0.0531881090201297
0.0521965109524266
0.0544569984803667
0.0529633106188779
0.0517238631113733
0.052851344915099
0.051355420571752
0.0510477810890473
0.0531231378614087
0.0530248269232934
0.055983580809547
0.0550464867372882
0.0493452070302219
0.0634968357092939
0.0731697884828945
0.0547880528837682
0.052574092711747
0.0523361502908384
0.0515565365626902
0.049855385708664
0.0507042333346124
0.0538874860893784
0.050878435023112
0.0497489259218015
0.0514054789126892
0.050349591548679
0.049551794254968
0.0506610359244231
0.0522932923584703
0.0490344255804565
0.0486136991329631
0.0511996041040909
0.0530337672599942
0.0499089737090542
0.0577275722659747
0.0702481014385218
0.0578481491661269
0.0527090799059275
0.0518489439885779
0.054381566776724
0.0766000706748473
0.0636884796574136
0.0497610993238295
0.053119328478348
0.0518800925282795
0.0511326470469666
0.0505454374125273
0.0485903896839439
0.0541218463228927
0.0588208623748506
0.0543486306072443
0.0544131838083059
0.051565475472942
0.0506148783276989
0.0509894505940011
0.0502515381219682
0.0475501622838179
0.0500823185748638
0.0524379125483284
0.0505832053699205
0.0499084179213824
0.0503694767530638
0.0494910864033409
0.0472538210169897
0.0564069655746763
0.0582076878376537
0.0501940517940309
0.0493446219350238
0.0475581034277439
0.0470334069599317
0.0634599269250411
0.0657411295737906
0.0524245091778466
0.0488448014944112
0.0477217415038742
0.0521295605261396
0.0528104004808524
0.0488427498650673
0.0496110007735283
0.0487959622633613
0.0482487476791984
0.0514243815985035
0.051032366532139
0.0501488618834581
0.0503965214306648
0.0493139932743542
0.047883672795905
0.0504539850243273
0.0482929052454745
0.0508208873036056
0.0540204504780086
0.053450694857366
0.0742490485022013
0.079280029908876
0.0696543489227672
0.0613232634038135
0.0568153638989809
0.0509027723975669
0.0483521522497356
0.0493898433940043
0.0519979323982472
0.0533158800071006
0.0519021081772778
0.0492991898806823
0.0511900633713396
0.0498371279341777
0.0512600171916456
0.0474166244397346
0.0498172115599335
0.0480350132443294
0.0468116859930742
0.0487238826384758
0.0508608870322413
0.0480180314509104
0.0523183844784606
0.0599891639261058
0.0609820280900947
0.0516606980145261
0.0552664907505917
0.090415913148146
0.0773387301442078
0.0617315549331792
0.0554635922351494
0.0522417993410879
0.0479000929597385
0.0479787481295764
0.0529363584612135
0.0581837789118887
0.0527671497314428
0.0519991441243533
0.0493386789225206
0.0560356288287018
0.0525342705684554
0.049654019197487
0.0785036738976689
0.093690763028997
0.0661502592205569
0.0554360367559188
0.0470028416989143
0.0741792643245086
0.0830407728685772
0.0597650842064008
0.0549480691111046
0.0550432910456957
0.0500013551428353
0.0539114933212355
0.0500679287349668
0.0539423066568038
0.063258378734451
0.0554566638718432
0.0546894822750454
0.0532115775847624
0.0522031635588891
0.0538526626939438
0.0557088628885718
0.0696611188698645
0.0631386563499095
0.0527957371597274
0.0631284792884495
0.0606679991005068
0.0522410716448827
0.0536189081203572
0.0553173377553982
0.0563353383977131
0.0719026836587595
0.0734266943116585
0.0666873425110308
0.0774807043164242
0.0699742548383951
0.0558241757256867
0.0611664142594349
0.0709719767514715
0.0661316763985439
0.0525519362100243
0.0871264585669617
0.0882858333116255
0.0943373501578482
0.0738845764879325
0.0630701475362105
0.0545722431419716
0.0602403825530015
0.0483634163877078
0.0653294699738288
0.0768634347516793
0.0633938189551823
0.0592218179632294
0.0565208337882334
0.0749424719714291
0.0736903114656739
0.0671354725386369
0.0636791076936648
0.0607247868858887
0.0617211994178674
0.0844147219653583
0.0597304954578529
0.0697968868308789
0.103359916718876
0.103250368028972
0.0972196696759675
0.066352808401774
0.0752903997793802
0.0930549659757717
0.076074391864694
0.065266195592668
0.0607466156003071
0.0669885490933018
0.057602848111301
0.0835193417941088
0.105693337785566
0.072512171988546
0.070904180512913
0.0695346282076173
0.0751399749585027
0.0965739866128927
0.0839190343736115
0.067133698962149
0.0721409780320564
0.0680092649457016
0.0745682457870092
0.129527685944421
0.0935592510484156
0.103920388769791
0.101352924930837
0.106830947977425
0.0864668675494431
0.0880410770955781
0.0788770237237939
0.103725139397332
0.0977312276497778
0.0847335088550878
0.0711536117162786
0.11683733392905
0.0976422570016138
0.0900760054130457
0.0835577731168267
0.0834323795876724
0.0858313998617536
0.152498279446512
0.161666950514982
0.125502148451192
0.0884876249611476
0.109444751145386
0.121192610947123
0.101197513408013
0.0909500880285173
0.0901374764152004
0.0905164942471426
0.0899170602127543
0.0956149152482361
0.107491110711869
0.0962894777924658
0.105224578140839
0.0933952967568996
0.110567570919413
0.135075651735738
0.191283370007086
0.132897411130622
0.134987731076786
0.14416232739064
0.138093097568412
0.12100280762705
0.110422619565861
0.11163496263516
0.124050195696729
0.122132167807876
0.114379831014223
0.121043982058363
0.153120528181757
0.132012884260626
0.170833036504468
0.141703420480596
0.142365790065024
0.127051204112547
0.200554001486961
0.280873217073709
0.18177435909124
0.164470932691799
0.153922183250405
0.21472415115644
0.218137028617951
0.178103221073001
0.159810675649787
0.164681766514626
0.159699214903023
0.179281457298702
0.184098223830669
0.192893271778831
0.20490452792563
0.193824338847523
0.197856146292811
0.248818377756593
0.317689321063437
0.304203566373855
0.233706048381064
0.231388591682859
0.253157590951185
0.254660494247864
0.237873445491946
0.249048726767867
0.23922230068851
0.309166533386907
0.300624428992446
0.28878915264831
0.261268493808013
0.303606481921664
0.302720064639477
0.301662674205587
0.358677429364829
0.336675715313938
0.322380879124022
0.301654635090889
0.329414759158465
0.309881627284673
0.338268529871572
0.368809950847518
0.362203830229564
0.349677173492572
0.352869595090539
0.350652360742259
0.357903237246295
0.366315631634753
0.361377277610051
0.385723580711961
0.413120450882757
0.468441982280498
0.604823312168552
0.407526817844042
0.395919936355405
0.372548431624244
0.409097436371853
0.419941282354488
0.439725653056499
0.453540713033833
0.410325481164573
0.394683705244523
0.387164275913653
0.391510610609778
0.386189635471105
0.394279126651935
0.3862839641059
0.387416378632072
0.424083156545161
0.389993289233779
0.50539391861906
0.447009530509553
0.406392353387903
0.377564752049712
0.397905367322172
0.370937319168517
0.392962443102777
0.364880017053064
0.409518607263086
0.386924087544788
0.386004324359834
0.361808038117381
0.376471437295011
0.415711316307443
0.390447729280879
0.367313513500514
0.362781826628581
0.353503252677232
0.36245818176786
0.337186586008805
0.411140321183927
0.391767808932181
0.368256747682614
0.335044785013302
0.344697556311561
0.335271900451799
0.336800397615411
0.332819439956779
0.349433812218149
0.332300659978872
0.340535935019942
0.329461740561229
0.331628242690364
0.320666749301235
0.327585321324524
0.330094449855122
0.325980146176198
0.322931170035835
0.318249439499551
0.31398644121311
0.314973385983325
0.316910140085704
0.320353913711827
0.310815491849881
0.326185207895491
0.320580441155175
0.315492208893462
0.314009637436411
0.315743153502043
0.313110784458586
0.309686288721396
0.311659964978712
0.302770961754029
0.305563756515058
0.305663071801136
0.29965639602601
0.303870858968622
0.302197553317459
0.297144213009091
0.302488115742555
0.298487780487974
0.300416310139066
0.297632452364114
0.312804370797426
0.39220649762973
0.315568022029252
0.306299209788211
0.274401652209986
0.300683087048054
0.270788443293212
0.299931878094275
0.342581420630907
0.310473363052276
0.279605829980139
0.273678780271675
0.26478049847056
0.298629465412235
0.267991169918343
0.273449520695989
0.257024873150713
0.263858064613808
0.342164290107933
0.328798503353564
0.44062613291827
0.341773534802356
0.287566278224783
0.241906367876105
0.305781108532268
0.278212158117606
0.256732005466235
0.236873346061602
0.244781702178038
0.303496354595065
0.25300020669085
0.246232466133738
0.229600262848789
0.237728102311942
0.282178529777824
0.280668701711505
0.254853661003075
0.299920398940687
0.269897734013019
0.278403201965045
0.30730070457701
0.332887766382401
0.257257003320762
0.224954212570062
0.227852727738422
0.212371804580008
0.256926846481536
0.26637145218771
0.23344204885345
0.244124916554619
0.200296241504583
0.213983837827717
0.213802212569593
0.257088455567916
0.207808702244947
0.256320711321306
0.238849952203304
0.210919748215603
0.230194660779615
0.23652847359716
0.286940083352026
0.271000789074889
0.220514863823455
0.194754655408805
0.27731022326555
0.240329900066653
0.230165518433441
0.2176311478069
0.181831043404377
0.217092885883401
0.214540163559137
0.191524213654886
0.227699462117798
0.216490458978599
0.255479611898154
0.282556329710313
0.315636689961769
0.26625520710115
0.200263471538733
0.19210537602443
0.181163518225929
0.199957944783034
0.185780515309385
0.181840711554789
0.251973492387307
0.184513630644075
0.220671880281725
0.237793662961316
0.207150955072517
0.19385791605945
0.201756116124738
0.194175578174329
0.217597214116968
0.25164529515258
0.273585396161378
0.217283185941493
0.24958645247417
0.231942051773422
0.230944107538867
0.214002329938912
0.227545066421519
0.217801869976814
0.238853954422267
0.248392620140659
0.245076664155287
0.245922910451222
0.253363728035694
0.243717032414383
0.32753127453511
0.276811047462935
0.290331026695466
0.317758516065796
0.321353667952169
0.373738877241188
0.306815872110326
0.309449958502838
0.30133078112884
0.31574599079981
0.318390504231474
0.311833361837981
0.364883110575486
0.358955368115773
0.342698986336857
0.335279124457024
0.340912856491852
0.343387724049724
0.356402107049503
0.401934935369487
0.387359978191871
0.511065541499696
0.399461179672367
0.420142760905372
0.366707711575279
0.373537913838252
0.382242875744131
0.375874642383693
0.372967165869701
0.364073787139124
0.388762408614694
0.41104627866581
0.382269760981803
0.386726989057828
0.374913586889404
0.390151258562674
0.382398370361184
0.39257405332117
0.395584885688438
0.398884505966613
0.40609841571799
0.396046344650227
0.432769196703857
0.4978096350814
0.431888553072123
0.429499114688177
0.408146012320161
0.437713353651196
0.413107934955507
0.443213303437446
0.459530160006455
0.449122231890952
0.439062908594061
0.444500082387861
0.444334504068924
0.441088583298827
0.468463777044018
0.481520197622511
0.452646596590705
0.476318434667948
0.438992598068867
0.559919741450997
0.498615207013018
0.514901446416222
0.483595943361398
0.486943683214054
0.467898901348234
0.479071786928983
0.465141681832544
0.480375556538551
0.472839618566437
0.484561758260648
0.479169410302718
0.471941115386416
0.475014887075212
0.46723187904314
0.480159690789687
0.5091135186318
0.474536865665116
0.475824960376894
0.472382816836835
0.474575832107393
0.468018551809213
0.51905311725845
0.485415893527847
0.489763409399171
0.471374727572944
0.499652564336792
0.514284479592393
0.491467811273795
0.460078002643022
0.478561207566381
0.461668738111949
0.480561578221177
0.456074236256597
0.5121094922735
0.496172950989658
0.489951482617017
0.469778535493214
0.48375538493712
0.474751986018459
0.489097350623611
0.484462302386798
0.497900015612482
0.490754094728592
0.505465646665193
0.499699344118021
0.49725780901223
0.50091137771305
0.516156901209853
0.532254186689404
0.523725080675392
0.496953289209071
0.502252519815614
0.488739309577292
0.505505658680912
0.499999149862804
0.49641739112525
0.474682226946466
0.487483471831337
0.464557807906017
0.493939495932298
0.502611020425894
0.475692769743388
0.486746663423781
0.45802215078965
0.458468297989913
0.455267465350391
0.450757347846026
0.444567564421727
0.443905624474235
0.442501497021815
0.434865953293954
0.436376097312065
0.430914061685015
0.430579032405088
0.429184103030485
0.434306264141513
0.427149536687305
0.430775487176058
0.422334266019753
0.430888756563145
0.424021671205156
0.425551600896193
0.424371470615956
0.422013081877216
0.443338333642971
0.447609018578967
0.453550157077641
0.427444084965857
0.43605245965514
0.421315293843773
0.422137626323792
0.41962323999466
0.419461565006886
0.420963305744264
0.416699877013735
0.41852123370919
0.415762552283642
0.417932146262357
0.41726397000334
0.419526956962598
0.413435915241296
0.416172628263014
0.413765515839512
0.417687734773496
0.415566479369138
0.418791529392819
0.409786328900349
0.42918658831445
0.414815297711083
0.427537449269479
0.413813286693624
0.418970924921068
0.417115494462223
0.414604963573705
0.416793736957689
0.412947003094708
0.41159084214832
0.409114247302008
0.409567659273543
0.413214116560544
0.406069270182336
0.408527728531111
0.403500189958444
0.402966909242467
0.402494375769635
0.398022184942657
0.397544048602356
0.395563536668786
0.392228117755621
0.389064008130939
0.380515533376403
0.385672659304195
0.375168594554372
0.374747699947887
0.371404667205938
0.372640411035251
0.364313650576523
0.366114129106474
0.363651342245889
0.360676009154849
0.358417598274203
0.35998811391565
0.352974718588844
0.354942340657657
0.349791847675788
0.353049443393106
0.350740763009255
0.352201143714383
0.352261175767915
0.351682962693828
0.349138380001862
0.347914030511953
0.347059781776494
0.355363128115454
0.350913717245797
0.353204549754
0.353894238924158
0.356531544976513
0.363023724612368
0.365354805783707
0.362747984612673
0.365601805642811
0.365247601226595
0.367019797538281
0.366792464239533
0.370707611798282
0.366901237058762
0.374686860898557
0.372288624697055
0.374920593532556
0.377570095031172
0.374238438395855
0.372172050505989
0.371822493648495
0.377541877993248
0.377586200338777
0.37459226567645
0.373466193035857
0.371643519130038
0.372789316617487
0.370951326765503
0.371473630693673
0.368872243802593
0.368819020989864
0.366925926140187
0.365844213162393
0.364032645402478
0.363820268691991
0.362884902752751
0.362783365435474
0.355817634017138
0.358725172720365
0.355045783606152
0.356169913926243
0.354127415133967
0.35438498925535
0.351221052437942
0.350781349677892
0.350171538948777
0.34977640695917
0.34826409915598
0.348401486135326
0.34494857636458
0.3459045579039
0.342268232056402
0.345534061553583
0.342548397344288
0.343118514826526
0.342431599498552
0.340075849087279
0.338685999424717
0.337016598501689
0.334983067558784
0.3345228928876
0.334387651279671
0.333325542292301
0.326638245572495
0.328503057097194
0.325214395953264
0.325907142701389
0.320331306381321
0.32042615924481
0.315081792071927
0.3143122993296
0.312719967239831
0.311158119558745
0.30868678897142
0.306972292076543
0.306271931687576
0.310254848932924
0.305076164752088
0.304295934487527
0.305457660405133
0.305554798108963
0.303386277629195
0.30330053210313
0.301874842553061
0.302145287646265
0.299031365014949
0.296594923179443
0.291785054837278
0.294128667769727
0.288419824182028
0.284174720192246
0.281810243993861
0.277411207464946
0.273954661262737
0.27199204107783
0.267766587591966
0.270565844009322
0.268292759277013
0.269891322146282
0.272751523957127
0.278931230587544
0.280361155202647
0.286565177889143
0.292118218495696
0.3055210696396
0.31276190256769
0.325563697666654
0.333026517760384
0.349108056604545
0.362683153986957
0.376449469170899
0.392824946688498
0.408641947152891
0.418916600840091
0.437113046135949
0.448866234103366
0.470181239070118
0.476827802783587
0.496645899448464
0.508102775856604
0.522479272150309
0.533353877638235
0.549305441857121
0.560746415964451
0.578012949838199
0.591202049784183
0.597430673432934
0.60930274598663
0.618416658608164
0.632640858035909
0.637116854049325
0.63900850945692
0.652370505832685
0.65484660076145
0.66027757076847
0.661458205697053
0.667416945025921
0.664176062332072
0.671974519597299
0.66503513464325
0.668626016994817
0.668871633792848
0.673644712474546
0.667461387463022
0.668571443910856
0.669731755097966
0.669060706266385
0.673868749218572
0.676021091077633
0.669511675574257
0.678332542447661
0.679673439054191
0.689241071663756
0.692966013846832
0.701336321018018
0.7011372048374
0.712062000218448
0.712752822967379
0.717527217245485
0.7265150766935
0.735315372210813
0.748402804948296
0.759364689104079
0.765430916053269
0.775325767094854
0.789763639703648
0.801373971446797
0.809380309833743
0.817775802788687
0.821281187162854
0.837009064291387
0.831889916196661
0.834998642320067
0.843564081774256
0.858826774954567
0.839044915035457
0.842475073384205
0.833079531199194
0.836383299076279
0.836052307575371
0.834837220647465
0.832508244131572
0.833491675937684
0.843990021294242
0.836566250021358
0.844091654658606
0.864504250484661
0.866474559066456
0.880861936010648
0.888016846483266
0.896308470351433
0.921656552519928
0.925563808046291
0.944827567154192
0.964446777307922
0.972930136579233
0.992769822814883
1.0030538756301
1.02557106987564
1.03387465735323
1.05781038022789
1.07332682136814
1.08098324313
1.09633953300563
1.12154375707928
1.14038253855864
1.15014138563035
1.17826977425197
1.19304686896881
1.21841322528986
1.23474528516638
1.26777407998972
1.30153835755119
1.29320018263965
1.35483818234071
1.34383707562769
1.35782803224649
1.39957882964515
1.39574037916389
1.37275774197427
1.41651435838474
1.41956723444926
1.41783553760982
1.43668626423544
1.4456534932992
1.4645116219569
1.42491438200137
1.45222842661559
1.43022030102562
1.42632420728186
1.41217898968126
1.44462361213797
1.41954481537104
1.42298342536096
1.42122578004295
1.39896480302557
1.45408557297565
1.45193453240133
1.42552025113128
1.47943348813287
1.45042374388223
1.45734767299382
1.46409472974461
1.47033715985787
1.53972689359883
1.54765553461052
1.52816438215767
1.61241009215553
1.56932796298781
1.54105015672774
1.59249446010737
1.62351875051646
1.57013137605936
1.65879463895168
1.61344520368654
1.64404700378437
1.65514498584487
1.64436778005088
1.6856500048861
1.67675705736924
1.76038396655865
1.80505183067911
1.65536970214207
1.63652593873842
1.68700291018328
1.7284132408818
1.69187743904425
1.70239124665082
1.67242507947141
1.66039814780104
1.65477074915096
1.70515731347777
1.70252386284003
1.72936951577716
1.71191058754203
1.66097155974683
1.63512239621574
1.61061958807103
1.53039768456857
1.59898080075511
1.5779280912694
1.55994892461264
1.46945395814641
1.4076893566736
1.36927145731048
1.36190834532042
1.29670325101747
1.25229206663212
1.20207907917427
1.14376287499102
1.13036027461837
1.06773176001971
1.03672117833807
1.01378918210347
0.988260080321201
0.968590854134959
0.960694512704194
0.947190559670104
0.935286068719177
0.930819072531296
0.908092919649557
0.916224645884828
0.914053445855297
0.888643098050075
0.882721710409805
0.874507937968741
0.840789185283069
0.831481376327484
0.815658695307972
0.795938511680991
0.775297550348127
0.747330637481512
0.740342595565425
0.711539489923504
0.68426903047947
0.658785441147627
0.642941133982812
0.613769948867481
0.584488789619365
0.562037149913975
0.537524910131227
0.516313588323757
0.479387751836358
0.467867638030774
0.435477128455025
0.418265635907096
0.399524728164575
0.382260505183598
0.366516187632904
0.349608231006103
0.339566072004881
0.322927379457983
0.317016258557763
0.302611565046158
0.296881257567595
0.290877672619533
0.280903523664371
0.273735104042914
0.270819898059363
0.271303395805099
0.264595895263992
0.269108679426951
0.264393735034196
0.260253815661017
0.262478204045912
0.260880442006629
0.260056497316626
0.25992071374457
0.261888858322397
0.267260104909987
0.264511705038148
0.267320960460269
0.273713291696599
0.271733880132585
0.271906807678149
0.27462004200994
0.275120289742747
0.272332802249052
0.277406111431113
0.272424671916387
0.267048144695379
0.266180326476173
0.263458001811323
0.263722381260997
0.263600953799067
0.263726619889014
0.260866856762638
0.260961871467366
0.262734693877981
0.26002121866735
0.265316862036156
0.262583742783865
0.263265726975323
0.26940363090236
0.270249404647778
0.274946244585094
0.278327014225503
0.280450933271798
0.278788350026014
0.285096579367581
0.286759652559601
0.282734913028083
0.284172725866552
0.29128868191558
0.292920037922635
0.29779982433694
0.293946852479903
0.29449877667949
0.29965704037893
0.297237109352496
0.295341240724744
0.296367238392236
0.295503121787108
0.298293545866601
0.304002986544224
0.300002170991891
0.299938436949486
0.312425672043024
0.314271735618191
0.317407703970783
0.326060170076368
0.331971056691995
0.337888715711846
0.343601791309918
0.355784116632602
0.3657833797438
0.376672190480603
0.38498583500405
0.387071180823111
0.402029470850124
0.401086537236718
0.409930280528031
0.410395316446391
0.403818085706688
0.396454200425631
0.394115233029251
0.390408263103827
0.388095962337234
0.373242196345326
0.358004932573224
0.359076420308418
0.354100776480677
0.355524873067917
0.345457612058259
0.344342423134654
0.35242909372338
0.353732999225459
0.35458383157781
0.357268093996501
0.359701841033105
0.360304339928026
0.347621186328237
0.349898014181083
0.354008075395407
0.335483298388028
0.33742586268572
0.337662355179336
0.331182681326956
0.333350752449741
0.333273714286309
0.326845963756247
0.33548035145718
0.318064991513088
0.307712198952246
0.318620238609068
0.312078516696828
0.308923366733536
0.315347133964455
0.312391246770358
0.31025749062389
0.307415682918551
0.304399045050598
0.299254471907231
0.30531098650336
0.298776905617216
0.305640065585146
0.298437964382712
0.300260767927425
0.292592750951401
0.290571002982814
0.285639372709379
0.287069617451705
0.289929391033108
0.289130667541732
0.285014427191234
0.289876456298021
0.282069191401562
0.286292516232817
0.287463744703242
0.273528531938724
0.27897707184761
0.281443047578967
0.271402049943351
0.278713905920564
0.274144619644648
0.269857112280396
0.263856629368071
0.273019442725927
0.266965576265475
0.270564025714442
0.265114644211746
0.260772129055659
0.280653536278769
0.273367947001623
0.269713291208176
0.277131048335255
0.265399307121405
0.263058664525649
0.274405271037916
0.275617651608229
0.275209639716185
0.295051077138404
0.281902453223354
0.285520139061772
0.28767131479181
0.279882878354353
0.289702073751412
0.300786143453548
0.283241311009981
0.299635941203173
0.304377692396654
0.298971409035906
0.306172949834467
0.324753569685803
0.296220533532137
0.314611905881225
0.318332426935342
0.319621403739282
0.325378283738042
0.33869558918881
0.334448860024047
0.360104594060675
0.359207413432903
0.34870378164188
0.376326503568132
0.390023247538363
0.387087349115108
0.40748087709573
0.405956698748714
0.430960942350501
0.448986454250362
0.468220212700073
0.436395940510036
0.473289324654229
0.475935194138636
0.46273354600413
0.468392832115033
0.506804951009048
0.501746053280136
0.517081165553211
0.509377745826037
0.509010433380974
0.523050984677563
0.514002548714025
0.496373402436171
0.503205069637607
0.483147699102529
0.492397858379815
0.473050617201217
0.476214104511283
0.475122696323918
0.48729045204329
0.469909980534691
0.467849890566364
0.493078732813372
0.481194280430667
0.47078193213668
0.488972699515598
0.463097279136767
0.466840660656744
0.459096396628626
0.461988370531698
0.440578047105098
0.471610302657138
0.438059503417525
0.426517381417153
0.434681539675908
0.450263012123067
0.436926080712997
0.45488819620319
0.41454956342663
0.429447763654546
0.439591976487157
0.424568265271652
0.444966043723721
0.431132839025343
0.387818096323382
0.424923530870824
0.442781060688799
0.449842627957084
0.431442698202341
0.435245684939818
0.447481943860166
0.480635833681141
0.451880816416034
0.426837698041097
0.442633058746815
0.466586983660587
0.438036422374916
0.466081957417067
0.425993772408407
0.447443759715157
0.462085470715345
0.454677605034451
0.445999192828535
0.482200026435598
0.471455892264996
0.499767402614837
0.515678582635494
0.45534937774148
0.429990561260796
0.445588862551617
0.445583918488283
0.470370260562978
0.504989475099183
0.507531067341526
0.460539240925584
0.494539440568346
0.510178083045604
0.530853539939714
0.574745288114324
0.556049963326621
0.574539718629647
0.593736919638796
0.578273537394274
0.59682977519726
0.548464332731498
0.543378562438081
0.595224395034399
0.607158628163697
0.585545831842819
0.616365305146125
0.625525229359883
0.631566534605635
0.602601809642846
0.593206103858101
0.556065997300377
0.623906894129743
0.64766690613488
0.634550614707561
0.61914100984376
0.668560357045276
0.556399455874905
0.572935621153057
0.632702094496797
0.662900922790697
0.636906712749197
0.635228853345982
0.526693964461485
0.55639715145359
0.63138824528778
0.535639853166825
0.576899188995733
0.66814802386461
0.612396695040565
0.594636115853737
0.522042683805637
0.542954668594538
0.63343046904891
0.593245650933805
0.511095539816537
0.651615505866823
0.633011319541293
0.550009169747896
0.595956652477203
0.515287764729135
0.485257760204995
0.62435695601559
0.60706618833013
0.706303968692724
0.637970283773082
0.765740772230179
0.533044422999045
0.670777900298524
0.635370332178588
0.734985364988837
0.698337154830331
0.442637723434528
0.410860039291783
0.608279268314184
0.584952551101673
0.84272973520595
0.70363694144126
0.674082906713785
0.748788236376193
0.775481806802838
0.461407125050955
0.655321879833197
0.614276602156068
0.287664118827291
0.664055777061064
0.95580273642296
0.648725858012871
