3596
4000.36533379555
650.420452594757
1
2
2
0.108992346121206
0.107254509838662
0.101120770689046
0.102398382521953
0.110658531977096
0.112152936068029
0.105954448665639
0.115256517667284
0.1101006894196
0.112646206429139
0.11165051690258
0.108466649582071
0.109665335401492
0.106427804427537
0.102597542218326
0.105326869484978
0.107733003695383
0.103100026332685
0.101709519090937
0.105694771802899
0.0992219351106545
0.110269857110089
0.10733524939553
0.10265587015066
0.112917213523135
0.1060183857004
0.108902543565483
0.112457703244511
0.112864171538911
0.113075030916221
0.105567662000154
0.111399258173102
0.109940473687058
0.104890254516233
0.10953402230592
0.106657699751521
0.111941005412458
0.103167194984337
0.0994094511291594
0.111689931830448
0.1065758920388
0.123948434933968
0.111489548766858
0.110283208306396
0.112991632494345
0.110645628123289
0.115770172971707
0.106944195390287
0.111876876897656
0.108356492209071
0.109921355478261
0.114769245974503
0.131744678590759
0.106846613866281
0.110422446600516
0.122093865855641
0.115979010209735
0.105537819310391
0.104947252636215
0.118783938515635
0.142970114890543
0.121628995453694
0.0998918977748398
0.116345692958581
0.107802474213875
0.106095795638325
0.110351880670452
0.107127328424388
0.105734575417807
0.108916806486014
0.108328817931133
0.134157324950024
0.128011349307098
0.112287838825549
0.108538325870379
0.10535980562605
0.106945647162014
0.110670632934883
0.101528944651895
0.133604284133889
0.118477309582799
0.11737046232831
0.107023761433803
0.100842410520723
0.122498313768822
0.125654650552233
0.093838770600437
0.123707908783619
0.129459323761142
0.116688849876538
0.100544651648821
0.100632243008963
0.104463566729062
0.105997653574153
0.102189869652679
0.109969413770517
0.102942648221951
0.106937466337838
0.0965513213271972
0.126880662597173
0.116435295885178
0.152502077273406
0.135165246952089
0.128219455990271
0.176315871908946
0.117751612978691
0.138699780452766
0.162731431994763
0.115125518209004
0.102670713821483
0.099467666385937
0.106964173835586
0.106259197756986
0.105655257602736
0.10017153322333
0.161181339837998
0.136099217729747
0.111548269090421
0.104594380352289
0.110283162756574
0.0913069273382295
0.162790961805387
0.146302875560569
0.11499530215088
0.125872312196712
0.114510659875125
0.116120272158766
0.172909260881982
0.127486871753521
0.11019290117276
0.0988132903976477
0.106269715156911
0.0988213945860936
0.121415992917318
0.146060131028529
0.11398748963107
0.108950876008458
0.118530737200589
0.16291759679373
0.166112178044689
0.116804539508432
0.112508783021343
0.102064034951776
0.131848522901504
0.156418035873094
0.126345734550249
0.113020483498758
0.128847220635658
0.108548825272314
0.106576396290638
0.100157082647704
0.103112953052304
0.130977084090363
0.119464451251801
0.0977092726966325
0.222927821644066
0.171618089488946
0.173698364194212
0.159725643500946
0.112997183408792
0.123541182745367
0.107650150829178
0.100413146824556
0.0955835642924629
0.112738177711993
0.105380433456116
0.1419155932883
0.132322694561755
0.098927767789171
0.12185962905716
0.154117719040712
0.13390168926752
0.12355486548382
0.187763963183127
0.116297196894273
0.123540630625363
0.150826535837159
0.122663420440642
0.0986646619935488
0.132222492894385
0.124695138474347
0.106769747391471
0.100153353201774
0.0973630238519591
0.12711040053585
0.127940191587933
0.117124324316772
0.111403087351238
0.109543440528016
0.118836215399152
0.154661774606091
0.170701530949189
0.139388459346856
0.122341648096371
0.108509505446175
0.107031187045
0.169176888077101
0.127994266224013
0.111594779795208
0.100346852235834
0.0902179757733449
0.113284570205954
0.104595013451646
0.101388018928767
0.105692614606048
0.104461991280885
0.160832959075475
0.126043803305814
0.101379353048035
0.10655885642005
0.120073061827061
0.128019844515676
0.189828150168175
0.138333867661798
0.104859368725138
0.116173913303099
0.110198753762135
0.137257802084955
0.12530734821409
0.110796466474896
0.104268417715439
0.104720086435759
0.100705948688029
0.105290786020301
0.104635588820916
0.107291279080352
0.107251532044129
0.110598491219238
0.109429849249629
0.113550687493007
0.114340646947294
0.107394861289067
0.100097943731876
0.112014220432608
0.102737698514917
0.123990603762466
0.135882132548081
0.122668147921157
0.109439264267901
0.112968077868795
0.10797583040319
0.109289294966175
0.106826949914319
0.112091420879359
0.106708030688969
0.119396764694497
0.158009274937197
0.112230610228947
0.114732506098754
0.0998549085597977
0.1493313676574
0.128565204716761
0.111454302984325
0.109027660209388
0.113290506907446
0.102891028651797
0.13501084395852
0.168766461566285
0.118799252767372
0.115810980920638
0.142964356804984
0.116438248473372
0.113989279502401
0.123498801935676
0.144701648274838
0.205072119825215
0.134113636231578
0.142369121674639
0.178345538985606
0.131072177949047
0.136104624135851
0.123920884042323
0.13621433949212
0.28322938595811
0.165817188207835
0.114517146294926
0.132903023108996
0.145090147619857
0.107140501171941
0.142790397286138
0.133013720746156
0.158742011182244
0.158354255569395
0.210019132443946
0.186595820438341
0.106122546532589
0.183871028584532
0.154139137897948
0.125585507172803
0.119060916056909
0.12318927896687
0.121107226640039
0.15718541634739
0.147125788124684
0.14933209476502
0.130953766550819
0.140251303195348
0.163504339890295
0.135937830166168
0.126235797309807
0.143486189839655
0.141808631076758
0.127989996080685
0.130446607544537
0.123194404401481
0.152765032686344
0.122194560574163
0.161943608862489
0.197347639286169
0.143749532244878
0.146511914784717
0.166099611588426
0.135182248787774
0.136915124778582
0.12927704453729
0.133373780769041
0.125396999501119
0.129864160426184
0.134697301807476
0.176281699578031
0.135746554691652
0.139234191692035
0.124714699433512
0.130956062645758
0.13935318619543
0.139130918034514
0.129844499854372
0.148127720799441
0.132685171061726
0.137249193681513
0.18861618619836
0.180109244093174
0.133339206332394
0.221983007985282
0.172212301596897
0.146649650444764
0.151535780186475
0.148029088195271
0.145811684844567
0.145107715173428
0.151491805336264
0.149958372824431
0.175896253826582
0.181573013888388
0.174743698455707
0.180698528183578
0.184438211571137
0.264114560900225
0.242396054913106
0.183350708165149
0.178944565708833
0.165710358482281
0.238669227354073
0.207173730730791
0.22517447980709
0.216934397613186
0.182789119864061
0.200733125967345
0.181428143163041
0.208915024442178
0.195054267414116
0.212343824513647
0.200989693017474
0.213177679099314
0.202128628125217
0.224145434948472
0.206243980555833
0.253982688795767
0.261593004007423
0.237592219963607
0.223246522654271
0.242135023701333
0.230759359032858
0.29354629295268
0.271738159975853
0.332540786436888
0.284251154749556
0.313147799159452
0.305140609145573
0.27356256859968
0.26497400960437
0.260203191317415
0.269390989215424
0.286225629679587
0.279622126222305
0.280213025227098
0.289231959433661
0.300279749462609
0.284273285985098
0.296128218224022
0.300814686105648
0.303449978204419
0.334859367408628
0.312972215201912
0.319671486488774
0.317911731668564
0.381437133878302
0.422367127508988
0.377945780104422
0.33575696900689
0.344327711891851
0.35212493095416
0.349832674158121
0.366882965710422
0.366911324815358
0.386096726962219
0.374671909286772
0.436978521221136
0.391896371865576
0.4219706226105
0.383684099092707
0.386971380672293
0.423684791246055
0.420526608123764
0.432040255697974
0.448297367977962
0.40421929694567
0.414046823740071
0.46295006461375
0.454974758834129
0.43901936541543
0.475977040269151
0.425418558418079
0.437681467604177
0.425611253378212
0.465744968197067
0.434787130027029
0.505775697901651
0.473409417015849
0.481037525180809
0.484206354393635
0.484033242438095
0.492669809077038
0.535366182721494
0.491764111789972
0.509957968218967
0.505780210945405
0.50593779911103
0.517891195397437
0.537395364121975
0.533029360372642
0.574166396920874
0.572538166868741
0.573695782936168
0.519370170651882
0.565331039283396
0.559052108147566
0.561451066843093
0.553483417165823
0.588798749772038
0.566603111263174
0.577763515707837
0.574283313208669
0.59816058977491
0.582317920993999
0.641840838106498
0.592112945688985
0.602780505212968
0.595372336442525
0.59559492130116
0.623895392807673
0.6526237761705
0.696393417339702
0.724545160042447
0.70152991127351
0.696012402396137
0.621468033945272
0.664418684578785
0.67568801854377
0.653092518165436
0.67863554575833
0.735581670629141
0.687777207476413
0.712729471787504
0.684195376364814
0.710022566993725
0.696056878234474
0.752826358751446
0.686871630643833
0.748687757379401
0.714944174816781
0.757557709774677
0.743740925547825
0.765744674924062
0.734367414903529
0.819609602247345
0.731277112127785
0.761212962157664
0.749565340609776
0.80467293422765
0.780047348907898
0.8183468506515
0.799197059243689
0.835907160414909
0.76497505963471
0.84543754298784
0.806637370729743
0.854224870130346
0.840535918253219
0.84757050710019
0.793187503544777
0.889263389554045
0.809471397325184
0.836845507167133
0.867932484865046
0.90173510812815
0.857525459020897
0.923908938811084
0.828956759897132
0.93450217269415
0.853920538692092
1.00116782683294
0.846189584980862
0.932861351205847
0.895266289236342
0.928368821980643
0.883032716752418
0.928800503239906
0.900834242573171
0.96605524137008
0.9103329691015
0.990499956995532
0.959975392685976
0.992361243011483
0.906963707517417
1.08270126757593
1.01029117069855
0.962302058078452
0.957807430844189
1.0070971898635
1.00106410330349
0.985547932093569
0.981436775605778
1.13602815554377
1.02035874391316
1.00559416734679
0.92862712327976
1.12579594250038
1.06261584777741
1.02794561513803
1.07672048253061
1.15429154884325
1.08141706212906
1.09761729614125
1.0868040743467
1.05739962029873
1.06429429057445
1.09500100878986
1.06426079028987
1.17284728461281
1.0912242376617
1.27857280512709
1.06231323513743
1.13814510183057
1.15461322149025
1.22886202404356
1.11074656159849
1.13570602343057
1.10214681247228
1.24449263774787
1.07645288957068
1.1466301654039
1.07448497878595
1.20818326922643
1.07323361366472
1.25404271852549
1.13499215668091
1.21805873003167
1.08446392600864
1.15963196022591
1.19562364138656
1.26279178546146
1.16910762206162
1.29929358793565
1.21053109547731
1.35140274339858
1.2669670514672
1.36698301722346
1.18580414344145
1.41509419587684
1.16600062379559
1.39308576381427
1.22104507461888
1.39269859785215
1.26268561620483
1.49018364140818
1.27445859941549
1.40572125304909
1.21464612681075
1.34612023312967
1.29624967381869
1.37517387108442
1.22376907767822
1.44258685720858
1.27843366064814
1.34213115390886
1.323144550047
1.4170823989291
1.21544779710692
1.41460493963737
1.37125531533037
1.58364025999663
1.35343175730582
1.28511184869074
1.28731075307336
1.40599685851202
1.29067888320638
1.54026109721781
1.36192499405503
1.75296031713585
1.38707995466474
1.49392752013344
1.31440328130638
1.38313573613222
1.40192077934082
1.54293184592716
1.43191412070436
1.88453592066597
1.47772381925641
1.46971890999845
1.44165692089046
1.89812328339377
1.47909579782254
1.53078714531433
1.33560406549421
1.47559581176061
1.54080438161349
1.60836633461622
1.4059637854905
1.62860859461038
1.49790128206967
1.80989894406906
1.49333598559654
1.838643863285
1.48061492005118
1.60354380121073
1.40613194757062
1.61575823061952
1.43172230563857
1.7027034787368
1.41259367896988
1.54987235542575
1.38717740397105
1.7244225895015
1.47994809059915
1.76097337689927
1.42796513622852
1.99902749456715
1.90319971941358
1.82606640378411
1.49674484738653
1.51035672208379
1.37008472173637
1.62824708184042
1.620413995727
2.57926312062404
2.04336126705313
1.6548467441678
1.60383257153774
1.80187389603342
1.63696463850836
1.65607436562338
1.37871216400541
1.69086760083866
1.65554377231359
1.91745773904788
1.62624719332709
1.67153091093354
1.56864995115701
2.67602896405772
1.57441962039167
1.52998200452066
1.72862124904893
1.86334534453939
1.5042875348113
1.76973143897616
1.58597649669383
1.68099503140979
1.56790275015317
1.66295299508402
1.73118534550419
1.91361313617109
1.49254783872984
1.71573738239941
1.48762878118663
1.74335385227705
1.78139515994221
2.92933744875095
1.76329426209846
1.80157902357475
1.69303257444611
1.65896873172054
1.60055665493877
1.83319559297825
1.61393226167856
1.67524738442466
1.6181197113449
1.95111093131974
1.72529762198088
1.61142518060287
1.70011260963337
1.94413393523097
1.76297410135382
2.03260572271151
1.76550609614314
1.73952196075578
1.66211982129264
1.69158380473713
1.64262285504343
1.69062172014614
1.66203933053617
1.67286252657982
1.78117080018851
2.01889521223374
1.63184739292737
1.70816071208871
1.73454811757843
1.77896276608513
1.55131573406283
1.64560909558981
1.70974919967001
1.90242324152024
1.80854199785238
1.90295617683315
1.5850240128084
1.67933559517332
1.62102375991668
1.67442780047563
1.94751202472812
2.06037748942815
1.89932273497602
1.78506587503175
2.0385516174406
1.75639323766196
1.70002645896726
1.89224276824719
1.60380708655462
1.8249753408191
1.6731778240507
1.92347118073187
1.84495911550929
1.53907109883489
1.52895008020303
1.86794403323857
1.78988158869125
1.77884544303309
1.55452917369275
1.8934993388523
1.73184648387818
1.68459772325187
1.6410748625679
1.88616450703874
1.79870269156135
1.90385960941277
1.90892260243879
1.7668440874417
1.59773873863927
1.69144833775091
1.71143752181728
1.68802891802119
1.62600291279558
1.87524231802292
1.78452464121207
1.72398670764772
2.02934740485296
1.80290398717842
1.79585718192488
1.78125042184369
1.82500145139716
2.31480847807615
1.81726465262048
1.67522815887882
1.7723717839551
1.78537371852035
1.76772030288735
1.76750161875891
1.6643439227613
1.85291712545691
1.72877944112556
1.84195303272154
1.80166927905221
2.05794525470984
1.786918058096
1.86150689081278
1.9340535495539
1.79707292388673
2.22010201295789
1.964723461911
1.69933035718215
1.78696942179948
1.54400376739361
1.73635522099419
1.677372345495
1.60416411791378
1.88863483633595
2.21307399551272
1.6409090006912
1.83514568848249
1.64350273557626
1.61328932176869
1.60146432005605
1.84407558954534
1.83258765563644
1.71016945358096
1.78224176183997
1.78505704748108
1.6209728752537
1.83977067987092
1.84143453595799
1.78331696077283
1.80820764159206
1.68729407792849
1.87954158619408
1.71429441357561
1.78872802754268
2.13094777866986
1.74466500627039
1.67127042177413
1.63548147257227
1.65014998599099
1.72732937170094
1.65127162761827
1.66078881565768
1.72772900161121
1.61374447555257
1.74263167231711
1.70493971366263
1.67848290424576
1.64628268083765
1.78160207395582
1.85295386548866
1.80305064986371
1.59899707824996
1.78798070696242
1.77327875793736
1.5973957543026
1.67580837761779
1.71892507335302
1.69032123655315
1.64901017321287
1.67864435355145
1.76343815164158
1.52740868556169
1.57339131071758
1.67602158402944
1.61758242497522
1.5311167988014
1.64234462904795
1.79537593121322
1.55501617235741
1.56895699835754
1.70928611042047
1.53623496131526
1.59734001290792
1.59053981167149
1.63322849092372
1.61712412729579
1.6326124743045
1.57347920092145
1.70300205723707
1.66664792715045
1.67046539152194
1.52303498760322
1.55385827658511
1.60591331921681
1.50586033253339
1.52559845741183
1.63312343723084
1.6539645424044
1.52874589782083
1.48664212158004
1.5540177971409
1.45361263617331
1.47022189838825
1.49450377986396
1.463179016559
1.35959294185704
1.44283448566369
1.5367146101097
1.43308263131105
1.4642701156357
1.45536826029437
1.43674425709574
1.46046271737678
1.46203553221127
1.51042143017254
1.49463878403412
1.50612229097172
1.35440363961026
1.37759195894285
1.41188583403961
1.42682124499113
1.46487207551082
1.39627476678399
1.42885032917391
1.45658455488311
1.37600272114756
1.37981487147839
1.34889451695327
1.37438601283384
1.38442339045573
1.32792976609972
1.29472690704591
1.35906882780279
1.31953976448776
1.34458038207304
1.30719843110611
1.31951220411041
1.35307048412442
1.28597891657208
1.32897478049336
1.32810908930148
1.33708798976822
1.31958154651559
1.27415814681143
1.2873623130588
1.24604646840182
1.24400855983004
1.29224240389542
1.29034747874855
1.26962129393285
1.23161324168631
1.23538031195044
1.21146791477968
1.2217537642034
1.22657328587495
1.23922843739616
1.22134340937668
1.18085329701877
1.17231414451037
1.17650027891048
1.18750306463128
1.19931440909022
1.18359580867902
1.17339257157906
1.16170842768214
1.15328193684712
1.14082430514771
1.1439731314098
1.14533141056329
1.12879651114573
1.11650032957128
1.10458028080475
1.09191204060406
1.10109120133503
1.13779140551516
1.09808386982166
1.06023326768908
1.07391200086873
1.05420580250576
1.0661081246609
1.08122497468908
1.06288763602108
1.10107289671306
1.09476007365262
1.04563173569953
1.05828328431049
1.04747898723517
1.06493426083863
1.04171245618178
1.00000305653854
1.00617032881173
1.00747772927164
0.996480043275811
1.02636493816149
1.01236646980968
0.986301239796852
0.999435584036881
0.980944907335066
0.966402561842077
0.97561852312843
0.976539223685001
0.983822856710845
0.948060787999348
0.938582979912528
0.951063323789174
0.950204032590213
0.933314330309723
0.912728541863374
0.899970600669388
0.920389478107519
0.921404874088799
0.902872715683664
0.892177988160127
0.890986034934195
0.878766620762122
0.869557089505989
0.8847116992951
0.898975499900692
0.884514918014468
0.888869824394037
0.885234010779964
0.872523202161634
0.868530522572807
0.852923436636131
0.835410138263203
0.841008845919377
0.836461418777418
0.827564439114533
0.823235094848989
0.832236678284466
0.819445564764587
0.826644492924021
0.818773437674437
0.800808494689469
0.808432396784798
0.826968085926853
0.80434666224427
0.796617371716139
0.78200227457166
0.786187929332251
0.779649553130112
0.773855284823703
0.762565343125682
0.751826367611579
0.750528236411687
0.759387376118268
0.765768680411657
0.756302076989253
0.745759584080445
0.740873891514259
0.730240874278662
0.741054927334687
0.722141331721348
0.725879980086656
0.718883535048513
0.70832394644978
0.707340227300674
0.724172123038302
0.714191321527705
0.707509568513833
0.698720321073804
0.698803888061718
0.689740605519282
0.686980479913418
0.69604390988527
0.691693616113552
0.669831317239079
0.686660707509201
0.676793296190789
0.669056633880261
0.667713024356861
0.668961890387887
0.664605066649116
0.657622828135642
0.655619496635899
0.658413698681815
0.640913862304146
0.652780927210541
0.637293790123226
0.635135109083572
0.63124895003767
0.633143002308743
0.622335269919213
0.619296861906792
0.62038088324342
0.622960364869167
0.612069031158065
0.625798309586638
0.610148018316671
0.613621179958357
0.610673094786224
0.602664982609873
0.5992667353065
0.602390128039219
0.599275694282916
0.59849659773669
0.592043201531829
0.590642207429137
0.585602850520257
0.592188425072683
0.584378217175987
0.587500613406957
0.5727896482234
0.569438836883895
0.576953589609435
0.572071040335663
0.571196044621417
0.575103370504187
0.571957668807861
0.581169928499224
0.573659475429508
0.575624122529973
0.564485375100905
0.573677075697433
0.573068568070622
0.572109150018496
0.5660521389113
0.557469627175838
0.556897569574182
0.575205118437821
0.579711019967213
0.579494350104782
0.575615614716163
0.566488367932843
0.568527194445843
0.577712262453235
0.573920896889581
0.574926206672857
0.570278824956486
0.573340749202745
0.568907865662364
0.57451381696964
0.572963189851014
0.576119247353445
0.567907447984194
0.587119999071957
0.577868912274069
0.578107654080722
0.58195095446362
0.585048430026763
0.572538187663998
0.589719179570466
0.587312877737094
0.585911166412009
0.582751115232289
0.605944709183099
0.587826294520204
0.585749167437158
0.590759009901639
0.592041023933693
0.589430115565706
0.60330582309423
0.591313820741528
0.60851278859646
0.603617358301009
0.612859016855387
0.610820884537276
0.623489079886652
0.617102212444852
0.626862962016346
0.61722201354794
0.630682271557786
0.624911179838861
0.631888745695082
0.638013916170904
0.635787337280676
0.634365769736546
0.65115507471223
0.642858533743771
0.655573292736927
0.656864927752826
0.645303580039729
0.63594325276296
0.654686391558668
0.651557923324307
0.659182038505265
0.648204125264444
0.653279443701912
0.653861841125252
0.661666839660237
0.659284011941158
0.662966369126818
0.645198116537378
0.670243256011797
0.65686268422798
0.661351716993826
0.65022322389234
0.645036807211036
0.644578549833056
0.64419120452992
0.623600450695736
0.640313939503905
0.640303259665185
0.645871373956302
0.641011665759939
0.645297658845171
0.63912527175298
0.641360233051235
0.626718257840125
0.636721440473328
0.627307230098348
0.632972382667329
0.6271510608859
0.640352187428348
0.623735460409299
0.635188641677631
0.631748122951502
0.628880509292854
0.631051984466663
0.628308139910915
0.628638201823648
0.648164178389017
0.628478652618463
0.634112531871288
0.625944634143174
0.631360887575392
0.639467505001539
0.63296391613334
0.618040102754708
0.630903618946538
0.627523156196257
0.631363714138546
0.617222683841536
0.627654579126258
0.617993489724516
0.623571478900494
0.624740617525589
0.634398638721984
0.626284646019918
0.634250676258635
0.616860886040462
0.620834955681886
0.608439660848092
0.61693614099096
0.615533267113163
0.607948922786671
0.616378457586943
0.6116780163061
0.602343729754437
0.600966771437324
0.593296818689924
0.593951873253944
0.589589703408441
0.597624456465027
0.576448346197986
0.588004994505253
0.575613063551785
0.570518138268123
0.557452077477289
0.568041998918374
0.571915700102538
0.571886532816501
0.552773209780546
0.558164181339931
0.555207918116157
0.54518787416964
0.540558134401264
0.541224229134146
0.544696705126575
0.534623926078344
0.516789588409419
0.52328376031509
0.513528205477081
0.512664416533157
0.500432322552391
0.519795937483988
0.509085124646879
0.506745734703903
0.499983903089019
0.500235465011175
0.499051263621276
0.49181624811235
0.476090189891405
0.483478783074417
0.478335390728956
0.484644935095271
0.464147710606841
0.473908875528908
0.480265942216686
0.472393471157567
0.463642661636282
0.462749227768412
0.459132911950398
0.460414834200618
0.453469971881354
0.455173723778745
0.449764200093545
0.450037474572387
0.441917495147933
0.446720538066514
0.438015248003551
0.445408855444853
0.438512099029523
0.435050952662098
0.435525565676079
0.428765173554476
0.424024864282851
0.432164552472702
0.423452527585357
0.425041602016469
0.415979062241203
0.420210380030471
0.415019614112945
0.426285736314208
0.410396607835276
0.414874225587767
0.408735442865733
0.409511773255355
0.401799135310011
0.403615275927425
0.401398111539525
0.407881449225585
0.399731801489704
0.398516305682303
0.389951216553531
0.395589202726835
0.396417920263745
0.39436754714374
0.388966245334153
0.387652697453338
0.38145179735364
0.386593138384729
0.379425147672519
0.377892579480402
0.378498447505341
0.379602906183263
0.371615559674104
0.380082333076801
0.370821477829842
0.369840208042348
0.372098927504313
0.373711444917737
0.369789711024082
0.37109443676264
0.363069696138957
0.368416534400087
0.355630842633115
0.36881783233348
0.364847936736485
0.362980706293808
0.364468289587679
0.360007869845455
0.35456357847302
0.359172371596389
0.3504557092166
0.349950649666336
0.351718743262713
0.352837563102957
0.346396403022899
0.352014026006957
0.349793037157728
0.348878058983958
0.344409227968931
0.344285566153425
0.348675784320509
0.343965314239617
0.338320658671973
0.34626494974627
0.339966575251229
0.343374543282571
0.33652679078961
0.339709935252619
0.338691047181359
0.340119722491696
0.338791020939549
0.338820779217216
0.330921475563135
0.330891967895317
0.329273358521179
0.335336704624695
0.327327977083706
0.335105014898375
0.328044580842686
0.327655617914402
0.32108131075196
0.322316261172037
0.321840410151175
0.332428444285057
0.321087456806158
0.319771448547668
0.32020061183798
0.319572327567743
0.313342677185057
0.320406073965403
0.316034736571645
0.323708526751494
0.318825243403888
0.31712509283881
0.317973381108005
0.320287425192798
0.309639588644768
0.312851188565234
0.316916137091585
0.319133071363185
0.309702418311195
0.318959295246484
0.3094057640783
0.313588243030707
0.306522967057148
0.310191653438932
0.311049394582264
0.316204686505093
0.306495345918174
0.312173665793517
0.308449054931451
0.309573478815769
0.301561575980528
0.307755133675596
0.303648649922578
0.304433982647652
0.304581509615468
0.299152866924505
0.306235099338926
0.304103573129013
0.295047971195256
0.30376129018699
0.298251219661337
0.301964512601105
0.296536989461656
0.304775029522853
0.289226559108707
0.297578562243104
0.288386022125622
0.293112598907943
0.293938683536863
0.296445064933634
0.290142686649241
0.291752315215282
0.287758500315066
0.290519882845612
0.284222419091253
0.295978462192098
0.282736017059479
0.288068242288742
0.28171368185829
0.286970757029711
0.27940484386722
0.281627656236424
0.277509024456726
0.278385759362585
0.277160825027487
0.277710685809635
0.275873787449825
0.279763057784911
0.269097705278142
0.276695081853734
0.266999609703868
0.2739490136018
0.27074587060584
0.269610995653002
0.269972067589053
0.26919338426068
0.267084967664974
0.266094977963521
0.263476267872593
0.269924954667953
0.264149054820439
0.266392283061899
0.259481546308845
0.263532658169773
0.263022137385683
0.262960498279853
0.256749345645195
0.258022482037595
0.255508842132461
0.258616110083393
0.25448565276603
0.252280495231264
0.249635728364703
0.256244119411488
0.249512997827189
0.250526079893196
0.251966930141888
0.246818927098754
0.246668477056466
0.246599701908472
0.242434356848064
0.243380447539352
0.242265720050936
0.245003124410471
0.239616577138826
0.247109989204587
0.238749902840236
0.237790622149595
0.235033506182288
0.240359757031313
0.230723900415468
0.23434148028044
0.231396262022249
0.234250184660179
0.226337222280093
0.227025459174598
0.220106425876622
0.229469510305859
0.22251260806289
0.224949256036761
0.222702860628582
0.223827037156253
0.220518561340643
0.22143776121321
0.220102471670822
0.2243611528506
0.215439760714679
0.213842798730852
0.216374497628782
0.216499748498147
0.212504314234491
0.215444710202416
0.213189824431341
0.214643691005129
0.210697397598514
0.215622223882969
0.209399466855467
0.214247228396291
0.208269786348782
0.209514429498214
0.209123782470921
0.213679357817009
0.207398892142599
0.212017637762285
0.20511168913906
0.207444852954066
0.202964862093135
0.205775152947223
0.205129638060929
0.2094237916254
0.202457102409359
0.202689115378363
0.200514823195719
0.202099075579117
0.203466867987444
0.208445203252045
0.204315217793383
0.204766906783139
0.198713702965138
0.201573133296051
0.195942564140995
0.205246592053357
0.196609355726228
0.196740982594194
0.197320493564161
0.196037629097458
0.192923732660804
0.197398037028751
0.19106323334403
0.190835739297519
0.192815725635576
0.193088128449899
0.191112595546644
0.194951186025472
0.189981093414529
0.193034458414893
0.1899326369379
0.1915795377035
0.186948746683673
0.189759940328205
0.188767965864148
0.189378841142605
0.181948829555705
0.18759253491666
0.183185239090873
0.189217138447653
0.181825016268715
0.183461441385432
0.1838149774064
0.183396062752955
0.182816847739014
0.185715496756381
0.185176604765195
0.186236840205696
0.18300564414924
0.184468704281745
0.182747306014964
0.1841062109545
0.18464003944143
0.184422206094407
0.177723842257009
0.185132715749469
0.178676118080164
0.182279648774124
0.17704339164843
0.18618091048007
0.179326101882799
0.180535970553586
0.179164519353531
0.180555278258947
0.178299729445929
0.178744969621737
0.179051536616701
0.179944896577821
0.179328339289282
0.177716922611376
0.178193108466765
0.17769693813304
0.173916085710524
0.180410744822297
0.174355157894128
0.177500042282326
0.175904323146798
0.176445091007212
0.174985359435789
0.177068478129055
0.172187101249868
0.173104908186701
0.174630602139677
0.17633864045155
0.17465317211815
0.173220537174969
0.167363396087193
0.173249013660814
0.172499112557556
0.172681833993852
0.171700659806371
0.171448552839762
0.170919666740192
0.171675669975532
0.169603936860977
0.173050780891106
0.16721052166654
0.169590263893177
0.166639807463188
0.168641237751844
0.16806370600128
0.168076322266567
0.16306761773731
0.166148250094681
0.164011939289118
0.167702707371315
0.165476399516336
0.165928520747581
0.164683479074858
0.166037401660724
0.166132217226301
0.163157038879321
0.159991466047719
0.168177508588858
0.166639364374596
0.164089687783927
0.164460582949272
0.166982441185061
0.163754866947714
0.16563467112466
0.161539936724789
0.16403659569838
0.161222791819458
0.161205688342795
0.161675775131046
0.164767766252204
0.16286105030232
0.159839933259074
0.158431533840716
0.164409067000121
0.157301756412728
0.162888767411598
0.158919949175221
0.161181522364831
0.157602871124802
0.159908347391287
0.15800466817177
0.154348349395469
0.15612743084497
0.157310499522443
0.154182851000729
0.15803251138404
0.152662692606146
0.15781438223624
0.156704965236599
0.150730817344718
0.153078465553502
0.153050707144888
0.14892922198293
0.152434998871516
0.149146892956802
0.153764771266871
0.14889591939178
0.151899125168241
0.149578905070482
0.147008401013612
0.147082973681713
0.151043503304378
0.149847340427336
0.150933545740551
0.146978745652156
0.147717673796899
0.149029397651234
0.147595425537206
0.144593258352257
0.145753916949865
0.144737383025817
0.145731259276432
0.144988106308793
0.14326579781937
0.143628430833339
0.144458583882976
0.142591920365677
0.145342847993567
0.141717585384868
0.139959709660424
0.142084876696208
0.1433993444098
0.141875542006808
0.141675762348192
0.141313615908053
0.142025994087722
0.141690196387302
0.139671422883485
0.137467616768335
0.139887265429381
0.142103323340594
0.143070451638102
0.144046621808127
0.139594056496734
0.137858963964818
0.14294714718061
0.136491974222851
0.139267892559706
0.139853000616045
0.137208852618661
0.137122749789742
0.138072319708304
0.134713039815586
0.138000511229867
0.133276978120792
0.138402648660609
0.136657256934615
0.138250989830121
0.135296718777588
0.136072157569741
0.133779426906392
0.132217832468095
0.131496810021119
0.135262424813648
0.132661374871883
0.135653013040026
0.134517611162457
0.133569681571476
0.130758863752904
0.134144910454267
0.131689160608404
0.129642384443684
0.130397725856309
0.129717215491571
0.127622927829097
0.132040703322764
0.129495209776584
0.129987954008676
0.130927821218436
0.129088152731053
0.130481915580441
0.131173987924306
0.130336457016751
0.130161783304921
0.131558544114867
0.129341305340391
0.131117282763748
0.129088341958437
0.130332392589394
0.129174532726228
0.13065249265672
0.129440965596216
0.129537277636851
0.130711678146376
0.130727612368643
0.133753932452846
0.136078163613208
0.132240850210729
0.134930016183544
0.133905948513135
0.137539542828444
0.134608551647609
0.134026632593885
0.13328055141952
0.135690688785387
0.136201146276884
0.136423481169167
0.135954885727565
0.136732125530025
0.128446430293615
0.124039194353651
0.122467434532594
0.133170859573741
0.132817474606521
0.133665116126412
0.11976694625778
0.12421659377599
0.131953262742415
0.125997833916276
0.121240952267967
0.135501651968014
0.125614830201402
0.124759756718493
0.124059650592109
0.126508002822881
0.1221735249726
0.128259827496238
0.124245770406036
0.129726657842401
0.121373596511703
0.135694311815241
0.126012091424976
0.131225723089789
0.119686228060436
0.137877228745623
0.114896050068027
0.133791443579058
0.122416013526936
0.132136834646142
0.116542805550581
0.139485615987247
0.117936421765102
0.143588141844025
0.115089127028909
0.144084776163961
0.113458349238501
0.138832105718872
0.101371878605013
0.141957925695849
0.103114946116806
0.146929630758867
0.111760996850145
0.159640236629227
0.104194322054006
0.148096660257257
0.0986803512872175
0.152122733582044
0.112908803846699
0.155368618570685
0.104596108735092
0.154784505883444
0.116586618100139
0.148173628678493
0.117491788448418
0.138105099775628
0.139983152291501
0.122973074938876
0.139987721669111
0.118906887004171
0.154797712953216
0.109402485849007
0.162942384281354
0.109218158988076
0.1513731730969
0.120202917065123
0.147805412958522
0.119568310287358
0.14058583069387
0.127330272677591
0.129385193430161
0.131847938866023
0.130220237464221
0.130885404536479
0.133244402700202
0.127357365310022
0.135593265423291
0.124516425088802
0.135534309437761
0.122519455211134
0.134652822218167
0.123210219508087
0.133506516926546
0.12725375309444
0.132615181296075
0.124714613214378
0.130307213961368
0.125927134326577
0.131251083972297
0.12621143936546
0.131386569468265
0.123083793705636
0.133095579131333
0.124666335968266
0.130323751693192
0.126132432397795
0.131732057832047
0.127011147894428
0.132807702618395
0.126254997365765
0.132155822883313
0.126313004029521
0.131549897093694
0.127240768893934
0.134694654392879
0.126480185925705
0.131309991743031
0.132210065558617
0.132887338591283
0.127899609869871
0.135559150700599
0.129759227302135
0.13158640445225
0.130054198844797
0.136424754795232
0.132185231701426
0.137954489988046
0.13217781774279
0.13757044287156
0.130166508398612
0.136210253106522
0.132658109221665
0.136167846702115
0.132354517501725
0.137196945877335
0.132926953112883
0.137929034200109
0.133467172518931
0.137646102600641
0.130643783404955
0.138192235567119
0.132439294522133
0.136068774623129
0.133741894002823
0.137622468368655
0.132980181296396
0.137128961400962
0.132855639918182
0.139118064354325
0.136399939449431
0.138695802732009
0.134368221491814
0.139370909368944
0.134903016746336
0.137293678719398
0.134177332062231
0.13834538828645
0.133684997040681
0.139924752426186
0.136809102042513
0.139024593900212
0.136452836657502
0.139652429677687
0.135177382654239
0.142989195123001
0.1365741401743
0.140755995966992
0.136250070565309
0.143164117616596
0.1407971102189
0.141088361569136
0.135852906908869
0.141823982378783
0.139615636267482
0.142589562096187
0.142226285260227
0.143956932705823
0.139757369883422
0.145774010639241
0.143649431532316
0.143392300530056
0.14209810845363
0.143157073084405
0.142640340408403
0.145259881515402
0.144798948938575
0.146558924238992
0.143606048154966
0.147106166745432
0.14404759918024
0.148441884881743
0.143729158193868
0.146876725553332
0.145136042484834
0.147150639284619
0.145576667427354
0.147839375792623
0.146087800493031
0.149987131842388
0.145076332128527
0.151552490119857
0.145398883963886
0.149875982158758
0.147198934279313
0.148172158777948
0.147453562284278
0.149461905162739
0.145129308578012
0.151011196903263
0.14809421101952
0.146328355555463
0.148609791957185
0.14722225533254
0.147344796418601
0.151542586909722
0.146722616152186
0.149652255086391
0.150697389069074
0.152909455818262
0.151213223551829
0.153511977074849
0.1490933377891
0.151296345369267
0.150029485659861
0.150755391523288
0.151433702750895
0.155020842953184
0.150384828195205
0.155321347155449
0.152179754432392
0.153819711361023
0.153520163599896
0.155522913516685
0.153559720828359
0.157452652005603
0.153088183316047
0.155077273844391
0.152878251715736
0.155770823212617
0.153927789022835
0.154780678868212
0.153284131603405
0.157441668500481
0.157288289933361
0.156370259056391
0.153446730556662
0.156623173618408
0.154292166390973
0.157104606924909
0.156233175767678
0.159475377218082
0.158724503290476
0.157721478400596
0.154661666364041
0.156586396907989
0.156179039290232
0.156645031394769
0.156391289483949
0.15883687828817
0.156143204907235
0.157307554948778
0.154819486889555
0.15693178986808
0.153428119979781
0.154083416705802
0.151586755578091
0.154986560862055
0.153368188657863
0.152761386383995
0.152331626964979
0.156419156058057
0.152240665584938
0.153703229930689
0.152466604467014
0.153530930873152
0.153564148852158
0.154467717517375
0.152094439926874
0.152637571402853
0.151887416555173
0.154132220977179
0.151528992059811
0.155655019818628
0.151893946014959
0.155986508813171
0.155493689411447
0.152255032253656
0.153618358629789
0.152340239928735
0.150118595041278
0.153037748938301
0.151714481271153
0.151870425482158
0.150497198344368
0.150419218469388
0.149482592612519
0.154174450467622
0.153013945030077
0.153963935189983
0.149947294882311
0.151006420389067
0.150190171339273
0.151078277363621
0.150453985194139
0.150825684780567
0.149472334240287
0.150874229025342
0.148391024335966
0.150518440185406
0.148519993501821
0.150401323117037
0.151525400048662
0.149407376869677
0.146599869391791
0.152877046892155
0.150019290059843
0.150016111300728
0.149262882425628
0.148829241289608
0.148911407294624
0.150169237667284
0.147327969195564
0.148806093865809
0.14834086186641
0.147674819915482
0.147923314066164
0.149018117172907
0.145540234843124
0.148445655600467
0.146796362169984
0.146088757476768
0.144007184954424
0.144684068792572
0.143651590055912
0.148504961851741
0.14610358791738
0.145522367016937
0.147365096417112
0.149120872959598
0.146077522917058
0.144059527392339
0.143396430022244
0.144763716627336
0.14231068476505
0.143814041171393
0.141308778278357
0.144625516291433
0.142175582009591
0.141382873964787
0.141116976792123
0.143099549170385
0.140099961897972
0.143565042682194
0.141327450895143
0.143582380119659
0.14150821621717
0.140513025223362
0.140778884788963
0.143440918470961
0.139810435469417
0.140962187859051
0.141830202812565
0.139945501584359
0.142187981917408
0.144346963685721
0.137829567081247
0.138059198935829
0.136522525123617
0.138253434509672
0.136492711812637
0.134714475530912
0.134746613167193
0.136699462966426
0.135747345803652
0.136165131195889
0.135461703015412
0.136804752031704
0.132057139571288
0.133907035946702
0.132363374748276
0.13209454665968
0.132657142853122
0.132877605965346
0.13278127139403
0.134075824740862
0.130460287640025
0.128886387157723
0.128548896860629
0.131612391582561
0.132724880710835
0.138379723870986
0.132500368336114
0.126889464725478
0.127883292101717
0.128383420323091
0.125972845319643
0.127915736250686
0.123580239106146
0.124527482939055
0.125600092589113
0.123463096702239
0.121903854926501
0.122334263955754
0.124167639007375
0.124485206790304
0.12231837819523
0.12316949826963
0.121125087816843
0.120704137209878
0.120712099227287
0.120251586514145
0.121098146626328
0.119357066861649
0.12026579955828
0.122904923010847
0.118442330532184
0.131032928735253
0.138997426811271
0.120336648838353
0.118762687234891
0.123926898307598
0.122148652480277
0.119351183342331
0.119232879247158
0.11727008852843
0.118364048065735
0.117762881079021
0.119051341941252
0.119134637473353
0.116907738652837
0.116703252453552
0.115995732165668
0.117265551285343
0.115467484035034
0.114837629322425
0.115153727545253
0.115839504666728
0.116511003730827
0.114701526842808
0.114575674631698
0.117248021633078
0.113956862294429
0.115582265062399
0.123728765440763
0.120617218425058
0.115734103717207
0.114822674621993
0.11269482084314
0.112178106473523
0.113289074249774
0.111587364821806
0.111453925818836
0.112417217999227
0.108561151664544
0.110153048615137
0.113079358961397
0.111041120659483
0.109906674613342
0.113164932680245
0.108862841691055
0.107611633495664
0.110855670750411
0.10728179277074
0.109030424968935
0.11031210134951
0.10878987621962
0.113180732169836
0.111748387615361
0.105478216872866
0.119465105513466
0.13023696013966
0.110782104249162
0.1072124733951
0.10784353315726
0.10740251842456
0.104932157193398
0.1050625801779
0.106866613567507
0.106876544035837
0.106059861411707
0.108291695961142
0.106302274134533
0.10695900920997
0.109620058111855
0.109436826842115
0.105630007781497
0.10368810981215
0.105884937420527
0.107762989623922
0.105055239133733
0.112921397760618
0.122932333550608
0.11093332033101
0.106479358775539
0.107717933678974
0.111224334195723
0.132746969693296
0.115819691942157
0.10203559005546
0.105545857324825
0.104940002802779
0.10510419146963
0.104726117579014
0.102321335020835
0.109924406624047
0.113544443192929
0.106907428463162
0.108851492363983
0.105583833102162
0.102397475666814
0.101575087541442
0.102393838037245
0.101854154409855
0.103458109531273
0.104121064842178
0.101956582278327
0.102590123425588
0.103059856543656
0.101395554395625
0.0999156638933941
0.112088632655072
0.111918561245411
0.102270264163392
0.104525196705078
0.102015636940932
0.0999618158025665
0.120235390137598
0.118781269150281
0.100489824393419
0.100066910137527
0.100666735218711
0.105856392011577
0.104242321109385
0.101299677091967
0.103371973770765
0.102377789700758
0.0993308676129092
0.102038586995477
0.103984689189578
0.100117062935136
0.100395122168657
0.103531654881162
0.10109013905411
0.101549770951049
0.10135655030772
0.10159168195187
0.103035443333945
0.106823004147161
0.127978264803911
0.131038515614392
0.120430849888231
0.116570053085808
0.111433376045644
0.102634513045034
0.101234574183826
0.104735873282265
0.10558534176067
0.104171550753095
0.103317691023068
0.101748762350841
0.105020263853159
0.103957724935537
0.103362556880822
0.103690132777303
0.103084099509157
0.100377410158282
0.101509524463402
0.100951391662842
0.103177134037661
0.101246938898117
0.106003441302396
0.112645145290674
0.112764650042646
0.105132736775969
0.109824884270662
0.146529150741276
0.129655161376156
0.112414288987874
0.110331723334609
0.107282056274626
0.102416796677284
0.100344930662737
0.106216588918697
0.111458927169848
0.105541524105547
0.104663197931421
0.103878776302234
0.109265423261685
0.105529711464521
0.104874697044236
0.133490204073709
0.146926876950779
0.117998168087277
0.109016106885559
0.101579048751193
0.128035110000554
0.138101852616859
0.114107319960976
0.109968256611978
0.110022138283673
0.106561565141026
0.107936280822844
0.104302229242257
0.109078376143658
0.114604951418557
0.108524499620249
0.109985688882703
0.108238921153363
0.106380537002679
0.112102576701472
0.11459780246296
0.125355129889417
0.120183577931967
0.112135469303674
0.118293267967468
0.113468562948692
0.109990065373559
0.113425506850828
0.109839825616025
0.112081652931017
0.131944807324212
0.13076574313711
0.123778448999046
0.135626899385748
0.12679115880216
0.113700876943904
0.119854027972592
0.129568958824017
0.124001538526306
0.11131769811782
0.143144528937941
0.146854524067424
0.150574045927895
0.132839777862076
0.124613689169202
0.11589032512739
0.122287108649899
0.112762898324631
0.130378167998166
0.139994088707885
0.125632446127594
0.121542037947765
0.118690436301108
0.137179674935877
0.136806691721636
0.129699219299799
0.126614748111194
0.12347852527903
0.126373167121942
0.146917775845176
0.123447929303636
0.138580819526147
0.169931376305387
0.16787689623776
0.159366479083296
0.129342687951612
0.143442883375058
0.160373278287645
0.142451381301734
0.132181498040923
0.129147546926417
0.136594994541638
0.127212731667033
0.154201829985371
0.174478527142649
0.139475537951906
0.139394249211692
0.139565502646636
0.147900060911124
0.170741417772076
0.154760741240077
0.137754014922728
0.143691699376
0.140506872747942
0.154134527037651
0.206380697943673
0.166337486461186
0.179865456752012
0.178630217262853
0.18200477866613
0.166152664342798
0.16791565411612
0.158527887128475
0.186418650026344
0.181815996483451
0.165492556022557
0.153020715931195
0.202345290804075
0.180840686045142
0.173989683315691
0.170765871191224
0.171719791021562
0.176077181635687
0.243491926083137
0.245491335623055
0.213693473651771
0.181712559102803
0.202476728172557
0.213695333748381
0.195965692027797
0.189472223262231
0.189021098316406
0.186920893468652
0.191030839882623
0.198918071913697
0.20801756351876
0.198356173782279
0.207989242938379
0.200452112938838
0.220287899187585
0.247958315226939
0.30717452430696
0.250218672391032
0.252718405723762
0.259248393538602
0.255783336429695
0.238936537815563
0.23266326648247
0.23532891596686
0.252113712005429
0.251665615075027
0.245510958225682
0.25561923295435
0.289031915451199
0.271095739386665
0.310286387128205
0.287783120028906
0.2889007538809
0.275163817621614
0.356854421345908
0.44041614264977
0.341265055538265
0.322610517067129
0.322567123642371
0.382902242894885
0.396820026238513
0.350354729049197
0.339406984178388
0.344548604707538
0.345409419374933
0.371122096681897
0.381517212320763
0.393298453424988
0.409194108020616
0.401688758029019
0.408848428196135
0.45446684598367
0.530604529868803
0.516638574954726
0.455965446154371
0.455919716774967
0.484681171401434
0.485966963179959
0.478481153246536
0.493957498526689
0.481406168811346
0.544626822481736
0.557136401922069
0.548156638450635
0.523302322258401
0.566526151557803
0.572737425676979
0.562332831503197
0.646714176250759
0.622590535151449
0.608090337729637
0.601188845060599
0.628218633490573
0.600533693976697
0.631355033933827
0.669798444977954
0.676742260911256
0.669303036177898
0.678616649159101
0.671205625462724
0.677491938497979
0.696121469554132
0.696002565145176
0.715650354823477
0.77599671341812
0.789765994793349
0.989111744054791
0.768423873205427
0.737733186620571
0.730134303290565
0.771466730104441
0.784130031165441
0.811231973931926
0.846713579545282
0.819750018543943
0.767781746563122
0.754849309470844
0.754277138860246
0.761089065635942
0.777340234905319
0.764606854730487
0.774193544296766
0.820639114967136
0.769371681821202
0.881932127564919
0.861825424305757
0.797728667617966
0.751244651428699
0.775265699262558
0.747015271868574
0.763663807410477
0.747441722443857
0.794006531738487
0.761469233680545
0.762049136930942
0.721350928758012
0.734468265552167
0.767216731577785
0.757487272689721
0.713629196372545
0.713281856305483
0.703637684417245
0.702706156848126
0.649592192509651
0.737444984274948
0.720772670976698
0.68593102080505
0.655134374336563
0.659668198803136
0.62964869893537
0.639858818853999
0.621381291494405
0.638366776904234
0.621159233705529
0.625144330277072
0.611878789884861
0.601307603629822
0.588412468498618
0.593456981264171
0.590571883297776
0.580772128261448
0.572059527022886
0.572146572037332
0.570075967123508
0.564838858991212
0.559098974942097
0.564274252032253
0.551112520404224
0.563654813661776
0.559508321566257
0.551263201284515
0.552870924617409
0.542164200636624
0.533378320242037
0.529615800299853
0.532993914760807
0.534396113696719
0.522417390677443
0.527483353661776
0.531035981991266
0.523909737814327
0.520353715842928
0.51818684906396
0.520047266358743
0.508392659536542
0.515308114519389
0.512284583899634
0.525968405517997
0.610399575090251
0.522751923903153
0.51514702099195
0.483397944636245
0.517570372959108
0.476939044134709
0.497277602915276
0.553045029369895
0.517984126510838
0.483333531174163
0.480471141688675
0.470695971325491
0.512421510143475
0.475166903478515
0.475015138676886
0.459425756578347
0.470104600641789
0.544477179699385
0.542447013082727
0.651757975092171
0.551783012083793
0.48315177727715
0.435093499491616
0.501918513087786
0.476795758832149
0.447415733139379
0.421915263406938
0.428187286428621
0.49208881846059
0.44002994430378
0.430756458307
0.408056983326853
0.417909175566171
0.459390947726118
0.461757795066919
0.436352580047335
0.475927653554247
0.455128680632128
0.444272571426548
0.483474181072665
0.510756343573013
0.430580039164015
0.388776772708961
0.392663146732649
0.382461453222186
0.425252095905332
0.440254730515871
0.395108056212609
0.410619612352348
0.364777388225143
0.376534162577004
0.371818280510934
0.412720303776626
0.365048447965795
0.412724929171157
0.392697553722955
0.364076839727316
0.379371106644046
0.392875855247469
0.442424389327107
0.423996298254019
0.372907549962031
0.347044196901869
0.433898113658182
0.390193759171964
0.384361444654389
0.368431250453843
0.32756184748996
0.366521373566724
0.35789396113795
0.340178892608244
0.375672444070885
0.363880936591305
0.400386999126285
0.4327684115691
0.459012683322886
0.413004064444648
0.34420770589823
0.335499081659542
0.324403354130438
0.344418336221655
0.328798853469045
0.328327370151524
0.395695469229724
0.3226542728305
0.363572110288848
0.37978633836233
0.346544077740285
0.336400290407522
0.340182255887238
0.333645940098757
0.353577332533162
0.39384951093962
0.41952407432687
0.363136510331811
0.391998520498966
0.372672426073721
0.367547090492484
0.361274571595037
0.368178062058714
0.360304542122962
0.382856466930975
0.392556105072947
0.388333598134774
0.389400544819662
0.397838708037083
0.388526194805048
0.473811056769675
0.430740887111286
0.431931834979229
0.466140503831978
0.476393345015874
0.524581758546856
0.462406757116264
0.463687362311996
0.459633566236507
0.476261263764707
0.476594310892915
0.474785099553774
0.513368670867264
0.521355754235767
0.50401679036157
0.503000485977963
0.507950685463958
0.514222620940722
0.521202710957025
0.570348749780691
0.543259687740096
0.660332091207214
0.573711392030094
0.578182042860506
0.532842788578017
0.543577187679859
0.544505649045772
0.540833979111134
0.543498186269225
0.533084696021551
0.554252695945523
0.585354224906966
0.547521365330416
0.550959100098787
0.5422781944592
0.557382361505635
0.553729321009455
0.563940560934246
0.563585342781291
0.564301986989528
0.573166723341845
0.571793518298091
0.602369643216147
0.677396326952895
0.602767783026904
0.60203341842862
0.588331551636353
0.611468230142107
0.587272090328511
0.615060434689994
0.627228572946821
0.621051140932358
0.610952049288588
0.622020896764914
0.612093778226343
0.613878642075301
0.649051851405848
0.660738066303726
0.62507390074885
0.650006043807097
0.608053016670979
0.763043373504821
0.679140261435006
0.694176620104144
0.658017239263623
0.668152615369323
0.647958565011975
0.658258923842743
0.649355892300401
0.663779488396823
0.642376616427704
0.661438621809465
0.661098243765775
0.647646043230823
0.654202281641592
0.657342380732442
0.662321371762769
0.693335603483197
0.653773222304205
0.661182214096562
0.64896837576503
0.648242631942828
0.639276369054594
0.692097747479403
0.670950078459312
0.676312917010174
0.64621517399941
0.668036148416021
0.698376937386185
0.677391798633636
0.641718203612699
0.657379427712722
0.635446485651407
0.665762186138503
0.637648418787654
0.684803240289952
0.678302965360753
0.680183834308777
0.656867994306296
0.669318737421964
0.658404945968686
0.677567027664152
0.675194521779715
0.685470193044908
0.677676594810202
0.690922519623378
0.687453353931624
0.688700412979523
0.698215731086093
0.713841307958001
0.714807769055703
0.715562007823413
0.685885133327674
0.708755312666072
0.685555740378755
0.700013043030815
0.686607376425205
0.694997893003845
0.665359003173652
0.682864836447136
0.664263037360957
0.679595039911474
0.697419742626544
0.659412910958359
0.687443071937434
0.650456846310507
0.64763138105494
0.64730806450129
0.644143698950573
0.631297919259035
0.632744323606245
0.640384957749641
0.623934148639882
0.618387254539547
0.623245463230747
0.618727248186277
0.614974822597508
0.620790548564978
0.612176368891654
0.61899478955
0.606979910626094
0.622028037743829
0.610286763122327
0.607025653091423
0.609087553554092
0.610464187797584
0.631338012184392
0.633673186894842
0.633180988023334
0.618182705714098
0.628085132695703
0.610647930344766
0.605053755604461
0.60075711577214
0.598313319680502
0.607627147953841
0.607132710936823
0.606535846172886
0.600700013085009
0.601356839052697
0.598927877355827
0.599904037590955
0.595139153383603
0.590445877797854
0.594195024977594
0.603514796993434
0.59469216210836
0.602439119324879
0.588803135621565
0.610722891211771
0.588510188387085
0.597775592941746
0.588782256191284
0.595350263186347
0.596979225144404
0.593377041701893
0.593846772802794
0.592479922155416
0.583853731005817
0.582413542688457
0.588158731443871
0.590772928413338
0.590737493012884
0.588389495788324
0.584943950912345
0.587426382936915
0.572562436908434
0.574199236765583
0.574369998018924
0.571730159644292
0.558025495751741
0.560895967696931
0.554924921219045
0.560599324034927
0.549225707414047
0.550704728978113
0.54365232443195
0.545341307614362
0.536879521722192
0.535330937790569
0.533904574688557
0.531637664834815
0.531975876058427
0.535409506602485
0.525138047943093
0.524750868391443
0.52215619922417
0.521259733725393
0.520213939716702
0.521912276784799
0.517607728728792
0.52479074412591
0.520325758505872
0.521267640339645
0.518621739188493
0.527063861169218
0.525790703783343
0.527196298095271
0.52354097296652
0.534404974046425
0.537453152154506
0.536894037191949
0.534298134032647
0.537372464309596
0.543547341416631
0.544726931221464
0.541065179749639
0.545247801940691
0.54516386831234
0.548471916504405
0.552036399392903
0.549263331250485
0.548875849235157
0.552271023125958
0.548254571473696
0.546604791330263
0.543595604453892
0.552703823935858
0.546170223303732
0.552116938240829
0.548190950319955
0.547429637974942
0.545789252625805
0.543179523140928
0.540752715063039
0.541759752129364
0.538932372438645
0.536412426205945
0.52968401926479
0.533562524526281
0.529807631553673
0.527450843868194
0.52447081597191
0.525084701771155
0.521559716530252
0.522190686693068
0.518998174814673
0.52072287815666
0.516643693541193
0.519193004434793
0.512400986871131
0.516030392540054
0.514272843205996
0.512847513696456
0.507197273594321
0.511181386521894
0.504614116993687
0.507645174621801
0.505703757933555
0.506269859173533
0.505489911075974
0.503966897985624
0.502796658825323
0.499683868884362
0.494071972300992
0.496731183131559
0.494267961984
0.493280890239135
0.482820783998417
0.486327757322539
0.481924019642822
0.479740975209308
0.473084497690421
0.472292087830985
0.47219583419505
0.466573194315483
0.45900867489415
0.463097266541341
0.460066877563051
0.457190381395146
0.455598769063155
0.457087710083709
0.455425597069266
0.452833911268554
0.454110329225349
0.454536203514076
0.448049094185823
0.449319192870539
0.449201316650792
0.448641744985663
0.442064223553327
0.440091066358542
0.433440424934937
0.4318211806887
0.426702749084634
0.422395655867542
0.41900287249713
0.412262092039009
0.404973906099882
0.403148468951455
0.406415458303704
0.40304887026917
0.401756483458647
0.403932832278691
0.404173057065564
0.410106432166306
0.410225542442903
0.417904451609086
0.426132152394885
0.440372092345248
0.448105343260834
0.461538526079141
0.470970669396715
0.485573273097985
0.506107626066621
0.519727380758641
0.533012022334537
0.556535698262566
0.570666284393704
0.587488084580896
0.606898188950176
0.624337893406473
0.647765029723951
0.664978277114271
0.678098076451018
0.703391045154149
0.712328921747274
0.730496935669639
0.749307581444096
0.770513822613322
0.781885856257743
0.793799743317506
0.807932637714028
0.815829490810998
0.827057735251673
0.838173913833039
0.845898344884571
0.865091158847153
0.857333429065936
0.867754551347526
0.862709592357746
0.868850286804335
0.872868840227064
0.870497646186879
0.859249876627758
0.867492011000741
0.861916006420728
0.860744301776732
0.865484857527211
0.85802241655479
0.868787194476186
0.859412511975371
0.860704574449692
0.861218495383573
0.869792415102271
0.869833969365396
0.862581994151223
0.881892102672798
0.875693450323011
0.890828620527088
0.895599235924363
0.903556137506904
0.90980005290049
0.921787266911038
0.934893120078923
0.940363339749025
0.945975174944646
0.977388949029867
0.975023026584315
1.00677154892867
1.01194931558281
1.03010340856151
1.04034088072852
1.05606997660112
1.05493771705899
1.06028124433209
1.06681433421134
1.06597562679354
1.08034619981943
1.05980732781569
1.07070829674427
1.07349012958198
1.06686598242194
1.05406959383517
1.04952372297859
1.0484971037899
1.03291629418418
1.04882477726054
1.03634170939901
1.07169416492594
1.05247870298982
1.07067750114977
1.09165174961635
1.0823029374311
1.11094807297535
1.10665717058238
1.15570038026537
1.15539778564624
1.17477561937848
1.17432884129026
1.2023810441883
1.20430013927225
1.22765122648712
1.23096809270217
1.22722485913181
1.26256415316108
1.27143025089013
1.31412904324918
1.32059269890911
1.32714849226162
1.35725953569052
1.35825632012935
1.39896361360733
1.44530162027425
1.46337843359038
1.48503785747379
1.5033589920355
1.55285484466531
1.61311105844119
1.5608405572812
1.55214654054177
1.61374474316147
1.65017399100387
1.61629090761137
1.69649046648485
1.66110182167893
1.64947363043409
1.66735087967405
1.68310205407807
1.62525970195419
1.79511034252718
1.63679949974205
1.71145768832784
1.65359375811082
1.69541217720948
1.69298331162787
1.67027918847231
1.63826992753368
1.6728295452429
1.66769787718752
1.74399427999912
1.62685642820274
1.67156441185943
1.66323171780444
1.76012013336247
1.75169273255013
1.69744597793177
1.68153952418212
1.71328369126125
1.71071015564288
1.8397290316431
1.79521935115486
1.80230637575243
1.78502421430447
1.8387850227655
1.68178257796692
1.80103847668353
1.89812607906359
1.92389768882255
1.94635000025805
1.97098162422647
1.91188536310422
1.90483142069728
1.89673357438545
1.88623823549203
1.94893544511623
2.00508456616522
1.92663428260876
1.93802839822815
1.88202974075999
2.0467658131225
1.87042152354217
1.97143485290368
1.92578749907715
1.8163188157124
1.93315131825514
2.10477358970966
1.81841797540873
1.95717831732712
1.84342341245607
2.09351983298668
1.91189060341167
1.92716099092651
1.89718810771002
1.80458986019501
1.79606865270871
1.83436547648835
1.7408336996014
1.78033755523715
1.67466115050572
1.76152152199668
1.61562985023697
1.57099718121651
1.54012068241312
1.50675946364705
1.42264767291738
1.4531189492475
1.37194141753201
1.35219306545691
1.32917075515215
1.33823341891421
1.32827407958184
1.32893595057301
1.31626548751913
1.31522188886114
1.24992613738211
1.27968628850855
1.27723415240964
1.25054254365004
1.23005102666783
1.22673096711074
1.17861406768754
1.20364520567825
1.16857333679656
1.16483896151702
1.15229718836884
1.09534905149566
1.06602549215791
1.057212305149
1.02411070543724
1.00980330169065
0.986151050566713
0.94576485516897
0.92523036368488
0.889077932754334
0.850805844518718
0.821814447327292
0.790079977046733
0.773463997375972
0.735042594722792
0.713106725355105
0.693218716847797
0.665870749320737
0.65570597830136
0.637185758351871
0.61665494830872
0.603974891919526
0.595570505733246
0.584339402350121
0.570152851927862
0.56652735493185
0.559905398318756
0.548760600236836
0.543275203771661
0.540024667195968
0.527800208724501
0.537182366797511
0.528493891916284
0.529970988397217
0.524503552095711
0.525123719200163
0.524782488145779
0.526705152515439
0.528443710879962
0.535893882005097
0.534574794029559
0.533265969877645
0.545842961209982
0.547290025028603
0.544647077528972
0.547715246515704
0.548508805618741
0.541005047750011
0.543164448759451
0.538909874637072
0.536991278022014
0.542253487539147
0.537331667390333
0.537297949866655
0.530695198699793
0.532286822520479
0.530312652908544
0.531680400865341
0.526927650061258
0.532039722963747
0.53103427439795
0.535966715000154
0.541367891960758
0.550046480224587
0.556744535972925
0.550174784578816
0.555586382071775
0.564913637855166
0.552286314676442
0.561604501104489
0.557028540427618
0.563004692277652
0.574808431999891
0.573148699584544
0.575652040591861
0.577331197135437
0.572561573612314
0.584345580295477
0.582159838290365
0.584254879589538
0.57438381652286
0.581256926089408
0.586891513372347
0.590652077830195
0.589291978048957
0.59713067690477
0.597612421310443
0.6113539998027
0.612398245742359
0.622179925192781
0.626533852358353
0.639467119302761
0.639191186405653
0.664738568416433
0.670969663405299
0.683002954076406
0.699806343441903
0.720557333778351
0.721809815580333
0.736376831193946
0.738699875818914
0.747455251060714
0.741445355693846
0.741264428175723
0.733614848095404
0.738285557392567
0.710952976159388
0.725956389534029
0.712546490356552
0.703000368958369
0.699965146976139
0.713263093754167
0.700915901088293
0.699715956271882
0.690171152063575
0.710037550809738
0.703436198430766
0.711477710706413
0.712677765635082
0.722698017157163
0.717404823741206
0.717990520632082
0.709247732662374
0.724468888308545
0.690073248313493
0.711725408132277
0.696098628669103
0.706995704896446
0.705603728806479
0.698706442766783
0.696532826748468
0.70403004690095
0.690889382596603
0.691712476986594
0.70642433985547
0.706302831096231
0.690609871593155
0.726641727176688
0.680761634033944
0.689895620332721
0.699586516634337
0.702553684619406
0.705210308714652
0.712626631713392
0.692872567359668
0.712002944106364
0.697405685618618
0.700228015722365
0.695040782662568
0.702252686670012
0.704541280721332
0.728312854878431
0.721578187006908
0.714911354855916
0.700202411579833
0.725585877112242
0.689725008437765
0.695651306764253
0.707692399503032
0.723151364987653
0.694552070662921
0.704855052340183
0.70756138144307
0.725915676571432
0.705083781954506
0.704144263294225
0.705848953952762
0.708850113432824
0.717238171153732
0.725787794532986
0.731256534108772
0.734347545421051
0.70956702030012
0.737700781328482
0.708196218255499
0.750766620429067
0.71981622206242
0.734586548731463
0.739427512307138
0.771866573954916
0.733697978564069
0.763618979689959
0.74399517585701
0.755338383683818
0.771479290008264
0.770243100835798
0.777893217111757
0.817940941735941
0.766972949020303
0.791061073858953
0.780414365259939
0.763005020173542
0.801560078774319
0.806785831061221
0.751448443653825
0.78546537170998
0.813319458486796
0.815601573813623
0.837370189877434
0.849800753417349
0.850084448267918
0.906062299837435
0.839424497669002
0.864927496769048
0.88052079708541
0.93046242368786
0.870948819681506
0.950605826956044
0.990015769286185
0.958494152380881
0.959687985779672
0.998601688744324
1.00140265778917
1.1071745398245
0.991929961206143
1.05739292737788
1.06046968220453
1.07455526755633
1.03539380686666
1.06894955863146
1.12763745379095
1.04765606694895
1.04135632575015
1.17919649897106
1.063509452183
1.05753348034637
1.07327550725759
1.10811042483663
1.07891819288005
1.12165211596989
1.10521807093994
1.10933156267565
1.07177998533983
1.23356951125425
1.0634580124402
1.11781725620532
1.08694492394445
1.08748628136657
1.13182032845037
1.16239842228791
1.06812302947029
1.12899691500926
1.12580142432016
1.18981162125315
1.02394975232971
1.03111512050788
1.04833679676111
1.14669463014581
1.08610342383438
1.17504798051477
1.08416234338186
1.11983390815429
1.01694144335797
1.08209991130056
1.03753469585216
1.1603389992244
1.11350956477514
1.10768641030767
1.12759357853162
1.19828729320706
1.0840010443454
1.15183518366202
1.00423428998448
1.07907994960092
1.07350667473298
1.21459570031516
1.1386237579899
1.14245586717239
1.07294536039051
1.20470179297741
1.02527656024382
1.09087150313538
1.22720564067945
1.19352486112884
1.10821649559237
1.29575828476423
1.1213887123827
1.15221601920196
1.16189638522156
1.16026190826791
1.08175359282585
1.17822310847171
1.13407302469519
1.15732316067877
1.24918097063896
1.20380877205086
1.00903908117155
1.11596460817775
1.26466992988963
1.34030405170015
1.2501268803548
1.23324179384654
1.46677649629892
1.53588173836774
1.26450414899901
1.40629501869408
1.4890662391396
5
2.22312924901461
2.09164851731156
1.34447984252914
1.2855892067503
1.27284641488607
1.32016875948185
1.19700575887754
1.19335745970971
1.3305517748072
1.55215465478297
1.43439384380344
1.81277147124235
1.36836040329285
1.25532425493186
1.05002501199002
1.13980663766472
1.17881196854522
1.42061801540961
1.31371324004349
1.47335583401668
0.887797526712203
1.11646694233318
2.13190416096212
1.41479240821398
1.36462385646707
1.64675106388828
1.64358214894942
1.19079697808655
1.10828571514531
1.32268223588212
1.18750214663718
1.40374767927275
1.21958409579652
1.22746461414799
2.04368892609374
5
1.86272984915455
1.25039495235341
1.56738635256542
2.75889965716383
1.22482104500729
1.54981184747837
1.39235304175814
5
1.72773507442669
1.14632727823073
0.892500111121792
1.14311326538213
1.68511592404244
1.29118075930647
5
5
1.85823967257965
1.30066896323539
1.47920867093246
5
5
1.83567867234122
0.833157442299002
2.00288053818112
5
0.710552167470252
0.789849318764816
5
5
