3596
4000.36533379555
650.420452594757
1
2
2
0.0618012459011005
0.0457509298483149
0.0657303611710658
0.0458509795301749
0.0608137884695022
0.0445637226630118
0.0627073909732404
0.041433740497166
0.0626828073139014
0.0455335067834279
0.0613025198037584
0.0482034207981962
0.0580193167862468
0.0544778340022282
0.0580042918337393
0.0493095584465537
0.0601006280346004
0.0462471506107874
0.05750902331086
0.0440712928649705
0.0615375247599032
0.036860436881373
0.0710871938686629
0.0441624859683764
0.0680454296826257
0.04472279259354
0.0655210572988235
0.0476815197498855
0.0615046114686106
0.0455595602004471
0.061359047259209
0.0475314970582024
0.0591112987123821
0.0394828337148199
0.062064770060799
0.0431979737663021
0.0575776538817911
0.0445063926672292
0.0613536699858199
0.046944988620744
0.0713477979646774
0.0405597080217034
0.0549150417590247
0.0504742723447145
0.0591672591081065
0.0457323244902864
0.0647812972576932
0.045380063001302
0.0570375713267295
0.0419589239618508
0.062993086380891
0.0391990180099159
0.0681161180623234
0.0417519535134229
0.0596203547866395
0.0559547410517902
0.0634490955788142
0.0509222282868108
0.0577118297281271
0.0459238695899991
0.0609332838634668
0.0553548089793475
0.0587803461875168
0.0554432084674795
0.0631317603550599
0.0456175657322345
0.0637936115223803
0.0396161649187316
0.0595650698678767
0.0438886901805697
0.0594665777930934
0.0512604347421741
0.0626218196957057
0.0493465487295109
0.0624621984274282
0.0486198062833822
0.068014328739407
0.0453095020340219
0.0555199000898201
0.0530901677948699
0.0695753622269966
0.042394348574712
0.0667756071763535
0.0348966781697869
0.0686256767692169
0.0585594754283639
0.0572006585219009
0.0375408976218798
0.0717201827628403
0.0491666500003998
0.056396685799427
0.044951280497922
0.0560878338715424
0.0465697871986465
0.065588742738795
0.0445042045592179
0.0562032150210736
0.0476014398234834
0.0555965618360033
0.0465960960921423
0.0537586218625422
0.0416485044837675
0.0821858056577318
0.0415264596201644
0.075340677795541
0.046866550999623
0.05171107944882
0.0617147138730554
0.0651440855175433
0.052939038910331
0.0618718417761097
0.0531160232875666
0.060544007715542
0.0446070888940163
0.0549763212852741
0.0477937677558829
0.0754384329673629
0.0540841807643398
0.0570684985912616
0.0441167722740593
0.0566782824640953
0.0479993294003278
0.0817700763156916
0.0383347447415893
0.0647419342331543
0.0432599059621243
0.0601311011489312
0.0587132259568284
0.0709779811685405
0.044702498281684
0.0609865730432273
0.0453061548729612
0.0570038194996391
0.0437300665957892
0.0878995311258473
0.0501135351676855
0.0574070490540477
0.0345050918962948
0.0575013984797937
0.0668346413007272
0.0690347970342881
0.0456533372799603
0.0521625094044861
0.0313481795913404
0.0825058685341885
0.0438717121403482
0.0522783684512612
0.0507477093274037
0.0718826475886103
0.0455724727422238
0.0572041182594882
0.0432618343281399
0.0656579390594632
0.0448541692685947
0.039919823470712
0.0381989631285574
0.0876637993745982
0.0150767169181421
0.0899508846034149
0.0429709374105654
0.075729495343412
0.0444504556070548
0.0656641388673629
0.0417830879116826
0.0613807990665706
0.046499213326313
0.075304764416093
0.0622977192379754
0.0595226063594979
0.0369926346114543
0.0753383578746973
0.0443333771504942
0.0491321069339835
0.0676958970198948
0.0676761177290894
0.0367520432158577
0.0796736885752247
0.0591385761787584
0.0507941871446937
0.0444113772284769
0.0794161887098409
0.0483363190382317
0.0682239385306787
0.047903825048114
0.0623798323604792
0.0555614992952608
0.0701013029081802
0.0489042610025091
0.064113077947043
0.0398182330114982
0.0635248044082783
0.0610551620704516
0.0787599671970378
0.0498425640696482
0.0654690261449885
0.0384949134731558
0.0918362632709112
0.0632921340171131
0.0655821366652577
0.045679246285827
0.0580580063792395
0.0466259064158488
0.0611701231638249
0.0468947271434728
0.0528468613944942
0.023314926254873
0.0805982830792799
0.0625624098645867
0.0684217104967209
0.0429264567347244
0.0674419188471034
0.0281337144536335
0.0908304936298193
0.0542322161169442
0.0612417076507429
0.0514119612657107
0.0521630794219474
0.0533944268576016
0.075323534933538
0.0489722125371139
0.0586121215244452
0.0500055052254223
0.0673332630904353
0.0465001332822039
0.0640725471779722
0.0475506080763539
0.0628884267063832
0.0474834923784669
0.0605116316144399
0.0406130175904489
0.0689921323596006
0.0569620584734636
0.0598228369712625
0.0571595185614681
0.0561718533101842
0.0557123166539137
0.0720300695005027
0.0490719673967449
0.0607591341194534
0.0441611229109277
0.0676926794796639
0.0439998080165947
0.0641655284726857
0.0523509262742523
0.0610981331644013
0.0329815643869484
0.0960808731887088
0.0484764698811846
0.0655995583069941
0.0363327197464428
0.0679685068252626
0.055059815682566
0.0673050547034513
0.0495976829461614
0.0635809325684278
0.0430809447344071
0.0503315202357994
0.053280966348615
0.0653513259061007
0.0425867759733907
0.0720442577508618
0.0515592535265383
0.0594454769912226
0.0390065091786369
0.029511151359804
0.0812208627651063
0.0562049006505899
0.036827351833346
0.110107402934849
0.0552932812607593
0.0705141480871729
0.0370542030098318
0.0364138329983237
0.0718056721208884
0.0890486363725066
0.0545625571521394
0.0651124032058947
0.0610923841574861
0.0633291413452956
0.0522158559543906
0.0542091994262896
0.0443825643443831
0.0727792438210665
0.0709218934110868
0.0933651841269412
0.023493995709673
0.0783578432308423
0.058932111002579
0.0730667555383004
0.0530649064568872
0.0688801621688164
0.0505718834313576
0.077871026956496
0.0592004335482333
0.0623381532483081
0.0521161880270303
0.0689665494043308
0.0689939804048405
0.0714748052630301
0.0523587963884729
0.0724191719873362
0.0632953865052717
0.0666621294269241
0.0594096903024812
0.0637941730256896
0.0651085321323776
0.0710573078082266
0.0452534948744423
0.0979306546343069
0.0663230218210387
0.0668537184629011
0.0717995309009454
0.0775964292038193
0.0643419485751456
0.0725232493630656
0.0610274420311876
0.0794716900805699
0.0632976447355986
0.0669368254398388
0.079691822409011
0.0845472052556214
0.0674518079921398
0.0814501605020503
0.0763607164312057
0.0815628718246536
0.0760089274038125
0.0873969869911773
0.0750363081154808
0.0915042913243613
0.0711148502782941
0.100621853125371
0.0924917091016849
0.0767595795469643
0.0851563714784628
0.114815634959486
0.0882585274115181
0.0991005409688117
0.0881828473668752
0.109499000795872
0.0964949425346908
0.109967291458353
0.0954182022291243
0.0995991642435665
0.115279182157889
0.12521665589745
0.0949726600380638
0.12130853473257
0.114867173541047
0.171123454202592
0.113165029841549
0.134824103439676
0.0991787304229812
0.161344922631818
0.141553807498785
0.143949807233537
0.150229436072159
0.150276893173642
0.148691665382244
0.148545110713417
0.157164294736139
0.161191401930126
0.159872388777062
0.164580539287711
0.157816712328699
0.17230985478926
0.168600701998523
0.175319048374471
0.167495190371786
0.20426115200861
0.187896170320643
0.192100954246974
0.196303629228509
0.196808855988608
0.210245987661055
0.212154858141823
0.209366011495524
0.236400031693042
0.216901472127744
0.24915601349851
0.212513483807068
0.246078950414224
0.22883530420009
0.250043286883715
0.234782303846168
0.26448124824498
0.242148588050715
0.261772866770001
0.245385265267637
0.274870421653519
0.25474594023102
0.282023371630882
0.260100123674907
0.304691351683146
0.272780769095481
0.306948803992342
0.277903533729523
0.32135960823091
0.295477201882163
0.353589879765751
0.295882741393743
0.318254837571023
0.302003151822725
0.338403831562883
0.325360625851156
0.331723946322578
0.325530549750107
0.362611328539006
0.34741893683417
0.375973298028438
0.353985475584901
0.359587439322689
0.334373389284522
0.372183110652321
0.370414899470779
0.385556118233611
0.384371703765272
0.392739519395063
0.366174467617614
0.412641523549962
0.392390063991115
0.421317240968118
0.399843286148125
0.432409939054216
0.395425069789746
0.42598361787347
0.415341799691837
0.433824940018722
0.430954888304107
0.441243280773553
0.427174956023961
0.448631792548203
0.444660569110668
0.467107616261165
0.445656576729713
0.485869887880606
0.436677235535025
0.485373369390604
0.463478736085649
0.50708536227188
0.459897848174664
0.536933547217437
0.477380164201999
0.5441021546336
0.523407010705979
0.538803234031838
0.499088646837686
0.536916024177965
0.516888659752652
0.549700087389714
0.524895034912362
0.550830251292058
0.550020220686715
0.557190658130852
0.527345452041987
0.569659895153139
0.550569051655985
0.591651142050448
0.592657089589609
0.595808397159423
0.571896550666321
0.595972134819473
0.560375540728693
0.655700005682327
0.595808023582182
0.636307515821835
0.574937364747745
0.636205732805292
0.60004453999377
0.637350487829821
0.604361785317435
0.644574559153816
0.62175266861788
0.674298968831516
0.626215400251766
0.65932279677101
0.661614442190821
0.706767283411423
0.658669570540866
0.739567965697863
0.666375660149039
0.756870472897995
0.688313712013353
0.743726480416443
0.699006830926337
0.777389560593611
0.713783703273669
0.721304827968329
0.701620191751955
0.780164608894047
0.696041282408861
0.75083969215507
0.738040872620532
0.78374151279136
0.711596952301098
0.764745485970004
0.747404147874079
0.788953456906369
0.742233817468556
0.797256869476895
0.760730694695815
0.843366952551517
0.760915267984425
0.864525574126244
0.758059933808584
0.861518603893726
0.812977130471199
0.878836296589526
0.789582733063164
0.859327788948327
0.792426842872994
0.905519456309215
0.834414395909196
0.892308755585352
0.835461964373438
0.889782147401718
0.863205367076979
0.885504432847942
0.848903514365545
0.906594127462377
0.852053485541867
0.907815080957036
0.873157323867038
0.96639034927779
0.921265784297289
0.937461988448123
0.900851650509395
1.0995371993087
0.88628318995533
0.975311885038431
0.901332073691956
1.0295714468458
0.916242462415859
1.03239025498546
0.961729573659431
1.04533683160745
0.913526060739198
1.06973755598331
0.896616630446486
0.992512604269021
0.965771478720085
1.07362338963286
0.920809465103041
1.06477486755299
0.990231503840481
1.0389160681601
1.00643986060871
1.08690764061932
0.987657480642722
1.15397707208409
0.997703138285071
1.1117860530941
1.01894996656472
1.07974226349659
0.989102227217077
1.12705291013693
1.04284446308411
1.19470206968603
1.13016596664459
1.06289243004663
1.07445729541641
1.13693043468815
1.03547542321529
1.19063470919365
1.10739557617871
1.14667434129684
1.11853359187546
1.13066885153388
1.05588095897794
1.21347130211057
1.04638803040258
1.20682424764191
1.10753017818227
1.3155391926696
1.06601877392383
1.2237774769852
1.1439608229285
1.18561293617268
1.08409969919794
1.31696758780597
1.06466922859805
1.31641260367589
1.09489744779615
1.34378482938161
1.1832689083489
1.32889534562096
1.17133010629135
1.35362841711329
1.11941867370494
1.26074093471358
1.16587882193103
1.35682007050203
1.18114564618188
1.23548206258673
1.12580237404073
1.47591163397323
1.16675379412294
1.43631167292809
1.29038567988414
1.29968397138473
1.14455552071971
1.43311285369663
1.21928113874154
1.25858211853949
1.2373700286462
1.22922486572922
1.23910609397878
1.42193083719433
1.32974264057167
1.43654626896588
1.28077537318838
1.45824562485892
1.34460344424308
1.40857796387117
1.23084580480208
1.33347500076679
1.36082917966901
1.5205605758319
1.2042429617439
1.52432004405914
1.33552017810888
1.44537865826728
1.20173633768793
1.96248217540212
1.28898869914995
1.59042006055393
1.37204708641856
1.46939292232603
1.34778895239717
1.42281132213406
1.40059651995934
1.40678060451312
1.48869891633062
1.76116220411254
1.31110953125467
1.46383427307858
1.66638763908432
1.68514572325072
1.29091990381124
1.39436405196709
1.42692088350383
1.65598114599806
1.396170800709
1.68661208532174
1.40204148492026
1.4928830563845
1.34809636945798
1.56917285380327
1.42953771672751
1.55882749187292
1.34791832637315
1.60337318617821
1.43402878917217
1.77524957161764
1.60687777924464
1.58759159742656
1.39793509958307
1.57038591112733
1.44404922138778
1.6101067751154
1.41129757511943
2.09963628071797
1.39583408625636
1.64863739747741
1.51927069560704
1.53881496142315
1.44126272344654
1.82576767883439
1.44585645258088
1.78424975449895
1.45360729933121
1.66937464863316
1.53247545988282
1.68841214457726
1.42697781777029
1.56387889489167
1.37778617933283
1.47829912615234
1.45315056687841
1.47052459250207
1.38947832695093
1.91187847295182
1.61914855771334
1.50617143224668
1.47082336214881
1.81107482386326
1.44489436420106
1.62430053953602
1.42367196103313
1.74304305387105
1.74249319620458
1.8424120812207
1.50605544791134
1.72360817736251
1.68395391488694
1.8073659368898
1.65226583032691
1.47761348550548
1.45649162401009
1.83627463231701
1.48582264889674
1.62810458876885
1.49711089528219
1.68512038046989
1.63019377141445
1.82527725604944
1.6977029896325
1.61458818636977
1.57128079319007
1.52500189044924
1.49833010366785
1.68253057727624
1.66567909029026
2.16573726564426
1.69718219937484
1.68937490872644
1.75432121594516
1.72266003030969
1.5755797088357
1.72801202293816
1.58785606762867
1.96897233460206
1.49756638543599
1.69890234847188
1.49628536608003
1.64787130038391
1.56038897546731
1.58673800169856
1.48716242426179
1.7606940936678
1.48524315726514
1.61585461920931
1.37031866365041
1.86122843777524
1.61370738843858
1.89751193973175
1.52811137985327
1.7761259815827
1.77136137506551
1.85009116948346
1.59943373815389
1.55479192469297
1.51464660321556
1.97105326298979
1.49803000607601
1.81468634207548
1.49287204116543
1.67118741759525
1.51762004984385
1.59625470446928
1.70931053745418
1.60391872800018
1.45116913105585
1.65827448910774
1.77052721553175
1.7151022800898
1.71068726086166
1.60658642345421
1.58107542873791
1.60022374391851
1.55771047315667
1.71347583211556
1.54074167862451
1.5925146953911
1.50932624108359
1.68671391434446
1.57182573208533
1.66405750226427
1.51963360772011
1.8050155703439
1.54053401384779
1.6846377977411
1.57861622897665
1.54756763307703
1.5502037941336
1.72420305581519
1.56536922800426
1.65413901860488
1.49669593180402
1.73069940174521
1.73732330161346
1.60938097798501
1.48836075662477
1.61193267976592
1.52950259848115
1.70785184278912
1.59762179699228
1.79022799845515
1.47979404457923
1.65203606665287
1.53832404062279
1.83674305048958
1.82312103378161
1.77574512204257
1.72891466560601
1.82092356468261
1.62137109084424
1.52834600973351
1.5978451685023
1.6764577852596
1.50779229162221
1.61706948739718
1.53278014577987
1.63502050679951
1.47618256425621
1.63187629459999
1.56503244830616
1.70993616043107
1.5344120044812
1.68865205789511
1.5645006594234
1.60456667204985
1.5801171565774
1.84465656841244
1.49679119010646
1.75549226642844
1.67363733575651
1.55238463061483
1.69885224943898
1.57529215344504
1.51743448579772
1.61040926662099
1.56581714507375
1.62860954309851
1.6155072063087
1.62143952006288
1.58396845104743
1.68502029852886
1.56732127962367
1.6941954640034
1.63899824637638
1.58845328679032
1.51811089544138
1.72106146180708
1.52537193630154
1.61684925154784
1.56872633116996
1.70073406762991
1.51179381212588
1.66110212838439
1.56330567232306
1.58792148996008
1.54847324623667
1.51620269945685
1.49151339341662
1.58161591363049
1.5166498418895
1.50101408130691
1.43125513421663
1.62226452399537
1.39199857093594
1.60076476323773
1.43027925590884
1.49833275700368
1.44816546971654
1.56973564888005
1.49528987287589
1.49389908666311
1.47171714618252
1.57687275266864
1.40207981475025
1.44977960370951
1.42773981645354
1.6665220384023
1.52237429673998
1.53264714948767
1.35969204217583
1.49514375665234
1.45786667265433
1.47487972327453
1.39590762562251
1.47941309578631
1.37760511458175
1.47029417579256
1.34015778402612
1.44946341129837
1.36309288527365
1.50899999875738
1.32192674208733
1.45363419234261
1.32241672074608
1.3943129945005
1.36320983607281
1.42568384599835
1.30989701472258
1.41592670072739
1.35641526379991
1.36741947575384
1.32918709377985
1.35451252261433
1.31109676940145
1.42210794163986
1.35983909651156
1.40063651838682
1.34513554784306
1.30388433540042
1.30478015163524
1.26152586419175
1.23609763527702
1.26778100403946
1.29203352128223
1.29032615273485
1.29445851783872
1.29821760856923
1.14648285606735
1.24897693646772
1.21559057666395
1.23959821508637
1.18599575872738
1.23486230902702
1.2378630471253
1.25028734713863
1.20046441356333
1.29076626418147
1.15314682616929
1.20748643262618
1.16002913326994
1.20579924622185
1.1653840640024
1.1885490792375
1.15036710195834
1.1365033906523
1.15298875174636
1.15183870346964
1.12263393056825
1.19488178227708
1.12996946408639
1.15629672673433
1.06742469678332
1.12348637789728
1.08959711493892
1.15904415283557
1.10916022226136
1.16580084767693
1.05802819122682
1.11549615140368
1.04965720416156
1.09605017985909
1.07780244026603
1.06120564570413
1.0312228475089
1.03059748304709
1.0419237989692
1.04953471096252
1.00869279335238
1.03747624069876
1.05476806321193
1.013218395076
0.970589039169035
1.0472504215498
0.982922273670308
1.01625487513933
0.969294619132463
0.992391115137705
0.95247984703637
0.969433963493347
0.948682287942753
0.958214746329953
0.927467088148576
0.989376774260103
0.910027522592702
0.956120461051606
0.917914132138204
0.956233874073281
0.918201032585701
0.924400193129683
0.89081610658633
0.947166561206035
0.877915070340788
0.920108636180438
0.870857297027181
0.926325918694266
0.877041556279957
0.869097458991483
0.85400528754549
0.866408826353806
0.856831335221801
0.869789351359875
0.840302867476423
0.862297548543459
0.819505226198366
0.83970267167821
0.818275572817344
0.831181681101091
0.808361699997573
0.827812479953129
0.81183996434377
0.80946163079539
0.768418706853397
0.810962272522627
0.778003538771363
0.776447502437692
0.790220598394875
0.802672708957717
0.757905404660587
0.772544874398646
0.7552417946802
0.779547611441813
0.741039174838065
0.74898065282297
0.736427880608713
0.754748672068446
0.721269348366878
0.737914245144509
0.719079506155022
0.730724269789074
0.721477416622127
0.713524361791379
0.689924790365987
0.72347607985663
0.688069234188646
0.711985202954019
0.680157466990961
0.692214427819167
0.66957475839425
0.694483911675245
0.659793475786815
0.676678649274905
0.662763271716192
0.677117536263801
0.661656796872443
0.664319867472033
0.64680593376574
0.644996979419759
0.63541569237233
0.646902367363723
0.640988211190302
0.643438332134039
0.611283669978027
0.623496377359573
0.607425131545309
0.64216521986709
0.609582853040775
0.612731549938301
0.605019013402525
0.610621675364994
0.588623193319932
0.609060459004662
0.58313329153453
0.602569171828548
0.579217797435838
0.598833024847373
0.582471258221943
0.568691148093835
0.559872247537935
0.573453143729695
0.55856493465025
0.561936642915735
0.553564243714774
0.557188807982509
0.554733100898673
0.545323284540025
0.542157844781469
0.549999651102055
0.532123910359118
0.535782701517941
0.521867102268425
0.535210383941957
0.52668213118639
0.526791904625266
0.512607866845473
0.530045949250829
0.506289873188563
0.524643732431228
0.506684592961629
0.512548331435451
0.501180373518193
0.517064435888193
0.497022127509363
0.502116004196424
0.481664347125701
0.5016360493223
0.489563771878238
0.496297372922792
0.482411299058628
0.490092140610014
0.47870086506058
0.486192409441738
0.472052965135003
0.484231798596207
0.465939156584807
0.480542523242156
0.47782085181576
0.486106217813839
0.459798992564069
0.472989352984318
0.469031505029576
0.47666401703053
0.47030118405211
0.46768766000354
0.4608361989692
0.467844734207968
0.459695186488572
0.463621407217285
0.45277000819753
0.46799321224486
0.456958394727631
0.462981264571228
0.451783763646484
0.465790346457658
0.447735371256475
0.462442568640315
0.456844358485552
0.467428932944173
0.450977308114535
0.455840048199402
0.443247062699215
0.450849879247216
0.453017733085463
0.45435991007994
0.451868002564862
0.457531127082005
0.446956895565275
0.452538196115063
0.45340760810915
0.461124628132334
0.448066806238505
0.456727031756525
0.453018839529648
0.452154520912613
0.449868545171013
0.463303910284035
0.459081850132675
0.467158634020608
0.455378422268276
0.470853885207734
0.463912938962482
0.473399760917751
0.462157309244636
0.475074761920873
0.464196911176345
0.475590635186852
0.467979834560097
0.481309865209769
0.469900403099788
0.493161248582482
0.485182996988025
0.486893264957628
0.47607868798925
0.494494562196749
0.478780717196546
0.49123329296485
0.476952618341097
0.491290866624353
0.482340324688141
0.495671242108017
0.469074951418069
0.489519358789592
0.476672437615101
0.490572068677345
0.467973859207651
0.479541474474505
0.476271084454294
0.479261990597266
0.465383918451576
0.491111272533983
0.473906548990675
0.477238599578058
0.461557192652751
0.480433207991218
0.46913024766627
0.469538047394781
0.464165083775638
0.460687225933853
0.454206557516398
0.461340511029897
0.449808691694633
0.463924265358439
0.443351982044028
0.464284170134408
0.444961421564064
0.461559458470162
0.447351291547548
0.452704169943651
0.441081457169749
0.45343239879947
0.448755548298934
0.453044725546904
0.442344943504535
0.451254774127779
0.44640867888702
0.445691846895983
0.440050081667703
0.445602407058265
0.43286054152402
0.449049798686975
0.43063988433913
0.445190487998889
0.436295622119066
0.441894257376626
0.427574952506019
0.446480603905219
0.437789565007434
0.447219532970677
0.428572800179347
0.44471405205244
0.426647653361859
0.435611554495556
0.427301133140056
0.438839941312217
0.424250330603147
0.437230862456132
0.41881343160944
0.431507476136727
0.417373547838198
0.42465595064763
0.414994748664485
0.417511889430384
0.418886570220647
0.416142950590949
0.411475470781276
0.418431899544247
0.399967947903506
0.414108034792399
0.399157180656383
0.402618375081285
0.394226916632623
0.403523686630189
0.391677036436308
0.400127348251185
0.388334234084697
0.389639327585492
0.377018678593231
0.384163703416715
0.3732262606473
0.388705429589811
0.375039740829998
0.371194834018541
0.359927757298213
0.377691913079705
0.357923258073878
0.370033704390263
0.350406022050192
0.358416131230371
0.349840132466963
0.353194233627509
0.352100633661603
0.342292323153416
0.342680129640156
0.348464198881248
0.333827307348059
0.344598887915377
0.32806499165471
0.344920568840776
0.328295809513603
0.339670242159966
0.327262606051729
0.328046055881482
0.325517375693563
0.323775847474063
0.318906184617629
0.323910145726718
0.317223565478901
0.320353379272793
0.309453375882414
0.312264171714815
0.306261209676434
0.315839636856736
0.304493318800309
0.311523573493881
0.303379126801109
0.305179545909214
0.302408409826736
0.296067779431534
0.294935979771486
0.300360341767353
0.29579414670325
0.298163196620414
0.288232253774014
0.292247619156231
0.292564305491332
0.296916014786294
0.28499823294462
0.288649361922016
0.282335508490322
0.289755519429027
0.275291910843054
0.281764250224084
0.275093954255301
0.280879814635181
0.268976829491101
0.283792053064439
0.268561249676078
0.272166497805563
0.270887505794042
0.272562791451264
0.26448309940955
0.270877183561546
0.263885246415867
0.26735783390212
0.261469568033187
0.263654209582507
0.256547577930745
0.262523333733906
0.261252248045801
0.258839618486439
0.257438584016929
0.263783861520035
0.253616027201593
0.259081420276432
0.253208438328071
0.256095366190378
0.251127798478135
0.252441713367096
0.244531900095951
0.250973308051379
0.247811593953633
0.248026930366586
0.237946489223747
0.241345389678082
0.242964804344333
0.245738434763292
0.241511100096099
0.244634261648
0.237646738261328
0.23965108576016
0.239198887747809
0.240653370116256
0.228949845596993
0.238423099599526
0.235653816552385
0.237494104772041
0.227004830322228
0.23563485573171
0.22957232212342
0.239171988871679
0.234286961874425
0.234090288262088
0.227686425833104
0.231615078848041
0.226990903193256
0.235872092942101
0.225574089705218
0.229337514781105
0.224565260041706
0.22823583442043
0.219451270702579
0.229076034662668
0.22042313115466
0.221798736569503
0.221401768431284
0.224373673352958
0.21805654780102
0.221637482829106
0.216496031564638
0.221862785584558
0.21459634158079
0.219625326570684
0.217320120339274
0.218761408795008
0.213407358732854
0.215580021474292
0.210137078595649
0.219845230084497
0.208362891625329
0.213521976904243
0.204206484985627
0.21332733510575
0.210578419846203
0.211148213233189
0.207871853608604
0.213935622483901
0.205573456950819
0.206639443633631
0.207718193734623
0.20923191985654
0.205888926341389
0.211141422613814
0.19847356420871
0.203159756003313
0.202852348279212
0.205745922661799
0.203686197421622
0.207077546397897
0.199182111776975
0.205173518057493
0.201013583742107
0.20415657010131
0.197348339229173
0.200593889232787
0.19330864734377
0.199543015629222
0.200527746003069
0.199794685201242
0.193697777560241
0.194195956837925
0.193498248532097
0.193809602199067
0.193406746855762
0.199555606767687
0.193924274913801
0.196548661283805
0.190002592783626
0.192161582956828
0.187184123752701
0.193790638655
0.190620628062997
0.185258905989433
0.185938583685591
0.195444163312794
0.188119520722516
0.191417629532791
0.180458213589766
0.191401795710866
0.188107372290162
0.187421672267276
0.179760692080943
0.185082157719758
0.18195810150968
0.185205613783949
0.176120159252669
0.179065394808267
0.178794691924217
0.180940287392951
0.175732632408093
0.177703928543315
0.171669765867949
0.180040723566173
0.174782354139229
0.175362450138659
0.172352183475139
0.175590953561238
0.169157326697134
0.17224462105387
0.169553508897376
0.172411305204438
0.169444313732413
0.173431402715322
0.166368450257877
0.167767352680624
0.166026128439185
0.169916895679729
0.163104393464951
0.169390342975904
0.162719233352124
0.168721085979041
0.15841448127795
0.167340251186608
0.16403629389722
0.165318208301266
0.158369137210033
0.158203839385856
0.15671884834
0.161941112032635
0.157838387623766
0.164858690698282
0.152927898721608
0.159556493960707
0.155409316023069
0.156716322847422
0.151859167468089
0.156989437827566
0.1512938586703
0.152263118860623
0.148497202802882
0.148593990150253
0.146239179946035
0.154593664730723
0.149350520776244
0.1492924115507
0.148974293293648
0.148591243489954
0.143391700487605
0.148385203621476
0.141181933233052
0.149743477416998
0.144972411864835
0.143367099602818
0.142404750976063
0.14407866911704
0.138695288966528
0.140609566741307
0.141039953137344
0.139053994073782
0.137636567685802
0.137443082501398
0.136870020454883
0.137377743474281
0.132080875665748
0.136086406611049
0.132646765476087
0.135789891640004
0.13189912670867
0.140949054330606
0.133440355122509
0.133025046953486
0.133763978058727
0.135998989265532
0.129726942136088
0.133763913138764
0.126231939540177
0.132949870266579
0.130469725341501
0.131686939554535
0.12960039172416
0.133826477513968
0.128465199957008
0.132730738994024
0.127231370197503
0.132771060787494
0.128311048957793
0.129289617940885
0.127349080283917
0.129907940758537
0.126233664035078
0.131016320688771
0.124953520247465
0.128168585358273
0.123728871049422
0.127959894186952
0.125219562902648
0.129417736429047
0.124130512854581
0.125103340893659
0.123634955997039
0.125973819420504
0.12086375277504
0.127821345910338
0.125468898452371
0.124455470097828
0.121951716785179
0.12311636478621
0.119040459079706
0.127174966873198
0.120930107364188
0.124241295445722
0.120012829328117
0.121654720806661
0.118651559596225
0.122870683215339
0.123306306038601
0.123766625290023
0.120613431990224
0.12056546027803
0.122361848438096
0.12354668420598
0.119755831598501
0.121811520193491
0.116266063059677
0.123346686316175
0.11715389287771
0.119489313845497
0.117454241765647
0.118541252659096
0.116808866345643
0.118840609324862
0.116987617539704
0.116365485518766
0.115535371604882
0.120569856530082
0.114998697155339
0.121505070611116
0.118223433060233
0.117289147618727
0.114635040737161
0.120669793389872
0.117240387558155
0.117181576893268
0.1168795299581
0.119887308956915
0.116967233152416
0.119427415535044
0.114764265490643
0.118193845320012
0.114525701766855
0.119996330857205
0.116299815940913
0.115699528826156
0.115066955793165
0.11770043107568
0.112407679546545
0.117911339606624
0.11600402418506
0.113367448903193
0.115614422925664
0.116753478972452
0.114501235428285
0.115835719567058
0.11211184412673
0.117106856277179
0.111695070502027
0.111855936901569
0.110725068822208
0.115761959388629
0.10819167205137
0.113602182391398
0.112065022851718
0.113412641242639
0.112067449857152
0.110234959867693
0.107723678895485
0.111902406315456
0.110854716928121
0.112935575292372
0.110220672549852
0.111795163472078
0.109508719042305
0.110345134075293
0.10935550778532
0.115013247343705
0.107511331959118
0.111770684042773
0.11479147247141
0.109970267790279
0.108776961972313
0.111016600603062
0.111719084643174
0.11293134866509
0.108172953659604
0.110049039047001
0.1070249170702
0.112322581179676
0.107019329288187
0.110620316383691
0.106624645505016
0.108398416685961
0.105219415975857
0.109612327942941
0.109277918009324
0.112444738730671
0.108489310984743
0.110960555765172
0.107200821113034
0.105402623134397
0.107132154528352
0.11065455385472
0.10710582732977
0.109503559992399
0.106439180400528
0.108803334625916
0.105005011651987
0.109084235121612
0.107678987641088
0.105732350017796
0.109034411486867
0.108901887357131
0.105791550169403
0.106036962569292
0.104747008248799
0.107855436181217
0.103028237252997
0.105333370690023
0.104660279349325
0.106942762796644
0.103920699210914
0.102850165092318
0.106093915610116
0.105106849989082
0.104391900985745
0.104772343613933
0.104548301738012
0.105149754769559
0.101218278370006
0.102590248994554
0.100447201881913
0.105239067179228
0.101056407913799
0.103900247086777
0.101519949883092
0.101541683961982
0.101461830993633
0.104401526392125
0.101610061374221
0.102599975002069
0.102293309816636
0.10195377281744
0.1039426938334
0.102680989601122
0.0976945641097999
0.0993423715013134
0.098964645565374
0.0999192741950037
0.100008527822897
0.101793157884646
0.101201597832153
0.101407326813686
0.0990725813592162
0.103908366272451
0.0997303657161795
0.103182541371528
0.0980970097013237
0.100416676169048
0.0993656327097076
0.102666563762147
0.100058517155977
0.101827161831689
0.0995334671395529
0.100524100587356
0.10029284194963
0.0986834587589946
0.100168899184901
0.101184898099065
0.100251672004439
0.1003671624523
0.0971787725747628
0.098791178233644
0.100338476072283
0.100721749339932
0.0977453650288174
0.0996577624538893
0.0948499269761742
0.0968313317407186
0.0973790411817205
0.10271448681604
0.0980201618835232
0.0991871465877909
0.0997009147070095
0.0991575490377161
0.0974188985474354
0.0973396142575885
0.0966751366499833
0.097628922162699
0.0952811016508563
0.0973898069015152
0.0968516263743633
0.0982924834020573
0.0980987865825918
0.0973444117755354
0.0953767008025786
0.0989070070515717
0.0962238242765307
0.0971311955449447
0.0960354920584041
0.0972599909928687
0.0989146586275473
0.0978544534061298
0.096448877954071
0.0991734569060381
0.0951766764982957
0.0977321526188548
0.0978482335114401
0.0987935068177824
0.0966678904261355
0.0973788218672366
0.0996540789641224
0.0978511774934671
0.0982198236477929
0.0980483304621056
0.0977307911183703
0.0986979591225997
0.10204340690094
0.10036068210596
0.0996724573700992
0.0973689317968189
0.0958878961834003
0.0975537463765953
0.0926855895339201
0.0936767546431642
0.0950007434495165
0.0940131249597893
0.0944426131518767
0.0960568526554194
0.103412972310271
0.0991700820121548
0.0938617733093021
0.0940942791738084
0.097688668784378
0.0962758627157208
0.0925108948919299
0.098370337667884
0.0957189537013609
0.0918986778166168
0.0969847981234226
0.0935073921124782
0.101119041372724
0.0941121878480356
0.100650778291
0.0967727453619016
0.101018683065079
0.0993520774507237
0.100883473137144
0.0991485248460592
0.104445495449565
0.0977963775321755
0.10146048330304
0.0900857048350502
0.104918370702514
0.0920495587302728
0.106012965663436
0.0883241212824892
0.108440836231017
0.0847211594543458
0.108877475890745
0.0889685220939941
0.108000665611314
0.0877563009008037
0.112760564429656
0.0823625369587034
0.118121757815757
0.0849287504683293
0.12130207173969
0.0817474307458251
0.121040601440641
0.0717557709366087
0.122318778563915
0.079472253551105
0.129101300055578
0.0742090537281859
0.122738018388527
0.0800762752267883
0.13151945200941
0.0866070095519997
0.115511818147991
0.0913278480139842
0.11902072693892
0.0954227135019399
0.09932129657575
0.110115752488095
0.096485726494841
0.118367861052869
0.0876969188707696
0.124531931805387
0.0871226759237577
0.127301331289978
0.0867966107604251
0.120084011649999
0.0975070394065539
0.112376017994451
0.0972596171813929
0.10940974162556
0.10573082704539
0.107863873665551
0.102837472393961
0.105874981624774
0.10461579370095
0.109875805741452
0.101593199171626
0.110204041358439
0.101560306037089
0.112185460517604
0.103245715470265
0.109151840261162
0.104266378400033
0.109182228108007
0.105647719468465
0.111115659311857
0.102965008538666
0.109145203514229
0.106965626332521
0.111579853866861
0.103175252603396
0.109799314238392
0.108143755857249
0.113081026709378
0.105313642138591
0.110419300700454
0.104585107094549
0.113274408331759
0.108770069522272
0.114370247225439
0.10914866853407
0.112349858940612
0.1101329329515
0.112064221626235
0.108258567892417
0.114557098075289
0.108703442586125
0.115163690653731
0.108222702941856
0.11540208894156
0.110135484707138
0.115956129793488
0.107887553055786
0.117654764335966
0.113013185428016
0.116953974773011
0.11294212673082
0.115806429623779
0.112524533342365
0.116312333766508
0.111738159557009
0.117595471025863
0.110526096509163
0.119775323763062
0.114646837849681
0.116543048827752
0.115309443513706
0.120434703720883
0.112933479817446
0.117767717477576
0.113697968019964
0.118967258780736
0.116931782490557
0.11747374269878
0.115717207211986
0.122595192950404
0.118046472710867
0.119820182914931
0.11667460038121
0.121452997279096
0.115594770741847
0.119043154446747
0.11624760920142
0.12242465176421
0.118389701803484
0.120915068691479
0.115736930695447
0.119883336517738
0.11969902988006
0.121135268714377
0.12031468030954
0.124467661768136
0.118455895894949
0.127077295552511
0.120006426670926
0.12270410888269
0.119025454382235
0.126331378854799
0.123120636082459
0.124356899552906
0.123866884527729
0.127752210330581
0.124428573984378
0.125452704969456
0.123885669862922
0.127799484298483
0.123832939247973
0.129460438160127
0.123622800754041
0.127345487721896
0.124864280227862
0.130872049027611
0.126087133769406
0.127378054570264
0.126470990314827
0.129498024179867
0.126686597052659
0.130205595463589
0.125933971057758
0.132104660055209
0.129523541168556
0.131741558165158
0.125622859152774
0.131908061157914
0.131019893727947
0.132469477234352
0.129135897637229
0.132269271097644
0.129413701927249
0.133652040705308
0.131983528092975
0.133712251431929
0.13123745059961
0.133803013245543
0.129429009779394
0.134754363755284
0.131775799357754
0.133466557753043
0.13249605660545
0.137924345455812
0.13291584471566
0.136946024981256
0.133363168415068
0.13447128001314
0.134929558642274
0.133796122046118
0.132104199943996
0.136608444574339
0.134862565182669
0.138108268637643
0.133690852506702
0.138064841033252
0.135956798923929
0.137543431070672
0.13650955598981
0.140526497890626
0.135550550581473
0.138393010330104
0.136911377086451
0.140338787687372
0.135847469078144
0.138892997129574
0.137004464012071
0.139247024990198
0.137407271290325
0.140030268395456
0.138717660766182
0.140554431385418
0.137089658232695
0.144094369934
0.137921203063456
0.143231519472901
0.138568121179538
0.142850808196393
0.14159501221458
0.143051181562891
0.138437507595511
0.142211926158483
0.137689749665572
0.143579527035992
0.139237116141378
0.14206460244952
0.141313341957845
0.145742547575416
0.140579508886214
0.142161400861698
0.1389164470456
0.145214421604524
0.144314811942187
0.142879071852616
0.140260391135452
0.143740867741101
0.141823936048416
0.141021974210155
0.142136801788248
0.14353423533392
0.140408629995096
0.141937153153959
0.140122832720232
0.141579111888257
0.138729877689404
0.141406427691003
0.138631060303576
0.142865202662495
0.141526139540458
0.142919603223099
0.138815212200099
0.142603842302053
0.140082815120522
0.144066571751267
0.137635918664646
0.142588875756469
0.139170222747105
0.144106102954563
0.139343795003679
0.140527373978791
0.139465074651521
0.141283013284146
0.139986768586183
0.139883523098632
0.138035352894602
0.141129839102457
0.137533459374408
0.142247121447807
0.140077456627451
0.142773805596081
0.139411692444722
0.143037308636448
0.137292608450952
0.139667799599058
0.136760683776445
0.142518791534334
0.138792629918603
0.136972994104948
0.137981357706112
0.140439299971187
0.138843071213109
0.139269361336777
0.13670860497979
0.138511145948727
0.138877003956152
0.138636187099409
0.135161640264223
0.139926680640281
0.137261941157038
0.139678007042768
0.135093051055359
0.138486919653186
0.137831229802433
0.136170946876917
0.135425066570539
0.137016675123465
0.134799476945055
0.137335216930011
0.133154555329303
0.136212575547797
0.134259747561206
0.140680178056161
0.134486153913156
0.13494024997278
0.133029132454422
0.134331793311015
0.134313737292138
0.135754598169448
0.131815427594486
0.134550368002955
0.132889089519124
0.134720944286374
0.129871955380668
0.133076598532824
0.129568041183885
0.133102154011358
0.1286647771304
0.134619351124744
0.130044900662674
0.134191612651636
0.129632276898254
0.133051637965628
0.130326745381361
0.131411641920553
0.13012927243784
0.13348220289099
0.127250086773743
0.130055951113144
0.127615493232329
0.13063907032603
0.125507787286527
0.128888001193839
0.127934624567535
0.130646014085766
0.127403420643801
0.126066229669651
0.126540900326965
0.129733337651937
0.124203257144271
0.127989048825024
0.123677152489688
0.127836881374443
0.124392404793391
0.126927193127104
0.123565331269222
0.128496507561382
0.123686039682154
0.124348525177249
0.121519495932275
0.124523876523493
0.120510365508611
0.121659991827736
0.121887242396247
0.124827967080999
0.119148113125695
0.120538399772263
0.116304994650324
0.123616721977428
0.118155442705911
0.120756706505128
0.116686471193648
0.121696256268779
0.115221689166517
0.119823369312956
0.115277905101131
0.120517482985242
0.117719795248969
0.117052953193417
0.112725093228038
0.116964256996345
0.113688266349501
0.115288388380616
0.1089149056292
0.119130875281147
0.111537068379855
0.114478674423288
0.111135312070019
0.112855015863874
0.112075813994395
0.116502994204493
0.110873826256138
0.112948025922542
0.109721010197417
0.112725984831708
0.109610309805369
0.116139605617928
0.108112810535508
0.114350536027875
0.107339107983357
0.113253493784926
0.113016344716413
0.109817147713535
0.108776188699061
0.108020154652728
0.108376329047158
0.108116203416864
0.10816197368166
0.106810041425788
0.106913938106529
0.108155856192743
0.105688883224822
0.110600342339249
0.106323233959074
0.107713724156503
0.105300072306815
0.106523074131106
0.106338464813696
0.107952640199824
0.107022129086762
0.106598915941381
0.106213888946862
0.106132567287012
0.102494453308279
0.105875636252737
0.104355696489466
0.103743116590995
0.105018696202712
0.106190134265452
0.104030243578384
0.105228458066161
0.103026884921366
0.103521816303019
0.104360597046557
0.105173016575518
0.102604068488997
0.10132474763738
0.103593601490363
0.103307734757441
0.101579547687911
0.100136609373518
0.102303337481669
0.10200311550721
0.0995933740942039
0.0976775284739556
0.0989126269612293
0.102564543152532
0.100256401451111
0.0980783706599554
0.10115670981597
0.0997908728216333
0.102173899676152
0.0978323062586579
0.099711136018972
0.109778787661252
0.0970007499575472
0.104044455833664
0.0951747465469812
0.102816732169297
0.0963725637569176
0.100636842628209
0.0945571948094095
0.0990052211750804
0.0937907366392785
0.10114965669093
0.0972243914060143
0.0987562665759288
0.0968084917298814
0.0983831147960012
0.0950267682458026
0.100912172991672
0.0950068289942608
0.103979642226186
0.0928999043174882
0.0983194306642032
0.100605409992535
0.0982687653577574
0.0955595682972939
0.0995490828865764
0.0887622740148378
0.113415656799016
0.0930218610037346
0.103259191376641
0.0920013824853101
0.100089136666026
0.0925489974877705
0.10002066195499
0.090910311438627
0.097035248905214
0.0987024490133698
0.0993225200607708
0.0981370866426911
0.0964909705186312
0.0973605268407721
0.0958578701722145
0.0962048945250408
0.0975718368427994
0.0943502325379491
0.098432494370648
0.094636557996765
0.0955927210845307
0.0911051712080956
0.0997853776648194
0.0900780175206012
0.0999293457800362
0.0955144271063214
0.0957840930500712
0.0917886883857933
0.0984334411353759
0.0889780752983651
0.0977049476120428
0.103594289473643
0.0934133349404448
0.0972733967920976
0.0925044152987275
0.0962073830364738
0.0952858164552842
0.0957573846456575
0.093059373842882
0.0959798783487376
0.096669066247561
0.0974013898229889
0.0953957923665838
0.096534327782485
0.0944595734409768
0.0983050961242462
0.0958082155387557
0.0945370746321478
0.0971185375946121
0.0930915843018896
0.0988519986590367
0.0872767183284603
0.105589139089051
0.0969064683164258
0.104796863247624
0.0956240559890276
0.0966534617811839
0.0951461474212964
0.0982151579261499
0.0953103010718977
0.0956090936679866
0.0982711108160632
0.0963842750573848
0.0972794487585828
0.0970238455939749
0.0958391804427284
0.0970075037398906
0.0969547385115872
0.0965273131223338
0.0963577354801421
0.0943926534771925
0.0978708385862177
0.0949411974400551
0.10136889664859
0.0911376332285511
0.103264597299494
0.0933637962324336
0.105170565291047
0.0775630289862056
0.12079162195802
0.101022575110444
0.100845488879234
0.0994513405921661
0.091868847990346
0.0996543934666849
0.097478597015003
0.0973122919754155
0.100128702904597
0.0975802777367992
0.0970131077339703
0.0986090984952504
0.0985860183110238
0.103304444263509
0.0930141963861252
0.103503965909857
0.111758208815722
0.0996040464040112
0.106199218935432
0.0940402909653088
0.101284286573623
0.115752791271044
0.0973594004131772
0.106053977240517
0.096576066665758
0.103350374758465
0.099021537851675
0.104385832282001
0.0993035063158377
0.108103903844369
0.0993313688315018
0.106613236447334
0.103752363839754
0.1050642005341
0.106965977807878
0.103477088096381
0.106453204914342
0.109676788203916
0.101575695814523
0.108020840209693
0.10318424656877
0.106616009702589
0.103511469028707
0.110442901346593
0.103376872326576
0.110983612139129
0.10845781092282
0.103203034356217
0.112162860186294
0.114467026597551
0.105634804759373
0.1119565901367
0.102993938744321
0.122218310488447
0.0939081947173446
0.119448846006734
0.115431865477888
0.114615066988575
0.123425021843091
0.104845323242713
0.116922131688569
0.109634621975338
0.11757636252527
0.100855747437849
0.133255018161655
0.104164065080116
0.127615699143652
0.100906769268064
0.12603071860453
0.115287397356711
0.120185652737496
0.114273802516155
0.120798344823109
0.109043958000119
0.129383971431454
0.11321492425934
0.110872830253643
0.135270039552096
0.119150959212516
0.143369658286743
0.118029493232235
0.115815172406965
0.139629454542115
0.120664011388416
0.13490115009408
0.118572292343835
0.135085362753567
0.119233372540407
0.126316560362839
0.148760339680141
0.124869087648683
0.135135767021318
0.131853971179576
0.122778427358719
0.147593113826016
0.131368009587208
0.137812812189611
0.130617124275601
0.143876824116975
0.114270803961726
0.178393781929022
0.127726349629242
0.147618198516374
0.143158051577848
0.149124390679965
0.150374731054642
0.147242226115475
0.144133875435213
0.152687398811783
0.157113205622053
0.154812178933518
0.142425089373988
0.165109061501663
0.165555529181745
0.152862154832781
0.167072997690186
0.152660933268323
0.154527780804596
0.172594067664097
0.183610003332549
0.177889834301179
0.174781784960476
0.166696460958105
0.183163490302471
0.173437628665769
0.180965881684901
0.177173411295616
0.184561322868991
0.182566297851741
0.185032462200426
0.195427191554728
0.189011101212925
0.198109437326292
0.191321359735471
0.199339021402736
0.198857012691148
0.218798772490201
0.225912897556599
0.203865797941278
0.236450037249792
0.215640417092976
0.232959568094752
0.222176392665057
0.230733948586984
0.231909817430523
0.240729936285686
0.243717215211114
0.235773850156608
0.260485460361721
0.248423411916767
0.260624248381326
0.270487016868983
0.261597669132316
0.270493653968889
0.239758764620876
0.41622550060897
0.277366713866073
0.3221770131566
0.270242823153088
0.318551087374782
0.336240469519699
0.327017360473335
0.318950529411097
0.332326306721836
0.327883042542765
0.345146259341778
0.348456155465361
0.362120995345924
0.361132349398434
0.383081505060948
0.355004876078344
0.390800958612952
0.393273339340069
0.43691169559183
0.407768811324255
0.411307483684519
0.420813064223532
0.443765609894144
0.422984137268401
0.459566394884405
0.433684811572533
0.463995062079935
0.504100369414161
0.484108826998847
0.482692537159857
0.480050761936996
0.527364331998574
0.480168494378921
0.553686267784872
0.529052149319766
0.539887364285948
0.541990621261912
0.554473914336932
0.557084650045387
0.537561407105771
0.595689810018704
0.577417487782771
0.588248806838674
0.583683628512119
0.59699988027957
0.602540914265399
0.604678689888347
0.605574792294107
0.606451367100201
0.61878184513615
0.593009785445205
0.775723801073767
0.65916590180196
0.651907707330006
0.645625204877897
0.639950444018744
0.681404212326472
0.657777888169126
0.715152479766841
0.672610736930725
0.670567954442963
0.666215037894325
0.68613213797538
0.677623954962274
0.681469932675529
0.683165528231423
0.673439835521237
0.71501637635726
0.658698617157639
0.700586902478498
0.761539689355184
0.685164035045848
0.679237140813231
0.658251356004415
0.676099388974923
0.676809278740838
0.663129464955169
0.654035561044199
0.687926739853909
0.644334212878296
0.668275567415314
0.606979717701424
0.644653582436349
0.646965153194546
0.626450566163221
0.614896958496648
0.618280931098175
0.609092463032634
0.5706321981594
0.586111849732167
0.624453093892888
0.5690055364812
0.571627294126162
0.561752512652464
0.557895679635576
0.542316002059734
0.545815774282117
0.533466749227543
0.535572423516752
0.512917893431921
0.530104666216322
0.503274360667028
0.507415165709589
0.492820676819316
0.50127108342377
0.48149928837878
0.48460076713187
0.468088370938121
0.472181483460266
0.463724987300909
0.459660134187184
0.453951479843334
0.44878799448851
0.448416582042084
0.451257106381908
0.435791752128028
0.440732094247665
0.432176104377701
0.438281937772027
0.425220121389118
0.424983759999251
0.414222595677916
0.424656561505006
0.411231653772922
0.409938867217422
0.400741878844997
0.410706037370119
0.398211353974006
0.394724717766259
0.394810177007007
0.391312889677586
0.388926395962854
0.360376282347017
0.433599928882239
0.382890250449789
0.389192237467359
0.377900080106174
0.375472284607933
0.376090785025905
0.355380409043475
0.402733346260241
0.366860535084398
0.366087266509826
0.356995970157154
0.354004324624529
0.360422594392565
0.365699160482845
0.347094083543825
0.361150308036015
0.318945593190851
0.400118220547266
0.314358578602445
0.411127104505508
0.361867303129186
0.362107779980642
0.31730057293152
0.351105113983049
0.341716985401723
0.330750616552884
0.333309832827496
0.310299668515274
0.34607946963855
0.326063209554724
0.323941070280418
0.313734050810372
0.305425152029538
0.31981013687418
0.329863858410408
0.300572482517124
0.313551869139955
0.319908252680792
0.295161064128441
0.313995729048086
0.328378256164417
0.314707468605273
0.295380233366723
0.305504739364634
0.28054558827978
0.294574645143599
0.31875216847558
0.28882734554556
0.30203738986872
0.288079701763663
0.287556332191342
0.280167092119517
0.295532675800885
0.283025369958383
0.286683246161953
0.310643872632924
0.264082787132793
0.292794288635696
0.258881576973509
0.315253278173322
0.290921414658642
0.293402172921408
0.257253562659873
0.304694383448886
0.277492811755319
0.280597961920523
0.282275829937196
0.26303868320954
0.271718992006361
0.284629398817939
0.261014383594749
0.280817001891069
0.271855302186623
0.274549755336826
0.271277169006934
0.280558389113941
0.296101572513228
0.28122979692597
0.265361323700605
0.271182457078809
0.263005833038757
0.278263327472732
0.243102018994655
0.29853478174882
0.258176576981321
0.269598183636898
0.289111706445981
0.276047400533619
0.274650471476688
0.279050843335416
0.269901673760111
0.279311950174215
0.276132970204008
0.310892411009456
0.270954647215777
0.292935335196844
0.284959935662872
0.294114788728907
0.29142146212372
0.294871812246531
0.293215041827633
0.295780896398316
0.303516128699927
0.311433796066903
0.304064496017151
0.317308622567383
0.305431727361633
0.337537743486505
0.330331201078459
0.316643469145536
0.344587632283807
0.323262478578741
0.37793965629694
0.34252720977385
0.355237687397889
0.359139049290893
0.360777385267371
0.371600270387873
0.357366026996357
0.379254228116596
0.395987787741444
0.384317568694014
0.389480898596716
0.38469091546229
0.395209341161249
0.386096830870706
0.417980277373496
0.37431285217578
0.45198583021427
0.415314488706451
0.41460424864073
0.402091851561595
0.397636086380777
0.409659085194131
0.405405012737497
0.414693335808429
0.402776280799483
0.411661540747015
0.426846545671125
0.41181808183521
0.414303679481375
0.414514918811487
0.41814614036953
0.418207396319508
0.419986847957719
0.421927919599039
0.41768784293915
0.431066724904357
0.418728015310568
0.416226386174595
0.47883033978214
0.427360228235958
0.440866710255098
0.431412676617544
0.447331408059803
0.440743790651575
0.434105070166513
0.448715543953504
0.450503022639826
0.449655510255283
0.452453104717009
0.450045228261337
0.448595972377593
0.455211934241005
0.472045650592412
0.447077890783989
0.472010734055649
0.433596082850105
0.49139301789974
0.46805223732917
0.471048180789146
0.466224979543977
0.462499695446898
0.459900471103404
0.457322017767678
0.462188371653303
0.458603830208284
0.465145779788513
0.456843658058818
0.465629159954473
0.449096839581737
0.461251446658956
0.453470722237841
0.452445068404898
0.466474105082503
0.455185226144987
0.451591297337417
0.449909026020614
0.452233077685337
0.440659523064917
0.459135957142123
0.44998311295052
0.451378529147711
0.443940211238969
0.442997557973412
0.45656904725095
0.453651363479169
0.444874184259769
0.448354626403544
0.443814883931326
0.45213700636767
0.439301116038949
0.456973330708249
0.461990467384698
0.452271440676111
0.455060321744606
0.460306749268588
0.459114743809058
0.462873525670085
0.46481589383203
0.475039879764288
0.478207788068233
0.472407798597076
0.48558717203327
0.476910369894832
0.481847680296908
0.482214816952391
0.492007446277875
0.500195799450645
0.489187501797701
0.489868309603992
0.476391787577806
0.489643316560583
0.492709567940458
0.489135984122587
0.482181546447455
0.485031458023625
0.476947487624726
0.478810512618775
0.495118567696866
0.476112636694711
0.482811074388827
0.471606977489605
0.471112961518005
0.465095998308901
0.468201183996316
0.466293174735798
0.470426678461582
0.465583931480986
0.463627287375348
0.463336834576614
0.464358759550827
0.454377158981524
0.457263418942281
0.457266509735007
0.454204862987766
0.455336440547552
0.450077894694809
0.452155191138644
0.451537979576224
0.451039285519932
0.451214878391406
0.443960583818457
0.456862766148957
0.451060717851975
0.462200270385067
0.44048130427905
0.456626057813261
0.446796839194179
0.448996357264744
0.448012130535241
0.446273819750485
0.444364163064719
0.443801818646908
0.444102011565197
0.439222212748667
0.437946318806789
0.438434361253515
0.433738505881349
0.433574512678655
0.431480213692729
0.433615578313932
0.429742144792376
0.431047382241785
0.428333972938068
0.425981596056847
0.429102417280626
0.422449381532362
0.427721477426774
0.422500922052921
0.421123335115272
0.425779420621011
0.42343526875495
0.424384018316178
0.418323788549582
0.420628280200411
0.415520776341642
0.417656216694655
0.417851360285397
0.41718921548509
0.418875596977728
0.415337649235499
0.415228424547717
0.414521129993192
0.410701412767449
0.408142107565494
0.404488741623978
0.405818417691658
0.404257003012167
0.402269865900587
0.399079526538934
0.397390766207172
0.397344652703013
0.389605801271634
0.389947950473107
0.387335893880482
0.387093415385394
0.386844751912002
0.384404482141889
0.388061789362948
0.38551076669118
0.38263587823087
0.383305074574076
0.384795676035816
0.378988458988519
0.383227032382014
0.379987172270809
0.378060969618732
0.381326963661763
0.378126956011455
0.379826634439165
0.38239679817942
0.381117209478308
0.381489046503202
0.385411978888467
0.383356644374744
0.385109497459637
0.387373900965682
0.385179233773674
0.390310078554129
0.384415829348302
0.390304767677936
0.387797550102731
0.39174492219
0.391002804960408
0.394460603457976
0.391191021299735
0.395181400726165
0.393316251485522
0.394579772674153
0.394651252027214
0.390824186296049
0.391538826412118
0.395550476810636
0.392356017195106
0.398692511369818
0.391162326235723
0.391561591562131
0.389953127221926
0.391842343080637
0.392466259685378
0.387828835453431
0.386498359852561
0.386231691424999
0.386528261932591
0.385667873252503
0.385833595099926
0.384674590091469
0.382570639541171
0.384492833447879
0.38066752830324
0.379387053728017
0.377693660275457
0.379331916010008
0.379878402105473
0.375849908946608
0.378617977252375
0.376945239949234
0.371602253654389
0.37174567286664
0.371945469661735
0.372467445143998
0.370124140004417
0.370747390442619
0.365220046274175
0.364361231470022
0.363596942763265
0.361815067873464
0.362288639152338
0.361261810144409
0.359411581627944
0.35712919027976
0.357134832778022
0.355135378212261
0.354281780438529
0.349438229277335
0.349758707856324
0.350292235735551
0.345822226773832
0.345908476984587
0.34274086594112
0.34522559677377
0.344215127786523
0.342314339685976
0.341910219238723
0.341964422926709
0.340352586826342
0.344025800127171
0.343062975864281
0.342246458491269
0.342893486009322
0.344435044875561
0.341411895089922
0.335818304894171
0.33323998723734
0.336229009193513
0.332211445625368
0.329551162802989
0.327582093182547
0.325439326523096
0.321996811632552
0.317145665148906
0.317397020721146
0.312544064089244
0.309697691239664
0.30933196502083
0.306270017968641
0.305251603060682
0.303606272360214
0.305307936832349
0.304609892253278
0.305607544792305
0.311280158679832
0.312468935841007
0.316620552147205
0.316658462616799
0.32264108758117
0.328616189845916
0.33457370241896
0.342987041823368
0.35039512430033
0.361216268720504
0.371652205721891
0.381776234328158
0.391720329312164
0.403709899411132
0.414398038084394
0.428875850168303
0.446210928327948
0.455185588631537
0.475332980262684
0.488864750171534
0.506633460073254
0.521024546727653
0.543972192969982
0.559332609728881
0.573796980808458
0.58904110118774
0.610256858127419
0.628380796847099
0.639170427661027
0.647425797938722
0.660210598474114
0.672795315201336
0.682966048998576
0.682689125935046
0.688091111491183
0.689257367938733
0.691194739799939
0.689459078284163
0.681852109270498
0.679569679855569
0.677885145561634
0.669555907716623
0.667840270241089
0.663377011194303
0.65886730133461
0.641618841451482
0.639677694401726
0.640172681600304
0.638120912398495
0.63600249792018
0.632385819776205
0.62615667687905
0.625698469502951
0.630616526638506
0.630427266172672
0.640656129141563
0.637855269429882
0.645583999413777
0.647726663278677
0.653833285028385
0.661552138490018
0.669113981624506
0.686044511642862
0.693209703875534
0.697474115036715
0.711566423549723
0.71633678958032
0.724969452741984
0.724957419298753
0.732178817463082
0.740596552643148
0.74477920266679
0.739779750261233
0.74453072376242
0.741367012797384
0.748623403802432
0.745966226229606
0.751674949073997
0.741740934137771
0.73978683278283
0.742082121954954
0.751558393423943
0.743634012887186
0.747943906403024
0.758541673290921
0.762388064032718
0.766126813712652
0.769846775771
0.778825328848788
0.787229073797052
0.787285237688791
0.792855577069007
0.801516213708776
0.795939815679211
0.809667488805136
0.813126678776931
0.82738668611818
0.831085360829522
0.850736788414723
0.857646960041988
0.861805487025049
0.879035667043775
0.890094334043454
0.907847678235424
0.931916428041269
0.959867450095549
0.987825911642115
0.995720833575607
1.02822684289679
1.03951199568118
1.08064109820073
1.0977994947845
1.0990533586861
1.11405966353577
1.13292411391878
1.1105217399446
1.13352404950346
1.13857152640714
1.13230733590611
1.11798946457836
1.12745513585401
1.1242831027676
1.11488145324504
1.10192644917624
1.09146070527659
1.09341558724713
1.0834333730819
1.06796152292613
1.07200385706844
1.05743046358086
1.0647787467271
1.05558094759964
1.06442140210464
1.08554372837824
1.08987448250579
1.07346136140602
1.1078055877543
1.10264682453878
1.11431826341622
1.12322639373366
1.14467537932121
1.14605502596744
1.17087051226496
1.16445335003829
1.17806118532142
1.1853719572205
1.21072034499872
1.24568349676523
1.23878157929005
1.26369342928865
1.27627146451206
1.28836423855729
1.3140766704968
1.3455295368305
1.325731965375
1.32379084429398
1.36473899708828
1.3523770463314
1.35692800913392
1.37569809553336
1.37401961963951
1.36783038252347
1.41550816636575
1.37890717100277
1.41512989517791
1.42786878707603
1.4200834462573
1.42473567622345
1.43525188753099
1.4969999258457
1.44288394594096
1.48468378570641
1.42590607066349
1.47665650065366
1.47324152008216
1.45338450760411
1.50226260447747
1.43370812761925
1.43801152476006
1.38589904067986
1.39752164531017
1.37311760814525
1.35406732379968
1.29050621299034
1.25692425347694
1.23380206898459
1.2333099190894
1.19108280462126
1.18906738879154
1.1435117815841
1.12110506342478
1.0802627815431
1.0670318309384
1.03866071001884
1.05402873982917
1.04050121181278
1.03239087303963
1.01391062787658
1.00422757957526
0.989368102873839
0.987800029522375
0.973828070212036
0.974734991852443
0.967380560577289
0.938500414943933
0.924927790360062
0.907755757299433
0.879196070399155
0.860007425462768
0.854664726354189
0.818900333935707
0.792256650351375
0.777705428244621
0.734071264560073
0.718435195993937
0.697974912025466
0.675732425616913
0.653267283179007
0.635744760303244
0.615760838852606
0.597057913084545
0.5793423602561
0.561204934907717
0.542184349473794
0.528506442014199
0.513503093407833
0.509435660597871
0.498422661626045
0.484884823032835
0.479840920914311
0.477674858148631
0.473469860966892
0.467383825974798
0.459067534220984
0.456906769157544
0.450552321038389
0.454512357586322
0.440075699740463
0.443496838096385
0.43592307803862
0.442509529590107
0.440446512283165
0.440001914920671
0.435339355402495
0.439908870225271
0.440136693436257
0.434275735378033
0.442757896816461
0.436654813796607
0.443225457533357
0.447869862592898
0.448263688993089
0.456092909269706
0.456740476319679
0.459144412656276
0.457285788578856
0.457928920347653
0.466872580909603
0.467328338514872
0.467388319553588
0.467623953022618
0.475428503586286
0.470507476758219
0.47007986444443
0.479761948815755
0.481809450585848
0.484415479152029
0.47978865590804
0.478358437946484
0.47625524967125
0.486856929601309
0.488166866708533
0.50064013464366
0.486238862487658
0.498835962946853
0.505239349809194
0.497225223268052
0.5002099302539
0.505056095630597
0.508476963362149
0.50653817614146
0.498930262369463
0.514038838589485
0.503418381570649
0.510605744889415
0.508573469928693
0.508481961894507
0.518207227506643
0.514421015993577
0.51784012957072
0.510561345532016
0.50557365333064
0.515207659210755
0.513140838998246
0.520382775975438
0.516066942845618
0.528018745215229
0.514676741954244
0.517892831588829
0.523532259750225
0.531505763151058
0.539118868333147
0.549183951388671
0.554968114190349
0.548065099005028
0.558375608613064
0.564669673371619
0.568639424518514
0.580314654710136
0.582114827338181
0.585317154053854
0.572661849656501
0.594623507595584
0.582428064777861
0.586544633379112
0.574123967067678
0.581625313912237
0.574556800765089
0.590416327150189
0.579340359304065
0.575262436396864
0.575515377622749
0.588267747656062
0.580401687847757
0.592190643621097
0.571225533265107
0.595839866100893
0.586976361138252
0.598658853668095
0.602910426265209
0.594767863461484
0.609954637942882
0.61467307699605
0.600615952717082
0.60492315433965
0.617044713711543
0.611702169939246
0.599539285596307
0.614880992646441
0.623463057290181
0.623067800175284
0.608334899878272
0.634429855652993
0.622139024545487
0.641904936474886
0.615758474168824
0.640564189254292
0.637142937594523
0.644723511316762
0.653609930421653
0.651556066214716
0.643913551597981
0.662284056350637
0.649218601214416
0.667819734481686
0.669127635936269
0.688019253814422
0.670177584689058
0.672488899635629
0.680685845818606
0.679701551857732
0.668817255999085
0.673901707421068
0.664771767312996
0.697476119933939
0.687717614884517
0.682679005219439
0.663318135162624
0.692138218066617
0.674294520037443
0.71692387174985
0.690844589231805
0.716838267777163
0.722928492091398
0.717393456625417
0.713955582252109
0.704105647912725
0.727765872746667
0.720797447291252
0.718404935746975
0.717276399542608
0.692515289431108
0.717936642469921
0.710903038913501
0.763293025449292
0.719646974644938
0.763243613069832
0.745119674901268
0.724604422820882
0.728762147972946
0.769890368444288
0.753165169937923
0.745868451391917
0.776256897948409
0.764882306952421
0.73739031897182
0.778251435379553
0.785664175983927
0.792086284697558
0.767194843016478
0.829677022696568
0.79104055584932
0.79243025591975
0.783528299934265
0.792157180977148
0.817022618596327
0.876740236679428
0.812455694114747
0.866721661730296
0.808327285470446
0.891311362265158
0.795162610159537
0.852187556869459
0.828005066740773
0.878315409376993
0.864148550908671
0.851730738448352
0.866199029364136
0.897167480662834
0.893807756387332
0.944984988783644
0.909621226764149
0.957874677966336
0.912544739264166
0.930305311067722
0.903047516829965
0.957907878553549
0.903426915586061
1.02918100439727
0.950104268063027
1.00623760866337
0.92721365758389
1.01997103277387
0.939886189516911
1.01915447814212
0.949812380428182
1.00203565771445
0.941959286747549
1.00941642416127
0.998833057715633
0.982147867421605
1.00262288094352
1.00854362281915
0.927297489559501
1.04982788166104
0.944884099388383
1.00673998720318
0.995065699977052
1.0586597253756
1.0097783058489
1.09589690941434
1.02958812900679
1.13181520847824
1.01988910627583
1.0923342056578
1.01449797390769
1.13831574057124
0.973756353084713
1.02303318898555
1.08385958009978
1.21718475599942
0.991243642252352
1.17542519943623
1.02508199726861
1.07075454858099
1.09681253158275
0.970218552073176
0.935328182787465
1.1174616819266
1.00077320043575
1.19105666125487
1.01103675790257
1.10405516298081
0.985779554979308
1.22019226297567
0.992162472577774
1.12926981000001
1.03656403987595
1.11146137831219
1.01695683601454
1.09718828391745
0.949833400961096
1.22518108535148
1.36512630145328
1.45106724579211
1.12629837880519
1.25648954689817
1.03633823203645
1.17205309296958
1.04854606965644
1.08035379581277
1.19408131355415
1.41260208187219
1.34462190398747
1.23175899720298
1.10522025432275
1.17154175613832
1.06465237819312
1.2936469900181
1.06844293378261
1.22456555573683
1.10456121224853
1.17781104662738
1.25625593879013
1.5751941489236
1.15452922865938
1.38150078966476
1.10766823701951
1.18948928949121
1.04464807609311
1.47178905677341
1.4021274124253
2.17221571057233
0.88169994250089
1.65054931826205
1.08433831619415
1.35351675530834
1.14163416387248
1.64187233463416
1.07299295954139
1.80767763617521
1.33907555142682
1.1350324274412
1.04531337424856
1.34254029009198
1.15797395980807
5
1.37245035325438
1.28037674522652
1.01335402629597
1.83713190633279
1.15460437694076
5
1.17203994660417
1.55655916795936
0.971483026214891
1.07705832518292
1.30379603924067
5
1.01842871892797
1.36751007750655
1.40027753776602
5
0.809069677815122
5
0.970576627357438
1.31682123566605
1.08897715287734
5
0.977793195502004
1.44591345221747
0.969443058199393
1.39792594933086
5
5
1.11337373324432
0.798888644276803
1.3450992739704
1.87888750437143
5
5
1.01798453657462
5
1.47106781284926
1.00037676643585
0.873374439989029
5
0.853305278166705
5
1.44076532741814
1.59360449903327
0.71960637135959
1.14858590708878
