3596
4000.36533379555
650.420452594757
1
2
2
0.0940195805204665
0.0944173444495557
0.0871674321198136
0.0862199289196522
0.0980817538652796
0.102410554369724
0.0978935795300477
0.1050250307925
0.1002061348273
0.104194959093463
0.103902163424901
0.0873885447958243
0.100079004926005
0.0998761298455334
0.0931510833331967
0.0904836106115965
0.0930242594261518
0.0961718730204555
0.092610060101006
0.0942555583214628
0.0815008160768958
0.0911553755148754
0.090580408120446
0.0911981345525292
0.0961665308573036
0.0979794916964853
0.0966634402651027
0.0951727929804792
0.0990592962362327
0.0991486609811454
0.0911978261872505
0.0966101052414011
0.087129557294838
0.0946365445443246
0.0988141861909791
0.0920291138724162
0.0956065087956733
0.0919007881772826
0.0870420587307999
0.102678290255704
0.0994716641444344
0.0981329422789572
0.0956977531262256
0.0997902612410119
0.0966568347977401
0.0904357450761959
0.0996757060091819
0.095682081581296
0.0998617193271268
0.0957452216792594
0.0991067546122492
0.0927832858894518
0.113966130052052
0.100530672501532
0.0955657053475791
0.113006945433983
0.102588476214002
0.0888928007043242
0.0908881594769001
0.085938796080963
0.125395522246822
0.101224476017922
0.0859245928756713
0.0964857423860045
0.0938396444416674
0.09488506523742
0.0978999727099397
0.0927447404729578
0.0936834735932728
0.094685415176749
0.0899473764140609
0.119544262471546
0.10689571746694
0.0938393354862853
0.0961167695914433
0.0946845554924821
0.0944957671684561
0.0914662243658969
0.0871960362813809
0.122686186330383
0.11189404804358
0.103179163121777
0.100314545099032
0.0921521755109467
0.105930837176711
0.106868098977312
0.0842781937459659
0.105138126856506
0.115621638099933
0.0995046074416552
0.0918821900504259
0.091844476284159
0.0914435128677511
0.0902170035400821
0.0798246514064681
0.0995011710377537
0.0822981415207794
0.0933549133474534
0.0841891450713077
0.106734124179866
0.107914445183792
0.127261484432
0.117034319044489
0.102024303136744
0.166625959913482
0.108062882979716
0.108295101669934
0.143482026532568
0.10269150976249
0.094611732883422
0.0891123822406217
0.0905071818778184
0.0861913724116015
0.0991983093269996
0.0875450587633423
0.139095094580941
0.127984585453168
0.0976045863886985
0.0884765072951617
0.0937770663353044
0.0747903241472233
0.14615048228165
0.133972764725287
0.0964199661017404
0.115703917579597
0.104036424832158
0.0925243351177632
0.152764413422001
0.10996185569754
0.090495630654715
0.0858080747589106
0.0861427022100036
0.0864359057487249
0.103676153036254
0.14203047235608
0.0963743079957178
0.0945965993446371
0.0917711935275992
0.135705625619857
0.156359710391941
0.105373008353017
0.0951043486490241
0.0862777392403857
0.116050551412832
0.137213040887086
0.118480089543582
0.0937901488114283
0.116120778622213
0.0979594726529778
0.0851712502989118
0.0793063640622208
0.0971986045766422
0.111619147020645
0.111637885213759
0.0679234823976963
0.200308562160824
0.161237621209088
0.153447741698836
0.15461428165962
0.0888480616357622
0.100980156547079
0.0920717989120759
0.0882756504088032
0.0881108454688721
0.0961029906988682
0.0812896519048893
0.120475939255155
0.120344495408061
0.0845794084465895
0.0976026154745867
0.131446652948641
0.113321918825192
0.116023583395788
0.172211697617101
0.0946728907124371
0.102853471040974
0.137533602218026
0.101858065569997
0.078426564161233
0.114591977096451
0.125782074123569
0.0830427657773653
0.0889298347172248
0.0824811954454367
0.101417441211821
0.110421705905049
0.0987110401100167
0.0925197770126238
0.0951449352512633
0.0840180842083028
0.128550365003699
0.164393228771717
0.130410919799386
0.102029476508003
0.101090057849482
0.0847409420766888
0.169588772127632
0.115667207771273
0.0939680820869507
0.0890853571883206
0.0774518214367649
0.0853983267399872
0.0852281322680255
0.0815030493799959
0.0826215486024227
0.0790038139813858
0.148856444777221
0.10385297268022
0.0860215037698684
0.0843655424603269
0.100843822283654
0.0973831027985588
0.152332844143661
0.120777659487314
0.086480804395914
0.0919908866427983
0.0853720276601063
0.118421277228961
0.114820488713081
0.0892961499531284
0.0873946108267471
0.0886356482745138
0.0858329624523072
0.0834780968639521
0.0870299400143223
0.090863671593824
0.0831710021122491
0.0905810453223003
0.0950924020024868
0.091923003083175
0.0995239717273396
0.0911092084327181
0.0833499662719547
0.100327685669807
0.0861699518274688
0.105176139752311
0.114331865454475
0.0922997692894893
0.08768595404
0.0844272311539361
0.0920989438427677
0.0847455308679171
0.0883258490057922
0.0897807588196277
0.0941388912976838
0.0952466804917961
0.137756254789184
0.089674633950841
0.0969698137456757
0.0762851975979805
0.126392392949989
0.10461126242216
0.0903630291369106
0.0897024853614529
0.0912858067569189
0.0785068346696078
0.100604346371883
0.145114768407218
0.107757155237409
0.0905026465795879
0.124340741277208
0.100574598987663
0.0873671982137585
0.101208050011109
0.106896732055227
0.191444227852309
0.104382052210872
0.107645079249359
0.184387332085015
0.116957832205358
0.108098969117697
0.0989625715648776
0.0913881643356077
0.273788475967804
0.1415965374401
0.0985741365386877
0.114760896448291
0.124256867071207
0.0918236022023204
0.115341879629759
0.112864892402977
0.124887401711156
0.136595811345723
0.174015299124563
0.178274587573855
0.0781507791319386
0.150554028299244
0.130835077147448
0.101526639047868
0.097596509295662
0.103373306223178
0.10358473371661
0.132128495004588
0.126775591067613
0.126142348632595
0.106775405551576
0.114945214169498
0.144900776542982
0.109050138442563
0.100097872358377
0.111093953835196
0.121775930572043
0.0980943798599015
0.107827484564841
0.103878844762125
0.11790072426765
0.098082373390273
0.118175112208403
0.171129833716397
0.11706491729077
0.115574572170631
0.14688158486095
0.107858586092047
0.108369574021632
0.104602937678258
0.111487155041736
0.106127032114241
0.101224893674004
0.102106177808231
0.146752146265965
0.108421336132592
0.1025488900075
0.102526988733028
0.104785922474919
0.10696093170135
0.103749342655969
0.101803360211226
0.106072026614278
0.107077641992458
0.107213090595893
0.152949565137419
0.151287964003372
0.0906407763154842
0.175858279988183
0.152932533444856
0.112479968303626
0.115835978210737
0.115294517296886
0.115628972851837
0.114014735597956
0.119208727819802
0.114072362955095
0.131679089743022
0.148594596326245
0.140760702561132
0.127352400161857
0.145132538443219
0.221671582638584
0.19822303833576
0.134505550178941
0.133615927419139
0.12190873094636
0.186094279542648
0.167215319374296
0.169239618554447
0.166755579263619
0.129549492100341
0.145495521816177
0.125710471102619
0.146298388027697
0.134420278290263
0.14728639968657
0.135074074582942
0.153649486786922
0.142934626654406
0.156751386288609
0.138344752537526
0.174988303654922
0.199512845260115
0.165798200855929
0.147207965828991
0.166952499342974
0.148144614400715
0.208793717095174
0.199217513725559
0.25379042687167
0.208307887443793
0.216400901969632
0.234650937401321
0.171564683998261
0.169211686138593
0.175603716235224
0.177010271359288
0.184873669625267
0.180890963074609
0.179055716579714
0.179489092943105
0.191861523285195
0.193135730323954
0.184630323932588
0.195735458564146
0.188102132549333
0.230522916810528
0.189996198616928
0.210139156549135
0.200021674827093
0.251103805514474
0.283352155071271
0.251732814444273
0.216820430685269
0.218370939050975
0.216220425831407
0.222194094379511
0.228195448116958
0.218224585966595
0.240736231244328
0.246675480415578
0.287491334619065
0.260890424228557
0.277396364279534
0.250418724354208
0.236616920267632
0.270957395354477
0.273862944162932
0.262612970939264
0.291804468103917
0.264208308300281
0.254689956774782
0.286564392179322
0.287785320270759
0.270631146323792
0.308588475181804
0.261886748179272
0.282621618277641
0.273057728184399
0.28891363557757
0.280547126705991
0.308926637455398
0.287173278292543
0.294446943897793
0.310318629671103
0.30811130151562
0.294384676618994
0.343211503623984
0.305913309198904
0.30444554658722
0.329503080627795
0.304060520071998
0.320724995642071
0.318388669809442
0.348901597491842
0.348960930843841
0.350795642336717
0.381992367612074
0.316013840892774
0.350799753802605
0.352688237618183
0.349460167070296
0.33356688345596
0.365894323042733
0.366743446371636
0.370369502661171
0.356266269068807
0.368143437461026
0.357756207723242
0.386031898987195
0.377288659058515
0.386112834841095
0.37297837388264
0.387539278714251
0.385651347268118
0.4033800766103
0.445262960099495
0.47658987056626
0.453008022878411
0.473530895663488
0.409270272252299
0.422387802955574
0.397157382483088
0.431736075829431
0.415137158903224
0.444079226666335
0.429447019714497
0.435700033306704
0.436252823720599
0.467944348204328
0.435403767464187
0.464082895682316
0.461715766242159
0.483994206208323
0.443914154481396
0.466107138838881
0.470583251637802
0.487252484398671
0.473428134260046
0.503875928923117
0.489926181614717
0.517487464509862
0.501194593553577
0.526801730745131
0.483704927446152
0.519161621555194
0.52268823365158
0.530579882786504
0.51469057978734
0.525714565400979
0.529347337988615
0.560010443142087
0.562347441288752
0.528724441495972
0.536082114648224
0.542561866071592
0.540548209076755
0.545157007055597
0.555746097449333
0.612333839864254
0.551842339293126
0.580046686955965
0.56872483098049
0.600942515006355
0.560472870280147
0.654054513914572
0.581460225382478
0.615300811804326
0.581196100019681
0.62075153796112
0.604087364795839
0.613185130498783
0.595252192767896
0.634905241081739
0.625893483239453
0.642577326979443
0.621907238911549
0.64823669640626
0.629839219464883
0.662101809035614
0.686391786061615
0.67632359703881
0.63855790096345
0.69100856752091
0.660814757871404
0.67293983121624
0.661013647574598
0.736725679170392
0.674275201686525
0.673309960852769
0.681948532965536
0.678950870788852
0.680789570430654
0.738362528769069
0.71844131508582
0.701956397210895
0.686963255765634
0.712432706149636
0.728398680930609
0.727445340902342
0.734153038371887
0.722418169193632
0.715114555485583
0.760838673861671
0.731304786450838
0.800873924384351
0.710611529387677
0.764074121323711
0.773603967930107
0.782586300110858
0.703905351753058
0.764513625835806
0.754133824799472
0.80453879981773
0.790470592040877
0.785216644510269
0.762889760821676
0.797612045134087
0.798337910657259
0.835915258435319
0.793088445132543
0.810819819641577
0.832143488041014
0.817019559014046
0.835221051663699
0.833749176468122
0.856810310704098
0.860717936656621
0.825616209182413
0.873410097490688
0.846407688507547
0.883435579278309
0.823916372727812
0.919188330170742
0.815890812357109
0.899192116406956
0.908640249112288
0.893978563231161
0.864138554579585
0.923721640808688
0.909845286402034
0.944229929909467
0.878481406734232
0.929600296567054
0.911418942046571
0.956419393155906
0.945159348793379
0.949411231347347
0.87197009880213
0.892411156246971
0.908312434108704
0.968224316884219
0.901930302521451
0.942734331537857
0.975361984201101
1.0018366417366
0.918672228494246
1.00150035046529
0.96630134255614
0.924142162076821
0.999744140812584
1.07772824815795
0.96423018631208
0.995885656603995
0.976209630664929
1.01298811217338
0.941917823478839
1.03841695724636
0.948999691805478
1.0944125081976
0.986468447010502
0.971293876617976
1.00220516902611
0.981398447389306
0.977555851262572
0.998673556666132
0.996866594247599
1.02723021713166
1.00388954064889
1.04603383800151
1.02291347187702
1.06388224258607
1.03293777167376
1.02477584761342
1.02425616418627
1.12286740303994
1.04672321167512
1.03133397875452
1.07451036445288
1.094285923297
1.0527283675511
1.06935937092867
1.0623960697851
1.11255769276578
1.02882162449825
1.04507095940806
1.03620402796319
1.08711781937416
1.13097960474622
1.20822730816683
1.12175905979745
1.1277059548438
1.05020510081215
1.112419258562
1.05602741476598
1.11814993451292
1.09823414159549
1.18107679839295
1.12879449120699
1.21129794217299
1.07266646779883
1.10759202034693
1.14107867866474
1.13684314315289
1.15220784208944
1.15202402785451
1.15174724986347
1.20678143707585
1.11126654062901
1.15236474311312
1.08803966840908
1.20749883939923
1.13240232331432
1.1031737903305
1.1223276141531
1.20498980825749
1.11401772005249
1.18201554251312
1.11193045689955
1.08083152113805
1.10355079614639
1.24450753667076
1.15491096385972
1.18620776749714
1.17554047031543
1.24672463505361
1.14086570529782
1.1846455228473
1.18368065168212
1.24069029916452
1.20079671293174
1.24598770020514
1.21807060389645
1.33875773472827
1.1721656225605
1.28062172580363
1.1923496161281
1.17889605570389
1.10729964037882
1.17418502472145
1.20162916134215
1.22243587326868
1.18233436164254
1.2159509268407
1.20982462735043
1.20690702920124
1.16277012835921
1.18742373739112
1.16297274499411
1.22613977398047
1.20353699994219
1.27896948455259
1.20520893634482
1.18112577733887
1.21560434145886
1.2262192272475
1.16660648349512
1.31510872271123
1.21217926783786
1.27505316891439
1.17306702354612
1.17638028822813
1.31635772234394
1.24915977785696
1.18391618894094
1.19448679867
1.24167584741171
1.23996971264799
1.22535439404897
1.27901542837314
1.20937358929354
1.21137431789455
1.20312065010736
1.17521991766573
1.19176586333006
1.28506962222625
1.21700072941003
1.26761369877005
1.26061642351048
1.25381080810856
1.21751864397475
1.20615114081411
1.22512956382547
1.20184714300554
1.19337433948988
1.25255556524779
1.20470034545937
1.2172590823637
1.22045623685525
1.27448641126027
1.21534852011338
1.22010989987822
1.18248742777116
1.26858456683117
1.26344547473315
1.29480153070895
1.20464825792732
1.23804867612591
1.20392030110787
1.20550333434346
1.21551514723295
1.27064384204349
1.28432946870479
1.27858282925007
1.23183018027907
1.26779797894422
1.18504231500946
1.22644093449814
1.27682967474931
1.20143992082738
1.22382117568173
1.23021038912279
1.20293845009199
1.19064367480658
1.21344943515736
1.19704051576404
1.20609045453012
1.26275787640199
1.18918882025895
1.21274663938505
1.20159547064009
1.17216678836751
1.18003276038419
1.21790463481163
1.14381990150838
1.19835561763964
1.22194476496825
1.26214058484255
1.22776682969099
1.24882391154752
1.23256425390043
1.25275295271876
1.17757709450149
1.20394699408952
1.24261022209446
1.24013906195857
1.2205295494583
1.23639857389251
1.1914372689198
1.18689220751569
1.16716725158365
1.18225758659447
1.22265427120185
1.2518810113476
1.20395905249319
1.22007767337641
1.17690823228246
1.15458641327828
1.1726789267775
1.1720039925779
1.1930304597962
1.17327603128887
1.17376698092286
1.24453407330593
1.21462883378124
1.14701656199194
1.17179382280146
1.19480144568675
1.15443563820561
1.15421301835622
1.15871148140414
1.16188712100155
1.14474435643005
1.15621123751954
1.16037612364785
1.16886486509469
1.15736108838276
1.18829822745411
1.14190063857124
1.16043304652326
1.18566709366911
1.17425543504038
1.1566022673515
1.16015352605746
1.164847574437
1.17682789403649
1.16659675673823
1.17318588478896
1.142225026024
1.11350289467459
1.11667696931448
1.12351831474789
1.09790453011913
1.09366539474945
1.13140652626026
1.13595849390569
1.08716001066693
1.1117328969092
1.10806138606004
1.09960226239222
1.10545974092893
1.08355689182229
1.08739095622315
1.11737106870609
1.06650003303803
1.06941564006716
1.09691417284347
1.0735172072222
1.11404016154779
1.09336683770705
1.05157488883895
1.04359140192845
1.02485422018205
1.04335136891696
1.07361605229832
1.04397176241818
1.01807164496567
1.07461858828193
1.06745708245424
1.0397459856901
1.05253476717837
1.04489289293244
1.01349685939165
1.03852403008974
1.06896436284527
1.04140508254382
0.998178508286076
1.00885142618536
1.06854717297422
0.987753961518062
0.99952850034681
1.0108434572707
0.99479884949943
0.983599766033326
0.971365339030913
1.00385619088564
0.972282271913728
0.967235097448963
0.984540086275265
0.983376751212297
0.960280756703328
0.969119560298847
0.992078873437084
0.936942441513491
0.944175851587829
0.940878160304843
0.929729735438996
0.919779809797023
0.935373446913941
0.931340726202102
0.928597612301061
0.93282708116528
0.923500491930918
0.91905516364591
0.928300318800936
0.902961883890676
0.89363325992868
0.893827343013678
0.895752592367449
0.91253078507629
0.887609255025497
0.85923383625663
0.886772801551067
0.882700050918168
0.885897024740134
0.870210230428115
0.874975163622689
0.857413339117364
0.823581167393702
0.850088793611542
0.855302336853148
0.830323406287898
0.845261322083094
0.845873590146975
0.842503624808806
0.816864515127266
0.806085257564015
0.81779904744112
0.816931655146251
0.823293783185402
0.809326798336403
0.801299000377624
0.817248514666827
0.796328377996769
0.791308609916766
0.782107623095851
0.783128023995088
0.77939536204494
0.788983965915698
0.780606418761187
0.783187619237236
0.778333069628993
0.796648597711065
0.760150921771162
0.758172966032126
0.763835244625941
0.756859168896309
0.763015662477236
0.750615554041192
0.728489829835621
0.735970675038359
0.723012058412657
0.716225940627469
0.715860133740047
0.727268860546992
0.726669845307154
0.723413606547446
0.714690779244695
0.716001975076394
0.702385480461823
0.710442264393936
0.705459794154859
0.688706058782756
0.681424677444659
0.698574305484723
0.691480667187046
0.696566822506011
0.684848108283103
0.670421836727968
0.682841084591639
0.702868013108851
0.672754039155301
0.664014590546503
0.667297397725096
0.662232844801369
0.654018342205433
0.651503147936482
0.646908202846029
0.649990670013883
0.62693533714924
0.630502200208891
0.633770010308797
0.629051893423063
0.621555062113526
0.635934866714662
0.619875071385957
0.623314071696002
0.614952318878259
0.620073324313512
0.617753868765815
0.609552552773828
0.600425286295382
0.605859971939037
0.606722010327431
0.602806024036332
0.595453555182706
0.594133871915947
0.587368542055592
0.596696431755585
0.583041005087102
0.592050199566592
0.580087798858007
0.575083311013727
0.57321365047233
0.575690018315995
0.573123564058931
0.567143803381519
0.564503114735503
0.572327179683532
0.552108589380608
0.565067713895638
0.560064393715197
0.55702464570367
0.544456424903439
0.551200937643115
0.53862354416475
0.54383381604929
0.537141354475316
0.529853448644396
0.537110316574532
0.537678407598011
0.52309641409942
0.524404038505261
0.517553119562458
0.521180494103947
0.513895246592303
0.514000273380532
0.507432908428287
0.522661165533634
0.511635155091622
0.506187666669615
0.498902037843621
0.517488573549683
0.501637121998367
0.497256237922465
0.501555166274933
0.499153699189364
0.488251140243123
0.498339585601019
0.488549408046066
0.48910029810945
0.4862913508351
0.484153888117487
0.476676200400961
0.480258244170655
0.470910932955697
0.476499912475946
0.467998587604779
0.47266885600952
0.469560086311426
0.462091236667388
0.456792620477739
0.464119251430006
0.455797168513719
0.452708716552663
0.45064351209259
0.459896443433413
0.449891711027271
0.447958544923304
0.446210083462594
0.450338150168148
0.443349903590252
0.443122970860758
0.442348113303144
0.446469963252274
0.438558027474973
0.443472821959345
0.432204235383509
0.437435080951559
0.433296779138463
0.439289414172422
0.432392369885032
0.428487120056331
0.426679508204675
0.436005619819761
0.424019506205936
0.427710331644871
0.41548709869262
0.421187760798632
0.425574419599443
0.432065491664202
0.424233778311848
0.431243189709624
0.418157131313051
0.428521005478648
0.41739597765483
0.423229673811533
0.421504516729232
0.428824050067937
0.422315388092395
0.425311271604357
0.421917544345455
0.427673037575816
0.422155426944958
0.42870506154317
0.434973002222226
0.438094241329054
0.426064838311508
0.434417431962144
0.428135331656049
0.433606392363827
0.429258146910872
0.43135112169132
0.444461223230122
0.449208284998519
0.436392541051709
0.449739365083249
0.438208568299863
0.447855623283026
0.441726377686155
0.444780722568697
0.446010309164153
0.448679586851896
0.443488684345812
0.454797648717713
0.450260274048683
0.446099504079374
0.454967279336286
0.458538792572074
0.449089538326743
0.455048192447405
0.463765647229696
0.466695548245442
0.460149772761488
0.467609921656015
0.47325269172399
0.478725735464553
0.469453889820261
0.486458249172105
0.482845007632436
0.487672962999335
0.478903161356515
0.493633233142069
0.487683372829636
0.494045772010649
0.492504027482223
0.495959162146244
0.493808700957532
0.513532573669064
0.502445793138566
0.508356362400512
0.505232846721271
0.521226277407427
0.51766507288938
0.530484659510998
0.518813946695846
0.524944247981435
0.523745425424833
0.524464286987112
0.525833525860631
0.533997984463593
0.519291117047304
0.539393121279932
0.534364287790866
0.526935573827579
0.53873266398855
0.538709851200788
0.527315701976728
0.544219020582678
0.532812208987723
0.539928756594117
0.533977818941419
0.549032419199341
0.527466271466231
0.52752670699304
0.526287791795993
0.534706705016489
0.523462315709916
0.527388745673253
0.527954886519195
0.529946770746296
0.515299537392307
0.520049083585043
0.525320977689194
0.534092426179138
0.519692658426562
0.528621401059712
0.519357245739598
0.515880406055737
0.506822661166378
0.52111680502332
0.524672268942665
0.523852802655124
0.513744412930216
0.519022539481617
0.524299476678908
0.524278176344613
0.514128984221168
0.523999489878349
0.526502762343958
0.524977444001015
0.523733053596963
0.532227420200728
0.521874736394919
0.527767197830921
0.521948520043342
0.520485741952966
0.514462301400817
0.516132977902581
0.521181016812456
0.522568736694872
0.516752108028761
0.515973363937418
0.521343076742305
0.525655575702148
0.511882445374562
0.52161077153039
0.520106401281788
0.520389648545307
0.505217151879032
0.508559735168801
0.507253321917091
0.506457726140945
0.50404102788383
0.516200772778708
0.494060420489237
0.502796121815926
0.493983504758537
0.49608463264853
0.486967438598721
0.494243206652265
0.479438680023207
0.487874980818198
0.482797701297301
0.48105887124525
0.469141707013462
0.473237183962341
0.469988722809916
0.46421332598842
0.46325567140785
0.460951762846521
0.444579036508364
0.452175712806743
0.445578382873796
0.45251013166403
0.443191153694604
0.439007668981562
0.428972523047781
0.4433673725403
0.42891990762265
0.427452058812929
0.420830442860162
0.423753641331987
0.424619878014514
0.427664059210101
0.414648198877104
0.415813374288969
0.412327212141007
0.407916895021854
0.399266514187184
0.404684647904332
0.392557929902296
0.397253876500653
0.392607935392844
0.394548341567627
0.39013792142448
0.389228116428842
0.385568336918919
0.388921276815171
0.387183017270841
0.385962994937869
0.376227349287175
0.377914722453448
0.377261274602778
0.382496304669628
0.375668411956993
0.382704944784676
0.369741919281281
0.379765198793862
0.367386752295219
0.370092322449504
0.366899089492298
0.364638913767994
0.359184535186319
0.360759593733962
0.354776843023777
0.357224042128409
0.353768974955805
0.35816996886847
0.350306529628405
0.353142728390265
0.353538024224833
0.352576849433206
0.344677745508337
0.345203938589177
0.333213187106795
0.342710862972193
0.344394144189463
0.340391356247426
0.339323387148079
0.339445555378304
0.331376730983962
0.335848464619543
0.331012688357513
0.334001730417039
0.324346146913223
0.336056538929916
0.323482034239995
0.326926841881873
0.324090085239224
0.324124006263794
0.320542305253948
0.318462077602142
0.316455134982009
0.319772488681877
0.320466601128433
0.31826677520245
0.31297640512092
0.319010954671639
0.312649332940107
0.315757825949537
0.310049055672581
0.31374528463721
0.308799259197063
0.313438894033113
0.312663595427652
0.314850608918607
0.305795465577763
0.307168322833547
0.296434015083736
0.303228488920618
0.305631427218466
0.30771975434547
0.297577123984242
0.30168727844451
0.298317387176352
0.304700873671279
0.301772784284733
0.303879379200418
0.301221604469187
0.302759183977887
0.297892841533267
0.295248429471595
0.296799656546301
0.295563728174646
0.286406170735988
0.296930986260877
0.291030691351353
0.292124926008177
0.293416148191898
0.292623139570848
0.287511136184685
0.291602882119971
0.289671146289823
0.285471140202194
0.285113121218211
0.288703408979289
0.285357978971297
0.284893233689439
0.282921608625844
0.285626065122684
0.282214389992793
0.283855406933424
0.278335255067469
0.285069760951196
0.277309154345712
0.285888918948665
0.27557446527763
0.276579570518289
0.27599034091869
0.278273410855966
0.274659114568108
0.279109874535365
0.273462990939279
0.280506150637492
0.279424108139363
0.274243940457329
0.270669444912405
0.279160170065984
0.269787983359046
0.27509694459334
0.273781974048283
0.274828576627752
0.271122044534572
0.277086832471054
0.26993443537671
0.27671104625381
0.271102151011406
0.273563234014564
0.272484333271116
0.275347041693502
0.261132696094301
0.270309905338865
0.270822426932559
0.269921366630454
0.268202267447913
0.26808479450095
0.265239548019838
0.269185230500334
0.263405507734632
0.266577633977169
0.263124439319816
0.26559948575565
0.256479616000949
0.268142447044865
0.263741481163266
0.261982343273088
0.252741351608447
0.258547440422797
0.259204391763818
0.255899152178977
0.255307684337423
0.25974682223298
0.254761915669764
0.251347722352152
0.254005059464038
0.257168837628652
0.251340286187328
0.258878419698055
0.246485360491974
0.256186865314961
0.24648334109256
0.249005768322225
0.2434588385299
0.242189701184775
0.242616384191133
0.250702172534448
0.241768878904593
0.243525498919657
0.242355720661207
0.247810068349074
0.238658371263289
0.239647058084848
0.240494405896986
0.238849848079228
0.235104574561916
0.238457063749865
0.235330163330316
0.239728380340316
0.231469665893295
0.238133957959856
0.237384582424645
0.24064160758504
0.231256153255188
0.237838502201478
0.235386421062565
0.236683017812061
0.228605667987955
0.229983704586619
0.230382681759701
0.230093635176258
0.228353760684871
0.228562307371912
0.225930841374705
0.231118678321366
0.223173877502384
0.231988503977791
0.226223820092898
0.221922159841832
0.218181705037335
0.221331352743152
0.220817413595952
0.216625044776103
0.212302557135371
0.217334965612669
0.216860640442969
0.21816898588383
0.214212954000116
0.211772791848355
0.213626812174808
0.214340269044238
0.207961028716867
0.20939913691061
0.206687926924534
0.21247643006008
0.207325305071378
0.204388415939433
0.198424731024529
0.205004447747905
0.199705014078179
0.201059929259601
0.200853139945524
0.205960303173632
0.20152921270446
0.199371824688955
0.197641407818057
0.200625293672608
0.19172172974139
0.19647554470747
0.194804845968515
0.196625982731986
0.191612929256159
0.197011340655521
0.19065244624137
0.195389998488391
0.19079044785635
0.189826219598411
0.186583880050079
0.192710955544854
0.189482918804498
0.18826889925892
0.187694659780207
0.187659371604704
0.184266085759757
0.187532271753014
0.185949554102566
0.185471140954755
0.183474745545261
0.181941552483121
0.185465742856857
0.186113045147765
0.181337443907613
0.182327872975223
0.182471935790943
0.185590881671167
0.181120453114186
0.183942272449809
0.177544595719196
0.179505993846988
0.178083136567443
0.175128707605644
0.173602731307278
0.181003947428073
0.176931636315934
0.17991949564922
0.176344572414741
0.176712597227054
0.176327354168436
0.17249364041641
0.169694056675545
0.175261545229211
0.169763875534876
0.173983647703506
0.170742378230775
0.176828496122279
0.169802786875845
0.168359189082101
0.169013513223201
0.170160408542379
0.165583718721592
0.169308560998339
0.16570791152832
0.167861687927444
0.165903459565214
0.165687433458348
0.162853118701125
0.166046011042529
0.160801051115483
0.162517994554674
0.163616365708878
0.163099281188077
0.160349247708039
0.165585893321299
0.164411515973587
0.159593590186029
0.158916773235327
0.162525326349633
0.160090978014153
0.161800346704744
0.16291537970106
0.162531396127175
0.160589839001801
0.160705142097765
0.156206723984315
0.158636033264508
0.158124655831435
0.163914506145025
0.158479304073325
0.160563427103098
0.155072972752498
0.158474944588055
0.156698497069195
0.159400087322359
0.157237189715188
0.161027705040966
0.157431597370767
0.154863310369728
0.156908307475784
0.156284796740804
0.154390291653083
0.157842513429385
0.153429215016219
0.152777327052781
0.152536540705805
0.154104487238242
0.150601281748285
0.155922948933523
0.149018600045883
0.151909221536382
0.153638978355737
0.154328354270753
0.151858405092807
0.155101325048141
0.146144158135945
0.15048805057297
0.148180832844701
0.151130214136167
0.147531812863774
0.147250742441055
0.143714017987949
0.147658055225921
0.147956040890832
0.150006494975417
0.145284965264947
0.149153379520355
0.143221294250924
0.142925744323114
0.144806175680509
0.145317912451248
0.143312111439508
0.146379506969459
0.141599316167802
0.147273470144375
0.140554124621926
0.140670344786802
0.143442326522122
0.144283835354253
0.144002965064817
0.141986977592056
0.139457831001805
0.142373177192878
0.14387391450009
0.142309619645031
0.144287977632038
0.141356768163074
0.142744186890429
0.140170177263928
0.137821987419742
0.139070398180623
0.138971286363426
0.138845675156065
0.136295486263273
0.140715317468586
0.136581913707589
0.137313532204077
0.135037322806799
0.139300108266987
0.137735351981473
0.135950998701464
0.133254892247855
0.137922404400808
0.135718012133418
0.136987180492569
0.133975924305963
0.133100684796483
0.135503582373496
0.130873216713445
0.127900898187482
0.133843671988869
0.131177930623047
0.130880820148352
0.135602083645807
0.127213757194917
0.125912128969435
0.129616733832881
0.125591167312094
0.125062045706282
0.127883126159881
0.126763282496205
0.124121353723714
0.128111712326073
0.123508946235104
0.122679038387144
0.125035300213079
0.12422037937505
0.124506745020479
0.126840058539742
0.122248781236009
0.12261042633457
0.123941149693463
0.122232603494355
0.119597122393069
0.121686116801253
0.117161240783727
0.117403232396419
0.118716920385793
0.118020237367406
0.118233522048464
0.120366476278261
0.11676075082178
0.120646735604083
0.116551208345784
0.116257177443895
0.117443816487942
0.115934986043654
0.117619323636438
0.118051534232746
0.116438514062806
0.115410695193663
0.114700221239947
0.11443552287964
0.114445994849778
0.114826412061986
0.116951819899467
0.115192561383696
0.113858458392502
0.113507921967424
0.113349708132466
0.114889438186376
0.11098188014455
0.111423093363493
0.114676727930064
0.10925970180007
0.111787086664389
0.111164927763308
0.110033304488442
0.109876988787134
0.110296542883169
0.110192144653374
0.109798753413463
0.109322182551103
0.110133252449925
0.106193080475144
0.107241273264704
0.105810969349674
0.10424819548236
0.104004689337344
0.103127413812079
0.105520375421123
0.106467405237597
0.104173666431505
0.104782701824811
0.103783927253127
0.104953311378399
0.103363301005426
0.103386345456678
0.100982278421165
0.102603006028561
0.104773058601276
0.102391818239248
0.101567640564258
0.101920376402553
0.101292162182795
0.102156353395756
0.100412716748284
0.100024400079223
0.10096116638224
0.103605144475248
0.0978722042629043
0.102779485968371
0.102959463895847
0.102614050659988
0.0992706255894754
0.0987756720079149
0.0998655581995564
0.103391338501615
0.0999104530482668
0.0997258970579517
0.102216706202092
0.105738367999053
0.0999816967756492
0.104861319613161
0.101883369186915
0.105278382683397
0.103050757506598
0.104054752723212
0.104188062631511
0.108285579081608
0.103951869340539
0.108707113704726
0.105478378133308
0.103966832085088
0.0919032595642839
0.098705504729591
0.0910433376409728
0.0988364846073899
0.101595600052286
0.102638258157815
0.0869916277969096
0.0906846413851402
0.09729925637154
0.100120777432978
0.0887532011320372
0.100082840076091
0.0924290680732896
0.0959772650527899
0.0909888133485477
0.0930619395277262
0.0919826055347403
0.0957076926177734
0.0897461835585813
0.100467721802439
0.0899157985649183
0.104877529625849
0.0923298522395082
0.096394083819424
0.0870846576577812
0.108364942014744
0.0846490842713357
0.103048565322856
0.08981595265526
0.100061077638663
0.0833063598554745
0.107613254813751
0.0822235220996606
0.108626338761287
0.0787520466066152
0.113578384070179
0.0760058853687999
0.104648978732748
0.0699118633552953
0.102783986150463
0.0700148181401838
0.110453461458328
0.0750951392781106
0.118409400396303
0.0736923031652628
0.108707904550108
0.0676612196605156
0.117001424022735
0.0830886703326966
0.119813198310906
0.0706094403043369
0.113153365997336
0.0870102715048453
0.105328609399482
0.0891395194679153
0.0940256160873387
0.10929512441683
0.0825637050575879
0.108985513158944
0.0797096862281507
0.121452848630067
0.0714543453687693
0.127038308098021
0.0745468851695699
0.11948047219948
0.0819242661449925
0.108256988310148
0.08267216803912
0.101073854371907
0.0909177733054031
0.0936210449237998
0.0941014309084426
0.090703258474507
0.0921380239513305
0.0939151419459942
0.0896756464991491
0.0996250640662015
0.0880101351267743
0.0950698474934603
0.0842572027642592
0.095907951357176
0.0853910329793017
0.0924084918557929
0.0880599271825684
0.0925539720138138
0.0869006736919658
0.0936131842499859
0.086588149028175
0.0939019933779675
0.0876954257294729
0.0924417547274298
0.0854051344137395
0.0931450594758123
0.0870391725377483
0.0907410797900251
0.086976243096482
0.0942177949310535
0.0876548913829291
0.0932087879924114
0.0865623989504029
0.0928021439520327
0.0878905844917465
0.0912132821560913
0.0864392611639621
0.0929037962155548
0.0850853123640357
0.0917735457406447
0.0892349882980686
0.0896750993794717
0.086484625080207
0.093726760170212
0.0886764324098924
0.091483461070744
0.0883930968077441
0.0936549333647776
0.0919928336573392
0.0950668816736817
0.0895242894750963
0.0940758965975112
0.087879142325193
0.0915959046859439
0.0872666727781118
0.0941314234052592
0.0874373631054567
0.0927908516784174
0.0886452512114736
0.0943379029294953
0.0894666580834837
0.0951842304962016
0.0871396859805434
0.0937253928714986
0.0882036787093954
0.0915992081839634
0.0863807436003521
0.0924486804456164
0.0883167925964256
0.0906132510453674
0.0869212764196192
0.0933433989119491
0.0898933261234945
0.0913242754810965
0.0894154739334889
0.0933634416777371
0.0888698399860143
0.0905523198366374
0.0901846583427211
0.0918909259239624
0.0875374622429607
0.0927334175798181
0.088798801025008
0.0913337102117646
0.090511873060438
0.0923695778231366
0.0875728592736771
0.0962427876228818
0.0899371314650683
0.0914762673203429
0.0898887341031898
0.0949553428806958
0.0936558499365727
0.0924591517622721
0.087639118755511
0.0947877307012457
0.0929039776089246
0.0932398579256163
0.0936655778528131
0.0929091498503612
0.0919510713401796
0.0963617239514099
0.0918988978071161
0.0943938558072117
0.0925679283112427
0.0952979730737506
0.0920938107658715
0.095444007159702
0.0941867914341446
0.0949060852823967
0.0952254995239458
0.095896871335657
0.0919462216978155
0.0970925296854197
0.0936653191724796
0.094733554828874
0.0945329057871119
0.0953378587321277
0.0920277970546995
0.0967706122280029
0.0934226708761793
0.0967507018303476
0.0959920144573117
0.0977032130754699
0.09580326745162
0.0954510741230253
0.0930704643561715
0.0962127811622137
0.0960772862411367
0.0979272571287508
0.0944477849024749
0.0998663244050564
0.095405707988722
0.0951478178871127
0.0963080081134359
0.0932390631253724
0.0936451636974851
0.0999971876292215
0.0956216153725049
0.0953890009355816
0.0944363150110193
0.098373083856815
0.0974630229127178
0.0971410593227039
0.0958177624904204
0.0984020075028804
0.0938960450025518
0.0953569512678442
0.096229630173712
0.0986727210806058
0.0945975586588324
0.0988071499486747
0.0969074316844419
0.100486858911804
0.099028404857094
0.0996124825778001
0.0988180431751474
0.0984043772567195
0.0988557408707537
0.0996243547345673
0.0981223852060059
0.0997656184117871
0.0981697626437985
0.10121293110072
0.097237986312692
0.0994570025937859
0.0992235916848499
0.103511689588901
0.0971445668231986
0.0996231989141836
0.0976869398224516
0.101202758924614
0.0992156941516995
0.100483412662797
0.0998579416221134
0.101018831197236
0.0971904907820945
0.098521442349084
0.0979399748394145
0.0996374561697055
0.098077436910757
0.100733986368306
0.0985789801272236
0.0971199050428165
0.0988129762081488
0.100739433758157
0.0966112839793248
0.0968255838742223
0.0934336129579514
0.0981380969420984
0.0958812831466241
0.0949967197444063
0.0948235006463523
0.0991316999146251
0.0952179783378824
0.0964224265674493
0.09523395432443
0.0951599328165686
0.095513614131304
0.0954884376255099
0.0935805412068072
0.0972070212298165
0.0970954499719598
0.0938908760991289
0.0944696005364547
0.0975069809808838
0.0943103294498882
0.0956953457422057
0.0961068282332381
0.0956591399192324
0.0940640126896459
0.0957880323703804
0.0931391570232134
0.0932758807964764
0.0929442894335471
0.0945561701757016
0.0930694527158547
0.093150004749972
0.0932763747611508
0.0971394339451908
0.0954374734380164
0.0940082170079768
0.0932162614993756
0.0945422537358736
0.0930454958613805
0.0947349378417972
0.0925718723736703
0.0936500055014776
0.0933469532869914
0.0946070956628195
0.0917415887162255
0.0919908748446304
0.0910374263115908
0.0955257746843052
0.0943940561102118
0.0930839877991679
0.0917273959564198
0.0949193288327943
0.0938037226018204
0.0936673794723405
0.0906460424121822
0.09059079248484
0.0922785300489995
0.0929506256049761
0.090895049746548
0.0938385898274313
0.0934895313172799
0.0920953009740375
0.092727929185518
0.0919958814093604
0.0895104843208314
0.0914778622632124
0.0889470404994937
0.090149426475628
0.0886547100728548
0.0905615819102951
0.0892116789020186
0.0903847144418705
0.0923048689496311
0.0913154643032325
0.0922750906187436
0.0950820596648786
0.0915375000796322
0.0906990332220196
0.0895789592622112
0.089052066727244
0.0897312468192314
0.0875626518973128
0.0872594418968541
0.090782430628577
0.0885403349281655
0.0870016191475997
0.0877503424504512
0.0878420697806647
0.0883408766157169
0.0895788557471687
0.0880881080131517
0.0901453039452134
0.0886582537963675
0.0856116428937399
0.0878866869154785
0.0889238268286164
0.0865032524949393
0.0891974604389563
0.0884791917684084
0.0867555393906543
0.0873251718033023
0.0913327263093412
0.0861643423242113
0.0865126982303437
0.084692434733343
0.0868897302549654
0.0855676602735057
0.0832279357365946
0.0846648863800522
0.0854711019865942
0.0838724708995515
0.0838543216415698
0.0850649795712503
0.0857897448261608
0.0822803429122483
0.0836769482040364
0.0825883944504678
0.0809244120627817
0.0824767481535311
0.0836814414280365
0.0828035355259878
0.0846367246113442
0.081893292241666
0.0806740519075481
0.0801171888490777
0.0813785706614611
0.0817879579476453
0.0878791311454453
0.08291840747928
0.078512972204315
0.0799825156836303
0.0793297186432158
0.0777018359598066
0.0776149406758339
0.0763889155814404
0.0766343103674558
0.0787023779864414
0.0776611039303159
0.0740155233831646
0.0762701069714351
0.0749115920374683
0.0763665781737352
0.0766720018649599
0.0770613967051442
0.0763148892690112
0.0773939285066993
0.0754302481829016
0.0748582415566399
0.0756978706341613
0.0725748790285524
0.073663901020248
0.0776435130207953
0.0727109082085333
0.0853831489512803
0.0905323127571191
0.0749014969763673
0.07483286820508
0.0766073852992396
0.0747391537401468
0.0743348363114975
0.073829558369093
0.0730184879146133
0.074997965265203
0.0738152588133464
0.0742602399669745
0.0739557954082923
0.0738139806177064
0.0741747399442827
0.0724770093976705
0.072547114607762
0.0732442223355367
0.0725292279333809
0.0706557412473687
0.0710861731231969
0.0731781127518778
0.0728510136238765
0.0718689430770499
0.0731375013384033
0.0714220843379619
0.0754375824524453
0.0821369122263284
0.0781773668211925
0.0733257798660248
0.0706907462325883
0.0698693209811503
0.0692635430995251
0.0707430768660748
0.0700023814247093
0.0679652136704682
0.0703372319847714
0.0687719855229445
0.0670575067560128
0.0701594215659649
0.0695266151955228
0.0666330033435418
0.0696537594605103
0.0712541254729028
0.0687047830277901
0.0690832271459055
0.0679724990176465
0.0672483375251473
0.0695114971818335
0.0688459307507048
0.0711163524211366
0.0722824405565443
0.0659547194470329
0.0785857846806445
0.0888557910226604
0.0716495293966451
0.0668695037350903
0.0677177720700539
0.0673514680441853
0.0655600546364291
0.06541562592766
0.067521209009269
0.0650472665906199
0.0668065654385916
0.0688216344778593
0.067614587367917
0.066406216185726
0.0670465687551287
0.0689467348539351
0.0668147236842979
0.0656992672440327
0.0673571300452739
0.0677890256141611
0.0642842867065024
0.0734338510149007
0.0870482889777953
0.0735528181420218
0.0690407616600082
0.0673505434100283
0.070380623285567
0.0929069690529318
0.0783488615289458
0.0646369968648815
0.0694392938819029
0.0689681939392314
0.0675586457466135
0.0660696404881281
0.063023759342285
0.0697592347669214
0.0755268463697809
0.069690145845382
0.0678597362533193
0.0669539125337913
0.0654020873816089
0.0646537336413016
0.0665263362566455
0.0639088344393809
0.0651856842778158
0.0666200745327558
0.0650311296004649
0.0659871405355252
0.0655661912213826
0.0653782454501494
0.0643378082523862
0.0727452436012334
0.0737174312596664
0.0668560589401875
0.0668964494916982
0.0648725218863091
0.0615760515425794
0.0797396433377613
0.0797657081055235
0.0670151364504138
0.0648610319849067
0.0637838235226177
0.0683472110692817
0.0690823144271944
0.0650496953653072
0.0641807361029801
0.0652036902788237
0.0647093500890289
0.0672495641609474
0.0659241992469469
0.0648133270469009
0.0655398540818608
0.0656181457013339
0.0637823733353741
0.0663514508445878
0.0648296745663372
0.0654822995720395
0.0681422646747261
0.0706497948715604
0.0901042661600089
0.0933451084623527
0.0861200644975923
0.0791831649424048
0.0744014390063359
0.0677874242913981
0.0662822566149829
0.0665475826894824
0.0679978367275025
0.068861469755906
0.0682206902882412
0.0652056871370542
0.0681673588723772
0.0656438545982352
0.0667377252032106
0.0657596795084623
0.0671156905244248
0.0650651830699449
0.065743124351357
0.066037172342748
0.0675738033880007
0.0623423846238425
0.0679473915433215
0.0760295429459797
0.0754106316748892
0.0666930913020734
0.0709631096405022
0.107522173778048
0.0925552570635408
0.0776258805412647
0.0694935015426582
0.0683831460952191
0.0669083035113791
0.0660481166282283
0.069535153091633
0.0744810278288709
0.0701980282492527
0.0698416801257706
0.0664272292398038
0.0735573963869504
0.0694229646255534
0.0670427074579189
0.095186927517284
0.107651096789714
0.0814383293937526
0.0729870623006908
0.0643186071869633
0.092464473542026
0.10100129340855
0.0788184980912563
0.0716862442622764
0.0727005739601437
0.0691430343386605
0.0713328678873907
0.0677712942061329
0.0715424286505096
0.0798043188526259
0.0735338258037577
0.0744411599517801
0.0709905554587723
0.0700459858387457
0.0735612465652897
0.0733575088118295
0.0867195970081057
0.0819646444712332
0.0727901058658696
0.0811379880685312
0.0776616856789519
0.0719726914152038
0.0751626667442862
0.0721049879838533
0.0729413603372547
0.0912556762257807
0.0900802428677741
0.0858888780197843
0.0956804947443639
0.0871952017427417
0.0778669866446965
0.0805416861194488
0.0892353131815014
0.0854199381898179
0.0701918738922475
0.105248835400089
0.106040522264563
0.114747027288239
0.0917405345522064
0.0857701764855722
0.075465655852178
0.082818723446512
0.0698958785737584
0.0859389802300315
0.0996766461155301
0.0839570640330833
0.0793268437504442
0.0765585519137505
0.0957606113191168
0.0932742197124885
0.0901198093077455
0.0856611283879358
0.0808616220662136
0.0822111824113005
0.107759660684798
0.0822940998468808
0.0971907531589066
0.125613281908565
0.124857941961859
0.121013707775094
0.0876446045428746
0.0986387804514692
0.116494571670437
0.0960194204247653
0.0897590414322779
0.0852330725529981
0.089843127183246
0.0803392028649971
0.10892570721406
0.126350308418957
0.0948725640922661
0.0953411563046509
0.0928642253662232
0.0999656486342278
0.121297274983979
0.106026720545603
0.0899090960903342
0.0965594603774385
0.0933323517665528
0.105224245547412
0.158962372680376
0.11701962047532
0.130476096994497
0.123609417554602
0.132642209708639
0.112220373020535
0.11661003393919
0.105568178889055
0.13117924474732
0.127661428560874
0.113050993320041
0.0975039070536513
0.144607195644023
0.122789998086701
0.120816362316011
0.113524391504782
0.113584796204432
0.118258351528216
0.181209536449107
0.189047774484287
0.155613816595016
0.118774692593272
0.1412417583721
0.148241517418547
0.130746819066796
0.121954422358708
0.121973762915979
0.120650762015363
0.121462726282001
0.128937867056491
0.141185774836941
0.129268731532737
0.137558922985831
0.126845191570147
0.146077996179237
0.166780059354737
0.228436550925042
0.168351000404186
0.167872580531322
0.17780704612181
0.170530955349206
0.155285167706101
0.146897417207067
0.147900488949185
0.159913299073564
0.160346893692201
0.15259809355234
0.159963406379242
0.197509161507147
0.174283449050326
0.212511021723313
0.180694744833109
0.183676029319209
0.167155805025924
0.247318317427827
0.309768805661191
0.220737215564801
0.210879112997055
0.198733805114959
0.262774953090718
0.265963224267605
0.225125203131567
0.211352114865506
0.217609514557981
0.214022580938327
0.238079951784844
0.241175155203402
0.249557573197284
0.264920327927114
0.251599448401547
0.260434157139922
0.314456899115341
0.377275887969046
0.365086532890109
0.293390887460234
0.297767546401547
0.317523818262377
0.318678106995481
0.305765929394364
0.320664530997748
0.309891139373847
0.38291972592147
0.372208675332904
0.358961609215141
0.335929737662315
0.374332012008537
0.382218559722437
0.380890147259727
0.445294655573132
0.415224060519484
0.40899406892442
0.388761182035454
0.420353399212121
0.398014360917125
0.426201832881091
0.461093465093823
0.455479065904035
0.440122523965514
0.441192312611074
0.443989276118681
0.446503921636525
0.462021594845268
0.459793921236057
0.486107463128016
0.524911236340846
0.537316398311007
0.659710756751454
0.503851134675259
0.495132251013023
0.469188754039879
0.520751499067583
0.535227768795051
0.532420607770333
0.563705532375985
0.524434972230032
0.506664481013365
0.490113147742022
0.495637141009686
0.500812792544711
0.510677234950939
0.498985276914875
0.502583209396007
0.546036283622024
0.493660984889483
0.627141394626527
0.551068149960346
0.524140819752776
0.486057770720715
0.501513165564599
0.471558916727763
0.509381493346133
0.4797170887185
0.525808882222949
0.491294704242923
0.490233004699584
0.46534799075604
0.478157948322342
0.5123998424882
0.49628742568703
0.458932570907124
0.457415261780943
0.450372946259138
0.456641992064882
0.430028260911181
0.505560309574233
0.471155676943092
0.453129707507555
0.424338382313784
0.426216714113589
0.417005954230618
0.416047708994606
0.405457355024045
0.432221276420369
0.406391883993966
0.413759964260699
0.406898577898148
0.401889013077156
0.391086584529576
0.399872166295562
0.400301438116542
0.399020608817461
0.3972444775866
0.391560035198566
0.387923247240639
0.387813996333703
0.381428027656623
0.390709530459703
0.376793045109302
0.389278901681457
0.383751562746531
0.384484528447259
0.380338683637967
0.384235718810985
0.382020308739092
0.373763568482149
0.37551150449179
0.370444511461374
0.371505706992489
0.366584079674892
0.367027647196967
0.369724013475071
0.370340461462928
0.368702702656118
0.370084057008701
0.363810838474988
0.366904326326066
0.362336447695954
0.381156000608864
0.450138423041901
0.372597351174903
0.378731893918643
0.342042858170905
0.370089940830449
0.340014892242852
0.370110745402319
0.40513477124091
0.374917795219565
0.356918205763675
0.342249408647111
0.335039935112536
0.372691487512313
0.343289007984042
0.346019392948836
0.328639709433955
0.337591985508655
0.418052939390151
0.401992730320717
0.505210175953862
0.39794282219471
0.356660292096021
0.319212044838024
0.384760147840129
0.344482489586556
0.328234748244582
0.311838491123323
0.316237823521592
0.374988164683663
0.322952745168172
0.325407590830284
0.305401037232421
0.309434840074926
0.34723871289691
0.352699445190487
0.324005930955504
0.37143200212222
0.340388725660383
0.347919879928696
0.391244559293906
0.410251116545213
0.321865836678226
0.294435018656154
0.297989124167389
0.28095003121689
0.328103144237087
0.342591398959841
0.298689481514325
0.310017471602872
0.266883636848402
0.281452778840263
0.281705422691368
0.322957215153247
0.270579557380978
0.320931157818395
0.294007027032965
0.271618858487514
0.29341241280461
0.304132431398127
0.35450007520909
0.326461466460321
0.274763994470039
0.254676601584187
0.341125462595072
0.299875022955705
0.290932382552445
0.279901662233516
0.236300301047882
0.273342153780878
0.26624374126477
0.249705836612202
0.283648228653465
0.268222740255388
0.308982532988509
0.329541110321997
0.360231197040433
0.316932795909391
0.248829293929396
0.238516958610001
0.232176304074408
0.245934482395376
0.234299690167007
0.230577084609523
0.303559679135366
0.227962770839253
0.26510848165327
0.283406898449734
0.250044151920318
0.239802903057373
0.243818721549961
0.24118727668105
0.257717109584218
0.293428790766048
0.316871202239015
0.261329629170145
0.297471686505758
0.276499228926114
0.272746143494204
0.259475667272305
0.265463876397674
0.261057652476396
0.278547354128804
0.289562635454669
0.288015882769867
0.285159139537346
0.292236034501309
0.28786502996752
0.369092677844938
0.320318377572897
0.327731099239262
0.352988993660453
0.3650298223536
0.416109141711049
0.345396166116825
0.352941834203758
0.341587088172047
0.357993016867035
0.361144086109134
0.354153094282993
0.408141698366808
0.39833652279524
0.379490383019433
0.381949521948348
0.381640646740874
0.38354800482165
0.400510616335826
0.44700413320448
0.427121348362293
0.544497478721554
0.436807793675597
0.466941303169655
0.4119858839257
0.420958199065403
0.426969703614184
0.425945934111209
0.420376572034689
0.413298695955295
0.439292010311479
0.458438870448708
0.422884340828238
0.434049793916086
0.424436466377063
0.434685564971533
0.420742456593921
0.430803247986493
0.434312296187773
0.44117852722256
0.450299881943103
0.442327031961933
0.475160036960799
0.543416495675785
0.461984772430112
0.470453566346594
0.457448602773437
0.490901990697052
0.456757276866894
0.481800313982729
0.500651803419503
0.487683029676258
0.484517102070797
0.487047287140985
0.486470092219714
0.484297949557852
0.523221395742525
0.515310813033109
0.489457127083066
0.515834427925576
0.479035784315727
0.608873650416894
0.533498786471334
0.560954517473766
0.523928004354279
0.529319885751441
0.508304946825887
0.523960140131751
0.515287883693379
0.526457495186136
0.524926953190749
0.52962545466433
0.524267620506423
0.520479975259119
0.524444802952549
0.514692205921801
0.53409399586027
0.561161052948789
0.51675362265137
0.523335933275674
0.515432489624668
0.518885925084415
0.51829317609926
0.566695813787668
0.520542400064812
0.539830474832023
0.521354190469416
0.552132966577559
0.560069283473195
0.541242045908316
0.510570105447996
0.519654839220016
0.511966161982018
0.528765782637733
0.507500821411534
0.554590990354301
0.556339136028318
0.541574610958419
0.518469686773584
0.53562499599256
0.526316284759689
0.540579193821372
0.534271633214721
0.548470897161264
0.539122381676439
0.55361118683967
0.552141897243283
0.55580718107393
0.548858473337865
0.562786912852064
0.580981254887805
0.571397537124245
0.541845540285185
0.560469997567214
0.545646386386865
0.557831276466039
0.545143789441294
0.544829476007493
0.529983749476345
0.535726444764
0.516936372955755
0.54776153188834
0.558367091823727
0.527832199062058
0.536286524836953
0.513267627709359
0.514305096101559
0.509261133595987
0.499532883852412
0.497593838627657
0.501277919858433
0.499604185446103
0.489855232006786
0.489756799811485
0.485533632689948
0.481009084178648
0.483430908938453
0.484338413751672
0.478039495820953
0.48305605716923
0.48019270816798
0.480542435376836
0.469745793054526
0.479594720604546
0.474416667431854
0.47345075625524
0.499544128829541
0.498249454570067
0.504612695324047
0.480404599431893
0.486811989137671
0.476915923630945
0.473530050948283
0.470355042526648
0.467426411683697
0.472908021312446
0.468409021286024
0.473083888559298
0.472868450781239
0.473407972049378
0.466675632263296
0.469827056393233
0.461915498242092
0.465426479545566
0.465014331125205
0.469070567857402
0.463168065455649
0.467911994023683
0.463485463797386
0.480153537461193
0.46206073861624
0.473213370353738
0.466187887249425
0.472060811074519
0.465987019026067
0.46346644733223
0.465711116089853
0.468759420156852
0.462239474402442
0.461562729824775
0.462119148479183
0.464524929585302
0.458500217608854
0.459357301505544
0.454774570959598
0.457577843317904
0.454153103853219
0.452654329245817
0.449617202884837
0.446806717554256
0.443245471140305
0.440440448062558
0.434786208190079
0.439937103742804
0.427562095531615
0.426005588092503
0.422024660914076
0.421478347954349
0.413576289465152
0.415390008580067
0.4149455257569
0.40960607931658
0.409179164406652
0.416174684822291
0.405753193849369
0.408008266666979
0.4013836512749
0.405489038576749
0.403202480246309
0.405541942126341
0.397540526348416
0.402051318827117
0.399429074022279
0.403602867918079
0.396564090207085
0.40583752321524
0.399027413547998
0.406276220880549
0.406849758555216
0.41267341635772
0.410232327920913
0.411725351323992
0.413392671057859
0.415790419044427
0.414490613061371
0.418338867294167
0.416832217082021
0.421431470941184
0.42039337157478
0.424247302748406
0.421880304293813
0.42265111163933
0.427481545492434
0.425472390913792
0.427834962275901
0.426614256570465
0.424066027978088
0.425633808474483
0.4276506306158
0.424654564898667
0.420585423167142
0.423641891103665
0.422311235455143
0.421290553740936
0.417082952602658
0.419586778710724
0.416317239979035
0.419001818524396
0.415011559527189
0.413272498885066
0.411465750519592
0.411626868979478
0.405459154894831
0.406694439875846
0.406034819223379
0.405639039010504
0.404122377764208
0.404503990972657
0.402046380426227
0.401286344570952
0.399442743334865
0.399070226558673
0.398030791400186
0.392299649153479
0.392054320641771
0.392321244630164
0.389175957204243
0.390867757330886
0.389205917962495
0.389927509743062
0.388092497503026
0.385695236093493
0.384103909068966
0.380849119410084
0.381322565901228
0.376197163400415
0.378764568719547
0.378630021298327
0.370813102834126
0.37388888184871
0.369319933373735
0.367726104210281
0.363806566429759
0.365387288587569
0.359595859635887
0.357944678874223
0.351340467997948
0.350787679124247
0.34629861250954
0.349218303932728
0.346810553562023
0.344637051950016
0.34599842582982
0.343644503598305
0.345660885712432
0.343218982340534
0.339818161786292
0.343762753709763
0.33949665202012
0.340936530699184
0.336917226943445
0.333402113296448
0.328497831678048
0.328813732068588
0.321152997985788
0.317301045885575
0.316776324942969
0.311308331208342
0.306957220071435
0.303761348727345
0.30184999305023
0.301315614908611
0.298864784989546
0.302013586089495
0.302286002526402
0.307758542844866
0.30893768501896
0.314303541507399
0.323334081668641
0.33454714829468
0.337935307815616
0.351570957459168
0.362769563510927
0.376114992795889
0.389210210732989
0.403259342299305
0.417321075576207
0.437365701096558
0.44635994501555
0.465382934306179
0.475914160171062
0.491539270833037
0.51030883534274
0.525354213744678
0.535188538387937
0.554233589821468
0.566109449049138
0.579239107622605
0.595748604623357
0.609496942942762
0.622077857938653
0.635963472354084
0.642965698548566
0.655931898217644
0.663357816357648
0.673232892795322
0.674229053731116
0.6881079117778
0.693545026862932
0.696348117865376
0.696885532166463
0.709873022346999
0.694474212447885
0.706849402885731
0.69734117290767
0.702584675554741
0.701376006763432
0.709897521277758
0.70056999052516
0.695289976548925
0.703129959385247
0.702452712880215
0.703094262168238
0.710860566320853
0.70545021515504
0.708421803052811
0.718809149126196
0.71874023387625
0.723963947464915
0.731522799317861
0.735351102842903
0.743288064673265
0.742568578537705
0.759135030480081
0.760294738018837
0.770853866868205
0.776982091963737
0.791571631823278
0.799709299766409
0.812473949032169
0.832761370719075
0.843300990398716
0.845270551552432
0.862152060922366
0.863254581508552
0.867990522262562
0.879611087738548
0.882208489207044
0.887979327443149
0.885425187064152
0.884055049240577
0.888786035015018
0.87536460871593
0.866939700721417
0.868541527961688
0.870401814994467
0.863304890834475
0.865338729668672
0.871287171701162
0.8729225344726
0.890556556483442
0.890031424134083
0.899443639006057
0.905683198833474
0.922732254488726
0.931426042221985
0.943418821295879
0.955923978265158
0.97074071470127
0.983617356249411
0.997674441664787
1.01991303747663
1.03465951691461
1.0454129957879
1.07102139856773
1.07859226628505
1.0835088969549
1.11168707439314
1.11958835289727
1.15469653489955
1.15421942462695
1.17749774650405
1.19001679234403
1.23549662764389
1.27243206924024
1.2518967673917
1.31924830273072
1.316268370631
1.32567656257083
1.36129695247193
1.38473485704435
1.40989183984968
1.43870473349098
1.44386247984132
1.47546122008201
1.47681913478467
1.45401992028919
1.49835262684857
1.5091580751339
1.47631771674907
1.51829724752603
1.58193697865505
1.49099789356299
1.54159219620344
1.47872809330171
1.47184630375277
1.47165533911295
1.49410734836154
1.51505634806867
1.50026781366325
1.51225551628318
1.4945560163437
1.49371785118766
1.48790432536655
1.48670026142333
1.56912853172946
1.54888456640121
1.5340208742536
1.5896286386234
1.59759293122052
1.61859953499223
1.64733485926229
1.63834373747372
1.64592735420674
1.68209762178198
1.60693679780155
1.80429412303621
1.6949945645989
1.77318589192546
1.74770943764995
1.71569012718863
1.78366529496738
1.77348336577932
1.72835544628953
1.92512569992515
1.81864599765472
1.9257843159184
1.85778922105855
1.8451148480841
1.76763474016991
1.86047865400563
1.87437890717516
1.82339480235638
1.79877244247029
1.91012625158814
1.98636040750011
1.84178610281567
1.91506018966601
1.97141612195287
1.91940946538697
1.9124023570749
1.80462133114205
1.92822206304061
1.83346977988404
1.84805719505272
1.80649217832955
1.79931477368538
1.69970958462743
1.67991311949003
1.66752147110205
1.67468903350776
1.58833673658134
1.48785674013337
1.43577941555344
1.38941601987235
1.35689272249216
1.27940272714113
1.27727103739518
1.23988216205835
1.21641102078911
1.20182259959382
1.20610614961386
1.17818063751181
1.15663843182661
1.16398217668722
1.13983741349835
1.12338678482575
1.11178117131316
1.09556448669338
1.07918319158487
1.08354970223943
1.03369337131844
1.03575275069896
1.01470033704719
0.995292709918752
0.98679111730057
0.972776724513568
0.930756938094192
0.893306620388989
0.869176894899343
0.83642429443875
0.814787492047072
0.786068292808383
0.752001593140819
0.724295936899085
0.688690617151688
0.671418264465888
0.633342634130937
0.610336797358628
0.577554674094764
0.560969867824776
0.536487624136943
0.511907164634121
0.49225994667611
0.479583291668139
0.460056573824219
0.44264803666284
0.431302463632896
0.425054591652201
0.40886038629654
0.401534357523865
0.390651481002784
0.385368182441222
0.378234470536263
0.376485436897098
0.371030880953729
0.370854131320728
0.370185763498298
0.370906775768482
0.365294708861128
0.365341868692136
0.362218242852004
0.36217332354329
0.366100733396783
0.372044157971727
0.373672121631287
0.368794870046648
0.377403255553198
0.378132415175447
0.376348110958441
0.377465205165909
0.378003025078502
0.377941725289271
0.37139310595708
0.372470530363844
0.366400977139318
0.364551090814345
0.366133090373481
0.362581358335082
0.366046577209037
0.353826983806817
0.357814457948059
0.357507373354735
0.357318554296265
0.354406938865431
0.36245641234616
0.357708541842092
0.363922371431378
0.368385708370088
0.366038988717816
0.369756936480105
0.376505465651733
0.37820725160706
0.374354179925766
0.377272949199648
0.375938348284711
0.377326666203333
0.381639396452134
0.391094109910992
0.388016670752318
0.390664215096247
0.390588244322505
0.391166153167802
0.393034439554406
0.398432787913303
0.391293765549115
0.38875618280726
0.394315301864974
0.39358727152395
0.399387041533199
0.400879658721629
0.404328911572877
0.410780711890289
0.421260499435063
0.419863370207676
0.422372608899566
0.426550744749585
0.437035650584518
0.456069548160454
0.465244877933217
0.472423962623399
0.487181343997514
0.489675369164176
0.496052996457492
0.513030769880196
0.504637399213578
0.523328417259801
0.529308535414702
0.523283823850777
0.512304951809403
0.503150226212218
0.497814080825245
0.496109647095368
0.492339176736486
0.475466315772495
0.469634510843444
0.47721300920031
0.47202595644484
0.470513785839401
0.457498337228833
0.466313742168752
0.466852039376485
0.46542350838676
0.468241393326134
0.477970400372169
0.472534535222071
0.465336525840454
0.474077455617937
0.474400531660036
0.456846228558353
0.460851138392444
0.46229984410858
0.455350927902299
0.449958523186226
0.448531355589839
0.439073307718249
0.442931252069854
0.433415022257427
0.424274388708991
0.437200090123522
0.439608857495013
0.427488199545763
0.426085019928269
0.42055872958983
0.429339347253291
0.42973981953382
0.417685113955504
0.418397325199715
0.432835153035343
0.418192906758785
0.429828620340138
0.414670963517095
0.415814880442885
0.412930164683769
0.415550066166737
0.409579147721714
0.424003784667899
0.412951938150216
0.411185352420224
0.407654260573622
0.421680672430864
0.400179997304558
0.410206000654213
0.397092379080497
0.396869797728842
0.403104650197881
0.412829599683632
0.383161938157074
0.39367683602474
0.395540157743432
0.392637538736546
0.387238748019012
0.392367731848889
0.395419278766404
0.394922040666997
0.392670240015655
0.383140694392905
0.391708304329968
0.399474229436393
0.396855896468573
0.405015976766121
0.392153017149185
0.406899793415797
0.407329115936755
0.402518035893987
0.413506314361864
0.413550588657692
0.399360230243607
0.414077912480407
0.413859712663303
0.430476565879274
0.416817336184637
0.431067287772084
0.426170707891115
0.438386840016789
0.425420587399588
0.428907809300322
0.419636978878531
0.432015715961738
0.431495517316251
0.457853238107592
0.467461863514218
0.463490073849952
0.46894706708671
0.494415100223723
0.477908150649331
0.500554408290172
0.495585477068492
0.48969340251691
0.504771723402178
0.533463410764986
0.537702524678231
0.545574145639633
0.561686796953712
0.565077631188685
0.564437022366104
0.617831343580091
0.607200281600927
0.629424184826926
0.628297402303899
0.637179690086392
0.660263590516382
0.68481382574539
0.710191297442677
0.704519569478167
0.638823231996375
0.64237625740055
0.654795154717649
0.647423797576717
0.659685373098152
0.680431172757211
0.647020608462048
0.660179652194145
0.644787083396937
0.657990830070471
0.648151541728437
0.664082033753051
0.63768829433023
0.602039769628395
0.663558081959273
0.644704918720665
0.654384920642247
0.690947821483646
0.627114739916619
0.61167954116318
0.610794641416349
0.641609580011509
0.641684397582849
0.658406661993717
0.6396039524415
0.624957663948038
0.598929162201842
0.620107518992086
0.616466623560734
0.630721281532964
0.608216439659979
0.620870689737427
0.631958218221445
0.59576238417516
0.64233260729681
0.630861508489588
0.556320539067574
0.592069200849509
0.589130325484682
0.664712858679684
0.664294094090161
0.638822956714763
0.594880389988292
0.597633617157451
0.599010893630852
0.598875622262204
0.622881089310995
0.638274445866703
0.604055231810361
0.673375644319371
0.614319258798638
0.675144175739326
0.623734206409639
0.609340903800022
0.630179761335729
0.643341736299655
0.651565830661337
0.685475583113507
0.650372366916184
0.609061812253027
0.6416789637355
0.646620345296632
0.672696654293702
0.654716573575753
0.652935250684455
0.691377081761123
0.673650856673773
0.739207239781039
0.743686249126491
0.686561889149857
0.740077779432683
0.740898937986726
0.771992088277827
0.757948759673247
0.673677584723881
0.666739379716602
0.74270401784779
0.88791561024179
0.873797463984037
0.878654419576635
0.726259916087858
0.834794764278489
0.853562679326761
0.797200955313375
0.876132415292871
0.845814245548976
0.913566764108844
0.83088526627634
0.870302330638946
0.939129543964452
0.850595180036738
0.809391603485665
0.741417261144544
0.914240531486103
0.885024546760503
0.835003650732141
0.739405404410018
0.764026729656748
0.745273998572753
0.874851251445061
0.734960408990811
0.894761929681011
1.04651487799844
0.803536748399102
0.714971236627947
0.758760802616103
0.704496177260242
0.753467292945575
0.706177818103
0.92574170037075
0.923885594879856
0.76496795024803
0.70659799661585
0.629583485098872
0.885038993254913
0.914038582983313
0.691532354331655
0.839189138225566
0.956686056654002
1.15976141548965
0.813539561788102
0.748796092489436
0.647431525442561
0.815599299889182
0.596888790348437
0.791120135318749
0.671497989021473
0.703556387934394
1.46007941084265
0.829771024790558
0.449754391442214
0.622129719454033
0.758290843986789
0.882909142327213
1.47388374213887
1.34541260951437
0.815603716641154
2.47919713522128
1.43367151951518
1.18296241572807
5
5
1.79601909519821
