3596
4000,36533379555
650,420452594757
1
2
2
0,0366200642888432
0,0386457809736689
0,0329754990300753
0,0416030624301327
0,0285864026031136
0,0430538505026847
0,034674933199241
0,0450590298327042
0,0330699140526538
0,0409283546298379
0,0339742860671896
0,0421580001464651
0,0322191667457772
0,0393848290684697
0,0411196401539669
0,0426883589887526
0,0312529872340799
0,0430949555638188
0,0430325924594568
0,0424046197685846
0,0284616855201236
0,0378331384070054
0,0325274790497908
0,0379114714356358
0,0369972572245635
0,0366542911166958
0,0283610431793915
0,0369574611070279
0,036497556258825
0,0390132860599537
0,0292184034509466
0,0375991929806061
0,0348321680260732
0,041776116532485
0,0318092176271061
0,0488907023401714
0,0352261824924135
0,0375177627006249
0,0328581682067507
0,0393667577299436
0,0331382093571928
0,0409488192681278
0,0315026697838504
0,0374352871478166
0,0340638257076893
0,0398282904501921
0,0346594036148652
0,0378701027536233
0,0276544153929337
0,0403549386165462
0,0326626883394315
0,0344744552807118
0,0248338245656272
0,0462397384795956
0,027699381949207
0,0474921831803664
0,0341996102318279
0,0407673456623659
0,0320560664119442
0,0412711983190212
0,0217517875636244
0,0451564607086942
0,0424639828092182
0,0449667521265124
0,0291935852288446
0,039578607271222
0,0333959927251949
0,033369506074194
0,032498383955132
0,0359415269154029
0,0283871313014467
0,0361916913240981
0,0388933734752932
0,0416120045378689
0,0360191861788364
0,0393758531301567
0,031901515807047
0,0345050894519396
0,0257891036980602
0,0375046844659281
0,0329522210118016
0,0368774132790412
0,0283406703196356
0,0334059430306099
0,0279425575531705
0,0357753856745399
0,0323258849723813
0,0270116666522244
0,0397796352881284
0,0392009707440546
0,0355742576638599
0,0270882353610425
0,0279117613225552
0,0333645113104335
0,0325532812356845
0,025763971798166
0,0292566846469692
0,0298398615033656
0,0314738443915707
0,0208915549825865
0,0368226405687306
0,0361269380854162
0,0404215594236473
0,040017030925478
0,0128623162440277
0,0556156000173089
0,0113712844678013
0,0498727986598356
0,0415711887660947
0,0399203709608707
0,0310109050532482
0,0338986939087063
0,0318825783299905
0,0294012965209951
0,0234268078048508
0,0228157047824854
0,0527831660185248
0,0392406645343797
0,0320140278087821
0,0315544241165033
0,0216590055406991
0,0245503942913286
0,0571262635818572
0,0379884754243227
0,0257015476055913
0,0290074801117037
0,0194860142974747
0,0286927203749449
0,0534663808434784
0,0346330010975905
0,0284281049315205
0,0280038558483295
0,0252654377421111
0,0278147847245026
0,038032271338752
0,0406130210808399
0,0208796265219459
0,0288247402764625
0,00587678994803601
0,0548493779103998
0,0370272430475898
0,0356850865707631
0,0297218043852655
0,0213984261524145
0,0500825621315833
0,0445077470200619
0,02173517005422
0,0303989613981668
0,0445924678194733
0,0292372207842537
0,0249092349065588
0,0262361971952557
0,0252821028479998
0,03054590081039
0,011733259481032
0,00631933191748356
0,0734927381105303
0,0350500602340434
0,0478055334334228
0,0510410386654335
0,0212736129176833
0,038658638195155
0,0272926122449713
0,0348059824487217
0,0182531192467635
0,0378023044074938
0,0125206744026564
0,0409305278943021
0,0275477415378317
0,0312805331829952
0,0295640326251479
0,0416164318955041
0,0143927843284003
0,039260880251468
0,0514528224820873
0,0185591084405706
0,0343211968258847
0,0421706938213455
0,032576471040986
0,0191984102431817
0,0369485947244798
0,0423143237471629
0,0331505588686294
0,0305583137646679
0,0209259411383689
0,0387102945626409
0,0367442347561508
0,0346030489315221
0,0309541641003249
0,0239407827323066
0,015532599493956
0,0574308392557506
0,0523911437400796
0,0399410493045662
0,0196577602240702
0,0258970562654161
0,0140303704786779
0,0646126453041624
0,0307083761159008
0,0294791228934642
0,0256910345439506
0,0345687273714869
0,0298070735682391
0,0273860851126308
0,022391415739298
0,0183835700796302
0,0278178074379658
0,0569481317887367
0,0303202739391277
0,0352585715913228
0,0151412988128544
0,0334618030643227
0,0232881619238442
0,0580509900192501
0,0236121332290859
0,0302107441917867
0,0275202048368256
0,0311113132430584
0,0369561675577089
0,0436902267423279
0,030850040703183
0,0394097567884662
0,0333300232808044
0,0389879286705578
0,030972834165639
0,0393357233766915
0,0271475698466336
0,0394039156858892
0,0315035032607985
0,0329821379336796
0,0259509845192023
0,0397970530119055
0,0367298428711172
0,0342248279503301
0,0230745427644789
0,031820119624598
0,0412489494583528
0,0359111833553018
0,0324497106545492
0,0446910533853303
0,0343567497764808
0,0396651437813523
0,0348467413037525
0,0365041495700848
0,0272840807776011
0,0318892828107259
0,0285890976422076
0,0555595773247176
0,0245677952608591
0,0431777508754759
0,0177446391121272
0,0578396189724261
0,0232516702178693
0,0482952831035543
0,0247017663214116
0,0404366270314878
0,0149869485750744
0,053525981129126
0,0358667691304237
0,0407417667771666
0,0315541674450965
0,0554479768330282
0,0242604999820113
0,0304425488156667
0,0150734588240655
0,0584566638890652
0,0412238576733098
0,0178810418835903
0,0416956490851994
0,063498149028478
0,0290052856363535
0,0345384217211628
-0,0198333401947268
0,0661526082928972
0,0824784923865506
0,0443690594081106
0,022454630404064
0,0435895454509991
0,042913032284627
0,0263746867568208
0,0406684904098601
0,0326807750493372
0,043678554885258
0,0520340803353023
0,051779917201687
0,0559919131874868
0,012407730663318
0,0638174664977678
0,0321643894099227
0,0494164685845095
0,0291130080504072
0,0440654375415013
0,0249499278466229
0,058994752948512
0,0385124560713547
0,0580607002832399
0,0315952763791728
0,0538231314314111
0,0499030474467266
0,052945232488355
0,0347704305554091
0,0547778393569871
0,0472315103352317
0,044891799012904
0,0449487819189182
0,0469343869169206
0,035743258663841
0,0418410361190491
0,0539048844239121
0,0632954032381814
0,0339752010845858
0,0660388797935673
0,0552377620716077
0,0526591281878133
0,0493237904569909
0,0517776191851384
0,0464156552936772
0,0538266906049035
0,0432699307474444
0,0562602193047414
0,0586302485346165
0,0488661643290953
0,0534477252765859
0,0558496828287445
0,0534529806436248
0,0587808619491142
0,0488693712545873
0,0598708568710722
0,0531344521699802
0,0519119400990108
0,0485852623059746
0,0784670696604747
0,0579777467014618
0,0419186422123319
0,0792995795025245
0,0675145469625759
0,0581555708429763
0,0655667264059018
0,0605885989117661
0,066335993839347
0,0667890350892491
0,0712417589095808
0,0650145543547596
0,0739998584981736
0,0628128449226525
0,0676289667548481
0,0595176621345623
0,0926034778178185
0,0901176038562776
0,0899214405189061
0,0670428058661982
0,0782419399387073
0,0519838438832983
0,117719431395654
0,072160044908453
0,104167033022021
0,0874959473089532
0,0850542962445752
0,0921342586116833
0,0927135300203013
0,089172218116017
0,0914780099856597
0,0987993825525076
0,0961842285296629
0,0989182121963519
0,101722442031846
0,104532855794913
0,0918845370014645
0,113941051480692
0,121653233449828
0,103727819112356
0,104750852768525
0,108076775591342
0,0970964776485605
0,134191202066322
0,112762626628182
0,138516521384322
0,121251073316624
0,146881031057266
0,134592160435752
0,123019343602774
0,1318874174093
0,127568764173363
0,145157122951181
0,139007901146743
0,141982883408841
0,13345151048233
0,144848766778596
0,147210233399339
0,1462398737516
0,147543009730599
0,151364716004227
0,147491822594
0,169997663384442
0,151527331002794
0,162535672060189
0,140990755312351
0,20497909697411
0,176792921017982
0,186335785361969
0,159891484520931
0,184680117275717
0,164212573078538
0,190888390195373
0,179800822457008
0,193148560146475
0,183962939664435
0,199239218480562
0,209789280606728
0,194464426141544
0,199339847594824
0,204543557528577
0,191027771735598
0,210410404514356
0,202338642167684
0,236973269805654
0,213503369476569
0,219812216837166
0,205454347090311
0,245406050358692
0,221880767680538
0,238629062440722
0,224137460155892
0,230559403812559
0,233016475816706
0,243076732093117
0,244384901973174
0,253034383105006
0,256474964204503
0,257163096936933
0,253323387425738
0,265128559389688
0,263913166496971
0,268335930061539
0,267314262312239
0,272264037149549
0,272879185331234
0,285855307282575
0,278511698785593
0,287128039687969
0,276919449302967
0,324502807991619
0,290932369321162
0,308733380590501
0,302075139024153
0,299582564240572
0,300423700304075
0,308592349570341
0,30575053381429
0,313898147179272
0,317811981003114
0,321739545780058
0,319017793200848
0,341084250623407
0,34364352920968
0,336702791975359
0,326545092320534
0,347789470555547
0,349519188025969
0,354575371413208
0,355825623168911
0,378610415876437
0,35150811002479
0,378994188018753
0,368104347849552
0,37488854133726
0,370102242537119
0,369732733139704
0,377189509637257
0,384134909173462
0,381699611121348
0,387132855413313
0,410343670787094
0,395388391660908
0,393758184299588
0,410044900758119
0,417460795372245
0,420772204902969
0,434751545427612
0,434187545894265
0,419789669651905
0,443727218916806
0,432357294274915
0,434584903412046
0,449383362736988
0,445609769542322
0,436658842888273
0,463533835717764
0,460716656708045
0,462534409968073
0,464415933531997
0,460787832967773
0,461771950700642
0,471542959758689
0,474005633306827
0,485160097903811
0,478260511634501
0,527688735516573
0,515450216624719
0,488225425940339
0,498138024169508
0,499131334068514
0,505506768830483
0,539642872870809
0,515930159240951
0,51476718272091
0,523542286592585
0,538417465307687
0,539856628564252
0,536585543103755
0,532619270190325
0,547192190741443
0,552441098385379
0,548941675614143
0,555058660981449
0,5658577613386
0,571696792728382
0,562036961736852
0,563762305879056
0,585563134274147
0,583761679438721
0,594086215609736
0,624929466565896
0,6089971271604
0,585890745591445
0,630799459413532
0,628120324458976
0,59418844780708
0,595864024999759
0,618461705481071
0,60634828974491
0,597020092554952
0,591369223450868
0,638715231447445
0,643879378849342
0,616471027635206
0,640601076311595
0,660432908579346
0,6305588766837
0,658428345547473
0,668561954586548
0,665021283167736
0,659713022620906
0,676687961357476
0,673170190400987
0,703857141434123
0,715088379686634
0,698627004176531
0,698570933690424
0,683960097511985
0,718155482062804
0,716814660034497
0,706522575325256
0,714380365522348
0,718683548967052
0,717955325914236
0,69625427392157
0,740705347704366
0,762134909911461
0,727587219950727
0,744709079173142
0,74184972922275
0,753858564680061
0,74653826602407
0,762952293876119
0,807104464050574
0,748792257016994
0,75700138924025
0,751975056946643
0,754970472972339
0,788102721358887
0,803526545001152
0,788171206780387
0,80032943672488
0,813974163369606
0,803736733278086
0,787496654405495
0,803115619475909
0,836490863838516
0,844324045616333
0,84137081690187
0,829576201377361
0,848007325371697
0,888978910100028
0,843851645405898
0,829064897715935
0,854407567196928
0,868779969293136
0,870118009788441
0,855223128392538
0,850490609901464
0,864521834680408
0,883593347149456
0,892117464577275
0,877603844712156
0,869921093111414
0,909741549500321
0,897422741063684
0,897547360696038
0,891390935788305
0,875322341322128
0,895003429848679
0,907346652314365
0,89161433879355
0,941612944551923
0,919474081404227
0,910478273489326
0,920763710545831
0,91498669611658
0,901435681610609
0,970479981985391
0,941067988859758
0,918786931069015
0,957870521070434
0,992746357057382
0,936864438743768
0,967052852923738
0,986719314251509
0,918688284529145
0,929765127409904
0,973683085067922
0,955918453994797
1,03043149547139
0,984477269211388
0,974050347953193
1,00005779926065
0,980378673151738
0,998987876403765
0,97575623106371
0,963160781471707
0,9715968330234
1,00277953050742
1,00112329553662
1,01199252525436
1,07568980127051
1,01896365583325
1,02833715553122
0,992899397110454
0,978252191074378
1,02482610321684
1,04961729237171
1,02064431874355
1,02825872993591
1,03411752165599
1,08856846437685
1,06595519080083
1,02085436162118
1,02778644768429
1,02950667707675
1,07733587067639
1,07596745138316
0,991172631419462
1,06528495147517
1,08636587546993
1,08738464869852
1,0877539459709
1,13291707050117
1,12506363953989
1,08217766718462
1,07785081695311
1,17431320469225
1,12558771149703
1,10817733562452
1,08979884632618
1,09781517070472
1,11888296363431
1,10227873093394
1,02080848848509
1,08399182254986
1,09577992774983
1,07754064567394
1,08529000731746
1,10884237348814
1,11742227878543
1,07205336016755
1,05012422995229
1,03838853385627
1,1176901038725
1,25587304135697
1,19597375023301
1,21880345166884
1,13964422202528
1,13583641243738
1,16279763126832
1,17325142117206
1,13140371851226
1,16457622526753
1,11665165730854
1,11089428199357
1,14467181863666
1,20434220187863
1,11721315381757
1,06624917757304
1,10391566894861
1,20090674241447
1,23785495636325
1,18974437786534
1,11907527706941
1,14619763823574
1,17290802911149
1,19959367085513
1,15312856320396
1,12038825374711
1,18348781201347
1,27977708742378
1,22851890452789
1,23253833239677
1,12002664317425
1,11739196561869
1,20358179394883
1,15218713540361
1,19456635033962
1,2155910055219
1,17678606962508
1,29909883196269
1,23993158304676
1,18104868404562
1,19977078101089
1,17440947760489
1,14841600225434
1,21776701500855
1,17015893960649
1,19273269744315
1,25922515539733
1,23763841267655
1,22337410852687
1,2814068552615
1,23725361076027
1,1934558502904
1,19083797770703
1,19640267319187
1,21899015436473
1,21495182730922
1,14930930114195
1,22160222679122
1,17597890168316
1,23207823929741
1,19939580762792
1,14159791615071
1,20567626801268
1,22091198014158
1,14529053600191
1,19295928269858
1,16678611734559
1,16286134264066
1,21475806617533
1,28749786155208
1,18186935901541
1,21283705435848
1,21867325858207
1,17896503994697
1,17403237920186
1,19045671284316
1,16914458040821
1,25459060970327
1,2597620393889
1,28221700097566
1,24624061198256
1,18564185622953
1,24767877084979
1,22461010605877
1,1540186230298
1,17342181974964
1,23249492655275
1,2662569444037
1,17185001181879
1,2189269130408
1,21842768995188
1,26364000189022
1,23133020944748
1,20745597231509
1,19699921897965
1,2269940563431
1,19698532409063
1,16968908959899
1,19794058415297
1,25770483028024
1,23280357103586
1,22876159778993
1,20090254654528
1,16543562833278
1,21929060118295
1,21388853034607
1,18216091834542
1,17867700092775
1,16708092186516
1,22116220897227
1,2397277473045
1,2548487383086
1,21744299366231
1,23485892472494
1,18286092274639
1,20471798037046
1,20589454475205
1,19302599593286
1,17239068779377
1,20916256410386
1,15206985513045
1,16544534333554
1,18887858964636
1,21824041748232
1,24055483103091
1,20046891511916
1,17628899898137
1,21792039767682
1,19015079199647
1,18758440013428
1,21326486231185
1,2035625331705
1,14501734233454
1,17750472429458
1,1911116768161
1,15929741598106
1,1619575325265
1,21522087083088
1,14665814979622
1,17038871942398
1,20198994892038
1,17688982732532
1,14407315938889
1,17420367171779
1,15102759683789
1,16464768054758
1,13155847575594
1,16137262535673
1,14624247275503
1,17121507125488
1,1579950190424
1,16937047495992
1,1562316067784
1,16734780910626
1,16826194170791
1,16481955523311
1,19894046134397
1,16582349602123
1,15201882948083
1,19455070880281
1,09890879112042
1,15548111871265
1,14992448969456
1,10957723295616
1,1299017265737
1,13593159537442
1,12401340089138
1,10060265257625
1,08830141090721
1,10244608548284
1,11142015229194
1,11612193605419
1,10986779234278
1,12447022821535
1,12623942075748
1,108132431981
1,12971634467486
1,10093382735323
1,07028048296125
1,11355602156832
1,08754908202111
1,06397536422164
1,10501940930727
1,10646400047899
1,07313911022831
1,08742830837779
1,05034352992105
1,08101060421479
1,05702138762513
1,06064227446378
1,08518862143364
1,0423845997929
1,02320963615165
1,07285294339937
1,05068909176537
1,04285498853013
1,0293146084594
1,0710959742366
1,04096371306085
1,02644805320403
1,0079708120544
1,02042096655859
1,0139559007477
1,02971611541882
1,00264692833111
1,00097214746736
1,04337058809676
1,01395477682923
1,0080644814139
1,0050976047521
0,965204620375251
0,987068102907766
0,997373968109039
0,976658398911244
0,953632723210733
0,954740006411622
0,920593037878942
0,962440360222172
0,947239721362617
0,952775718136264
0,951392370922172
0,961153589176186
0,927483190709688
0,937155200290222
0,940966290682755
0,932005758724633
0,900442073125667
0,89594190181144
0,902461812289048
0,943001900499658
0,918499207480252
0,898184015484542
0,907174214446795
0,907985698563276
0,883130520778499
0,895786833343844
0,901705589382602
0,89468121589194
0,861766828698045
0,876556788004799
0,866485903051115
0,860441208393053
0,846803089473607
0,840748491901208
0,848178615514736
0,837839788873477
0,845261438898249
0,857701177126981
0,831926484680067
0,848432338554753
0,823000036697325
0,836214673350958
0,835919258100553
0,837310841763829
0,833307583068855
0,803818879514989
0,806001274257049
0,809860841118017
0,780226848740426
0,800187109421831
0,785060070735808
0,76831219302163
0,78281943628585
0,782688983623713
0,754110652846813
0,781959836591658
0,769631723262199
0,765708360134196
0,776433770371917
0,747797536025163
0,748431922076954
0,744536047304148
0,745382962546925
0,74048916092285
0,732600227017725
0,74276021160927
0,730680257451564
0,716472772082633
0,716948627909664
0,727587023198398
0,718003959440579
0,720534632693136
0,702976030251577
0,713064130537093
0,706458400722719
0,699573975450083
0,696738798381566
0,685090289959372
0,682899755104078
0,688951893224319
0,687957555540952
0,669903520436846
0,675793400323705
0,678648647803113
0,65981450050196
0,658037700478299
0,662970045371888
0,649569329148343
0,641665492007968
0,654179692915955
0,651515524460415
0,653022483358044
0,63720409990278
0,640238171481971
0,634976502536591
0,628992847472348
0,621078242946191
0,613211790831093
0,605054978180853
0,61871298503707
0,609192324577202
0,610114190622611
0,605297305532458
0,601189745354891
0,603505116465437
0,596823896387985
0,59700285075163
0,594722673934962
0,5766991742803
0,583360258725128
0,585824426825378
0,578144652457614
0,580942713403286
0,582822364157165
0,569793689468033
0,564628467792722
0,558241617107661
0,557023048174747
0,555300642009387
0,554477649476682
0,541822375863381
0,5531152875667
0,55054016725284
0,537109917198206
0,541756849429908
0,536377078244175
0,53331486645031
0,537216100071635
0,523256574306611
0,520002512716629
0,515488856546658
0,522615611942452
0,528344898528745
0,515816280598696
0,51620273587257
0,509667056497079
0,502727305902341
0,511770954470287
0,501245584146771
0,502652759131323
0,499428428776846
0,49687769766234
0,488892130576932
0,482819787385087
0,483347976536554
0,49471741201275
0,487227612156848
0,474767403537811
0,471650441550697
0,470701228819546
0,464003092000892
0,474958053279578
0,473703020860257
0,468262714365978
0,463969511547687
0,46774720038801
0,462017231409576
0,458458392145546
0,45407537688405
0,449628753863162
0,449526350295611
0,44110303442644
0,440601375904642
0,439510593715455
0,439703278248978
0,440705646252864
0,430387519010327
0,427329075867436
0,426710138227102
0,430411923057202
0,429710506007784
0,425533291354067
0,416712825110134
0,421645134476058
0,422127175156711
0,41495518633591
0,417989544473184
0,415382130742634
0,415994437292305
0,413711799791911
0,409356694275176
0,405747760580842
0,40525644705321
0,404258181594695
0,396730180637024
0,403437925185463
0,404467398480022
0,397486408000243
0,394762910929423
0,393968532018076
0,393600762363159
0,394179252681122
0,395887226353378
0,396278821685238
0,3939857598245
0,390598589084751
0,402609736666708
0,396506681099213
0,39361686934913
0,39135004015026
0,394546341792852
0,394732745887726
0,391190602299621
0,392394654139373
0,397136072133176
0,395261219164694
0,391908928138584
0,396062217515437
0,398208108030866
0,403331576956099
0,409675838243142
0,39615767145978
0,395668281781663
0,402603441101111
0,401151436025003
0,402062195491702
0,399199122979716
0,401680877584962
0,405536864328849
0,404082132583908
0,404957238583154
0,412088193815382
0,418087178185617
0,41519175941485
0,414688747899775
0,418471063509196
0,425912321136113
0,420720997290596
0,426784884834063
0,423641003319667
0,425549422237182
0,423255402087209
0,423337248934743
0,425920107952928
0,433806994163202
0,435797130613699
0,437145704567551
0,438786858369073
0,440896879392398
0,439138018339675
0,438043833414535
0,445071613649264
0,450128493999733
0,456968181367792
0,458127675098488
0,453960652703413
0,45892506913785
0,465886248129336
0,472063504175629
0,474441262784382
0,475859963649745
0,462651722020045
0,478306492564889
0,478749326385295
0,485211196362331
0,488345068577622
0,490026687420676
0,484031958795748
0,488358538095204
0,497401134548207
0,488454349658222
0,496735519061794
0,496548369804004
0,496604794773709
0,49435661550225
0,487757353376295
0,497542581055443
0,499863063022766
0,497538289216254
0,498118683272643
0,493257494329056
0,493178378796319
0,488113269387053
0,494194258784553
0,493543287994229
0,500391060317482
0,501127509860765
0,489241302079604
0,493479625459139
0,501250817837747
0,493397102172904
0,484538231104162
0,485954730190511
0,496581489910752
0,489908994838518
0,488453512356786
0,490433445479015
0,482710316061275
0,482199011362777
0,489628051296591
0,488373824799936
0,486711686891585
0,483445584231223
0,48981817539445
0,489521701146253
0,490720110586146
0,490330431907912
0,492206894185116
0,487583451201522
0,483921736998629
0,484883256644544
0,488177834029056
0,486230605970752
0,496840207490408
0,487774600115099
0,490992178362377
0,497558814247001
0,495718326826699
0,486523706175159
0,491231999358316
0,484318168079866
0,484458660595248
0,487567047375806
0,480454685424864
0,480570431271237
0,481123888334275
0,477248416675051
0,479153739283631
0,47516363999551
0,476058651750446
0,476825548511965
0,473526957087388
0,477325758146279
0,464997308194367
0,470494757382176
0,467524119526358
0,459570666904269
0,464855044706725
0,461080477333837
0,455718075150559
0,450077240571718
0,441795179923425
0,443466035129714
0,44458711952446
0,43445065875081
0,438470511030448
0,434931499087977
0,430276808891359
0,432513112406587
0,434245537134096
0,43118994383386
0,427561758915824
0,416548586730754
0,418920380013893
0,415496082743466
0,41221731076106
0,409030117578518
0,403466555236438
0,400098746111639
0,397002147640237
0,390754304375669
0,39185052177082
0,393463739329674
0,3863630648247
0,382898867405677
0,383163899624803
0,37865273993506
0,379775274036261
0,378752937454695
0,370582093510649
0,3711672788504
0,364680502766175
0,359819961260753
0,362867099187445
0,363750834084429
0,359810330081852
0,355501548544953
0,352156505303064
0,349406288128034
0,34923162545792
0,352087288525502
0,346998772476509
0,341320743527756
0,344865249064341
0,344977059973527
0,347539284007609
0,341477141429026
0,337523803857632
0,333833926544223
0,338368385843531
0,334280660009096
0,324463762150275
0,332395330121862
0,330826598213089
0,32748281760621
0,323723593418909
0,325279393159201
0,319822449903229
0,315882741701689
0,320738933467251
0,317691656627631
0,318445358981602
0,313163699406831
0,313252044811186
0,312426733560076
0,310593858554987
0,309925030802723
0,314247843933496
0,304585567305445
0,306560225360295
0,308260111355309
0,303298569113018
0,301775871731102
0,299362905863224
0,30338174087772
0,300577589053453
0,296740965136845
0,294429625269979
0,28874886582784
0,292475540529043
0,288410127812478
0,291340567850929
0,28895821620165
0,29242637030999
0,283560700590358
0,285549435169963
0,288978760357888
0,287781387481545
0,283335066344652
0,284030035803812
0,27895907679145
0,279805912837069
0,279358312758535
0,279731474020269
0,279029909024143
0,278015274978744
0,280241810189675
0,278242075256155
0,273011748913892
0,274653033905576
0,27141720362767
0,272127973421989
0,27549215180414
0,270822543666071
0,267670683276835
0,269360903930737
0,270138318951608
0,265454368967822
0,266694204039197
0,270842251916425
0,262834831723347
0,263607413485575
0,263907632096279
0,26196925027747
0,25989759017283
0,263989234165481
0,263908508640814
0,259562126545609
0,258106841147303
0,257360422639371
0,258078772918325
0,257402185586765
0,259642575820323
0,258744991446117
0,252786168386326
0,251808323895494
0,256145977849851
0,250150731507978
0,250786978109316
0,251782156510646
0,257996503058892
0,253625287707907
0,252877858277705
0,249554344777583
0,248460377431733
0,252745482033645
0,246523313307094
0,250808383889605
0,247835822258044
0,247915067264693
0,24800497448332
0,246668187373714
0,247566674046057
0,245525444287707
0,245681627817963
0,244406961282614
0,245068206986937
0,244193379725312
0,245018130563207
0,242262343512111
0,243050843967742
0,245284856759213
0,240790298645673
0,239128010790754
0,241158037695082
0,239694696083736
0,240405991747956
0,245007734566699
0,239137474833565
0,236792843050906
0,236448564206582
0,23903039714945
0,2384017156263
0,237717942712781
0,234168627562752
0,233676537185949
0,235473692420345
0,232816260612279
0,229022614261734
0,23028942603676
0,227547873647732
0,22980037400794
0,226223453231209
0,226359651862373
0,230640756025086
0,228477312256889
0,226369706738522
0,226537869304115
0,224079556970186
0,225890073058245
0,225377484051698
0,221111012363565
0,227728796408842
0,220703456743763
0,220749320785489
0,226277733252784
0,219642018317156
0,220321682578881
0,224418204946803
0,216337971268052
0,216738043178861
0,219161988399761
0,216368936250821
0,215142163143554
0,212071816771284
0,211195975391888
0,211806973471781
0,212810440216878
0,209909618998547
0,2118695349108
0,21118730811663
0,212038193279307
0,208386997740711
0,206065092670782
0,207075820458382
0,207937522622285
0,205529560417946
0,204124987582359
0,205381066596806
0,203350720294676
0,205976659470798
0,20404487515026
0,198651863878962
0,19668806704872
0,198157424399486
0,198680676733602
0,194866409632623
0,19832704753594
0,197407284570745
0,200962862376426
0,195329263265204
0,192545766138796
0,196098839913114
0,192263740707557
0,194115411701227
0,186778240335191
0,18851934673648
0,189964248643886
0,191134401304064
0,185438873808591
0,186279809135093
0,185672214918035
0,185964915575932
0,188129466588692
0,184578063278477
0,182440509876213
0,179418160925753
0,181964565882109
0,177977549172497
0,177848225861787
0,176429950533108
0,17766295598932
0,17629992551775
0,176491282533106
0,173963377008566
0,172904479761494
0,174301643230574
0,169013588905741
0,169523671176022
0,164700168844013
0,166094302614664
0,165228471508376
0,166198627744223
0,162762970264418
0,166249595720476
0,167658768913867
0,166899756659653
0,163302046023633
0,163251988585165
0,161685050151101
0,162571487005768
0,165753580486241
0,161509396405511
0,160762240398151
0,159106908122218
0,158860279936431
0,160473935782479
0,157673693923794
0,155946572485224
0,155001280216483
0,154271648531209
0,155347949121257
0,154129684891146
0,151439824920888
0,153248676919436
0,152894608239518
0,153870615749823
0,151749920217328
0,148609127799928
0,150950275730271
0,149007251155256
0,149244234160936
0,148125769594646
0,143126632104968
0,144998123898018
0,147205832482873
0,148873993334204
0,148298160310138
0,148379785421586
0,146735756660357
0,143867120517065
0,144538600194198
0,144220860602203
0,141817440033213
0,141334926011272
0,142118713539744
0,141558698670644
0,136824358460367
0,143446119615768
0,144495261078017
0,141403638744353
0,138998204684632
0,138339040208823
0,138114857684283
0,137074910108179
0,137800111527412
0,137996305791261
0,137513597656796
0,136747612323236
0,138667032346315
0,136747607849293
0,133130859584352
0,138053620640209
0,132839993987891
0,136097072936666
0,137525765160677
0,13760002232769
0,138200617889005
0,131602390488536
0,131470664837704
0,133050741039173
0,133026266955459
0,133244883098999
0,130437616411732
0,130503696401166
0,133568385877147
0,129515024020897
0,129603790758237
0,127643671348333
0,128892801173144
0,128917250954309
0,126617688307797
0,128894335877154
0,129174968636249
0,129863347684524
0,129545952239415
0,127840104689206
0,125762471502865
0,126888839304708
0,130440986928202
0,128752983147439
0,125765085710599
0,129480734920033
0,127705111719159
0,12751645951539
0,129334535500029
0,12671472705804
0,12404295684957
0,121527187821391
0,125359449971972
0,123910816749787
0,125983078533246
0,123931761567462
0,124141220390313
0,124015450193924
0,123350037647447
0,124447043763924
0,122090121933202
0,121188629321567
0,124417004964613
0,117502125833453
0,121134403789089
0,121039708568136
0,123434558983692
0,118926510190979
0,120414054755019
0,119162118073221
0,119475422523578
0,119395222505875
0,119665459917327
0,117386909398646
0,120329755969188
0,120560868758598
0,120003335933202
0,117783049648146
0,11622269649506
0,114931376789886
0,117526605190192
0,115902843481047
0,116246075740813
0,116556045905692
0,115071638095828
0,113544903736256
0,114043234159595
0,112075022288913
0,113198550863216
0,115464631068099
0,115693243157665
0,116460116028332
0,115283533588143
0,114249708378663
0,113119719248685
0,114867786086051
0,113580139105033
0,111675056506909
0,113961916863661
0,113444760416229
0,112191537994541
0,113276564373828
0,111917305370737
0,11300635730424
0,113322793348039
0,11062961803214
0,11100388202746
0,108426384312984
0,110765095222309
0,108679062905158
0,109604551839856
0,107889701015118
0,109319491063379
0,107389942295765
0,107524168873597
0,108982175209578
0,107465731262133
0,107727254625969
0,107145055260585
0,10372005226521
0,106345301315047
0,104355913499661
0,105562474027158
0,106295533890626
0,103315746873002
0,101814022334345
0,100251504774392
0,102727761031901
0,102681617120763
0,100855163656578
0,0997940906545717
0,0998337632855622
0,103644585707827
0,0990334661041932
0,102409783310381
0,099109950212302
0,0987575202588465
0,0965604626696496
0,0981828899282686
0,0983922058859564
0,0958166441858761
0,095460405571833
0,0980654517942411
0,0954812465734443
0,0970128810186004
0,095411888483
0,094491397676911
0,0951450476532513
0,0943163311810757
0,0948613358497845
0,0924888668775719
0,0933793592685666
0,0962731160581772
0,0943977703045615
0,0949449506897074
0,0934916914145963
0,0944359702393114
0,0936699298639095
0,0941134018585855
0,0880963966611675
0,0902330072463393
0,0910473890831216
0,0906002993972803
0,0889822517363594
0,0902136459419354
0,0917504301467639
0,092132274924011
0,0893602570235334
0,0886255227816364
0,0905085357674953
0,0896883394294087
0,0880902369285385
0,0900486305618803
0,0883187626644988
0,0893411066103427
0,0843149800728677
0,0844066667242217
0,0838833635657566
0,0843647166409334
0,0858971135396173
0,0865482366373783
0,0851049310132114
0,0862946924421635
0,0850501845284073
0,0860400710772713
0,0845341601109399
0,0869730401494978
0,0826823582090838
0,0841995398028076
0,0829792305414247
0,0842980100443852
0,0819504662783002
0,0819201943629885
0,0806984866044117
0,0817135498779679
0,0814699100435666
0,0832657599027158
0,0802065761841229
0,0823984855052113
0,0798624020009489
0,0822564209237811
0,079887420778502
0,0803407640779991
0,0781935470095688
0,0819499159580268
0,0774774442539143
0,0794923374133026
0,0787146219483473
0,0788766971144966
0,0805746233581255
0,0811242030657166
0,0775677493881764
0,0800528351014577
0,0780375157626716
0,0815242806788907
0,0758214559893805
0,0807835193201721
0,0782768059915825
0,0815893185685233
0,0772547021351281
0,0793739829254754
0,0781655266263139
0,0781551247700372
0,0741807545084159
0,0774588105396433
0,0740309417945168
0,080482230465309
0,0756526318993
0,0782092632006413
0,0765805470959944
0,0775685076024351
0,0793095619079392
0,082208789394851
0,0759053962678812
0,0773584564607813
0,0752184569404899
0,0742808674539836
0,0742911031726527
0,0799812984584762
0,0744246217302316
0,0830359724849155
0,0740540422577502
0,0789191304525986
0,0744818469189858
0,0839875003019335
0,0714216882343854
0,0804533821088326
0,0772844701989069
0,0800862187801669
0,0724431917635679
0,0817696881680379
0,0712518294476007
0,0785347944841543
0,0739556760341126
0,0830913533047509
0,0760259178447674
0,0830454852437004
0,0706887277474952
0,0791579355980602
0,0682515225233191
0,0780833701440897
0,0658672184612696
0,0824156026688975
0,0658674718829309
0,087963157494106
0,0634264986184034
0,0832599421926966
0,0664467159810223
0,085910013090199
0,0665803583320435
0,0915899856709739
0,0576929837463666
0,089455757234574
0,0587662930078352
0,0861837708801593
0,0561115523108099
0,0937777756639868
0,0593179134927174
0,092886182652847
0,0584583773910973
0,0906948324754545
0,055089762009617
0,0924936521876332
0,059519253108346
0,0849443338537368
0,0566870469997467
0,0873399255328534
0,0705990497228159
0,0783381512923184
0,0714468144065616
0,0758713663459519
0,0823948034517394
0,0643836970329799
0,0897573874089635
0,0622668726946229
0,0907047322947742
0,0566834994278509
0,0900377451271602
0,0562840533531521
0,0873662883449376
0,0653935502149906
0,0823263554652936
0,0682083172863553
0,077110666531311
0,0710699996649711
0,0751271733180784
0,0710673938888464
0,0750102700322692
0,0732920815859722
0,0751508686748205
0,070880835113651
0,0766146109917377
0,0681235599944978
0,0786173267401443
0,0696023238747304
0,0762108280360925
0,0710262808515104
0,0748073863346877
0,0719630141575111
0,0769942240024271
0,073157410037435
0,0766635534757211
0,0709889656448722
0,0746380046583214
0,0707214736145184
0,0753566073421953
0,0730763814786952
0,0776053283902112
0,0706234314079182
0,0750187086086942
0,0725061698606258
0,0769549307309794
0,0722264428788178
0,0771156756941647
0,0718749077633263
0,0751918890643779
0,0751993266317019
0,0762178555753685
0,0719185900338231
0,0780236492028029
0,0745959001343523
0,0764600993300894
0,0725244935287181
0,0757123170448747
0,0757830777159694
0,0787758065498495
0,0739874490808714
0,0766816627153605
0,0736421886962174
0,0768037211043518
0,0731396908163634
0,0778016588832989
0,0764159523522
0,0784997513683641
0,0757841177560205
0,0796655435872714
0,0738563462414577
0,0798112364926986
0,0761901161652604
0,0785254319081036
0,0750264051233908
0,0774360909559767
0,077280242966237
0,0781623955729544
0,0783297846927774
0,078719957275919
0,0759778135598845
0,0787898804721213
0,077150585310823
0,0798603547464953
0,0761926450742123
0,079656555004358
0,0769156607202056
0,0821345879565346
0,0776641322163403
0,0791054849185808
0,0775221335838006
0,0786938002093181
0,0787449527805051
0,081071209544473
0,0766938718795567
0,0814785596714862
0,0792232023887093
0,081712430701798
0,0777168076573656
0,0796500871613471
0,0790137545204652
0,0825451298962421
0,0800099056496614
0,0813875352943796
0,0787493516167287
0,0809165500343312
0,0789082812527259
0,0814501323518142
0,080936708546084
0,0836391763462391
0,0797435969091515
0,0822345763678277
0,0815146010335607
0,0822988548356836
0,0790767860332852
0,0834907020692329
0,0818008597590306
0,0827144866397907
0,0805731424464448
0,0840067024213937
0,0828729145493381
0,0851237749214456
0,0832142634243963
0,0846157769677988
0,0837813055242046
0,082758010018798
0,0843938962853043
0,0844313150551332
0,082918153578477
0,0845775235475966
0,0802672337925793
0,0862022803326837
0,0854725158139253
0,0845863970928747
0,0825779615546723
0,0874353710276004
0,0832293771247688
0,0859542363425153
0,0840090739366551
0,087891030596774
0,0850670617092709
0,0855706680030991
0,0842526769573927
0,0866589371116963
0,0856489319595633
0,0868266356622537
0,0835328062303494
0,0863853722467041
0,0880047061104759
0,0874551634895917
0,0855568655300021
0,0869547140831949
0,0875642228252273
0,0884666354940008
0,0864825228455815
0,0870290494617665
0,0877030931851475
0,0884412130647569
0,0864153784853852
0,0873728655265208
0,0873842967663856
0,0896542659099918
0,0843120396247087
0,0893230709680579
0,0900430612115599
0,0888676007121567
0,0888405234314616
0,0901425728711283
0,0870819578531555
0,0907388795557956
0,0891962404784862
0,089802783206574
0,0900826477770016
0,0912211878550565
0,090671733991249
0,09141128846294
0,0893798428856438
0,0916184518028156
0,0906043360254551
0,0916316470865813
0,0927894637319437
0,0920537320177359
0,0908714908376452
0,092935203612907
0,092310311724293
0,0929556463497554
0,09206984538676
0,0937960587797003
0,0892421257263712
0,0918778104413954
0,0899904313764757
0,0916578295857467
0,091060564016908
0,0908465891084254
0,0900881566398688
0,0905375092308568
0,0899304431244656
0,0903540433380389
0,0896021601002523
0,0905240422764044
0,0910373990133446
0,093266987519357
0,0895632955826551
0,0906002822468192
0,0899046646357853
0,0888386311603949
0,0864324197621771
0,0911518567996682
0,0898130749250487
0,0891588472198405
0,0887536009010334
0,0887367269837979
0,0895681765339993
0,0889478472828228
0,0872687292516556
0,0867729387999099
0,0872236196267182
0,0887096710321742
0,0896437755472329
0,0892245898812041
0,0879826084064951
0,0896273512511688
0,0890506213403304
0,0900673931422673
0,0881566981103016
0,0875210349963839
0,0853499587523394
0,0876208820704391
0,086984376351455
0,0877382389972285
0,0869465266185751
0,0885022607011624
0,0876045637059998
0,0874233132255703
0,086717393263536
0,0868573621000507
0,0872630592639835
0,0868582996037882
0,0864113582667043
0,0897589185884109
0,0861168216635699
0,0863560305035401
0,0860313414744546
0,0862675947548996
0,087134029585273
0,0890328322043136
0,0857541724061382
0,0867105777617226
0,0862580932835113
0,090207334058385
0,0851499593573624
0,0864331859892672
0,0839087130673083
0,0851781025438847
0,0854601625618505
0,0847224822779916
0,0834428223946425
0,0859916207537615
0,0826524978060457
0,0854688193465534
0,0844155366779542
0,086103396654276
0,0851103295154585
0,0858575157481781
0,0840450355868053
0,083516791307422
0,0827586639809361
0,0866605311097317
0,082285587301519
0,0859838455232326
0,0838175234141955
0,083818582471012
0,0829229732504679
0,0842646679144803
0,0821480310592416
0,0830477336346302
0,0808523138036483
0,0836413705218738
0,0837185522109292
0,0828012825444653
0,0826747272660113
0,0800065435465292
0,0811873750771598
0,0822450972260226
0,0807459397522959
0,0858011502992992
0,0821712368364854
0,0815677971186917
0,0801778996938358
0,0812447442752854
0,0834872027263072
0,0827797336976718
0,0789052339668955
0,0832883867747835
0,0802042783644941
0,0804581333338994
0,0800507104808573
0,0804046108704002
0,0799880170245378
0,0817741155761017
0,0812117446702148
0,0800234990606845
0,0812179152753035
0,0805836375997156
0,0788343121843359
0,0787977725906525
0,0782421141525233
0,079088353626757
0,077825191987207
0,0789896369625817
0,078234020348178
0,0770900152713194
0,0779279058945551
0,0784749194369518
0,0785149556917073
0,0785318533493732
0,0762110332171794
0,0773231857182025
0,0749814640754453
0,0753220974127414
0,0731848816501315
0,0752728571690218
0,0757221779105028
0,0749500620679983
0,070850395240801
0,0762284067308054
0,0709410021323139
0,0751234075156324
0,0702664164773926
0,0775436957752864
0,0712869267082717
0,0713638551509508
0,0711993667472689
0,0729815789517631
0,0687162748020991
0,0722831820154354
0,0694895367546993
0,0700680344854985
0,0706661881418537
0,0690402278305803
0,0695169835160948
0,0706967924999606
0,0676280302873525
0,069445985954886
0,0703088260769245
0,0698788520716648
0,0700995390454442
0,070409345780755
0,0679041289260993
0,0666976962320466
0,0671562018722493
0,0694772483160024
0,0665638185592732
0,0650832034169995
0,0658058540755408
0,0690989475681252
0,0711516235031027
0,0641228910976036
0,0662321012690489
0,0648387700784108
0,0679374523174364
0,0646897827676996
0,0646010925046153
0,0640470709822879
0,0669125368102602
0,0659804019460172
0,0666537020780413
0,0645136765468611
0,0642895064958366
0,064731178404846
0,0648496483548098
0,0662646585084411
0,06656018978694
0,0636852338988402
0,0646881689512054
0,064514694252736
0,0650088912655449
0,0644557939423928
0,0637589341954208
0,0646259367729611
0,0647981746170208
0,0642538240343303
0,0656876003019492
0,0658943306450785
0,0636903152863236
0,061856159172961
0,0647659639157207
0,0618630850803724
0,0612833683406164
0,063836093852645
0,0617677983053408
0,0601879040531675
0,0593586999168929
0,0634151734558319
0,0623309605954537
0,0613245355295362
0,0632469785082762
0,0601861203495262
0,0597025283939714
0,0597879311288994
0,0605477382146649
0,0594728268600158
0,0628208269312575
0,0612802134715407
0,0623437421776783
0,0604892525825124
0,0575681360897689
0,0613205357393577
0,0581558366268679
0,0665729164850819
0,054297938356612
0,0613117677448559
0,0580170545103131
0,0600180637575256
0,0560071440452265
0,0608008931476303
0,0572599368126295
0,0593148024940261
0,0582716972832942
0,0591762125487572
0,0578924327509004
0,0611347467094138
0,0573225576414634
0,0595284777450576
0,0569531410287902
0,0611557867744483
0,0570018377079286
0,0579748689541501
0,0558425744648424
0,0594284897341757
0,0609221577031059
0,0629290453655077
0,0550774683490938
0,0595244990879354
0,0507059335220417
0,0661685897482111
0,0557183997844005
0,0599944265087426
0,0603102982596919
0,0596923913778388
0,0581229241661698
0,0564511005035598
0,0565728009022191
0,0570677086055208
0,0602289461361448
0,0545014563428372
0,0598728588741448
0,0552360388802523
0,0581036989891056
0,0563621467142898
0,0570063727130557
0,0572442802071829
0,0555693655277469
0,0573395740253346
0,0567312938947305
0,0570047618204892
0,0558787440110597
0,057943343551641
0,0573741474196169
0,0554814719776469
0,0584577890924895
0,056613514816971
0,0556821045379572
0,0545465951249144
0,0582634857744191
0,0536616314948255
0,0628365660327805
0,0557280957263777
0,057031170207465
0,0534060813328734
0,0571469080020957
0,0569948278568243
0,0566795795384076
0,0553277865921391
0,0584490730963376
0,0555908902578019
0,0581167020595971
0,0568311539232141
0,0566153879078327
0,0557431379831567
0,0533391030860784
0,0569309510640098
0,0546449008433542
0,0576811545918965
0,051888817692886
0,0558056228548417
0,0532960193639599
0,0588479462280143
0,05969315755582
0,0578775082147062
0,0603939338720081
0,054124326801931
0,0560487289911869
0,055202643747052
0,0594796661544241
0,0550096392013572
0,0594624127049662
0,0568182698178053
0,061518748804502
0,0527409510763957
0,0588644472877947
0,0545064746631041
0,058297668526999
0,0562392249226502
0,0582988854482557
0,0527096596619994
0,0599983076233064
0,0529697684598185
0,0628913511411523
0,0517809124151939
0,0651915719561373
0,0521933371248237
0,0589680577572273
0,0514149534096813
0,062770797452442
0,0654302544638008
0,0540569722868252
0,06122609344745
0,0551679417740351
0,0605196879006996
0,0547938137876793
0,0579971903241273
0,0586996915140873
0,0595105120600505
0,0565892984560128
0,0619893998107956
0,0546389187809822
0,0553562678437797
0,0570083369279122
0,0587290200128274
0,0639464538236403
0,0611134809937403
0,0559115168636433
0,0605603825001462
0,0571307976036182
0,0673524241891963
0,0545801182973084
0,0633242592066668
0,0584259256712139
0,0630150009959201
0,0585753847580247
0,0596333997429304
0,0596954667507692
0,0606404323585985
0,0623137360085741
0,05965080796198
0,0619486846786481
0,0554701946114485
0,0626666437382564
0,0603930419618818
0,0579145200769595
0,0630737585966426
0,0579196755771964
0,0637225262561619
0,0624064939518712
0,0614444364260483
0,0636548348243171
0,0606608662827767
0,0642243428384245
0,0642457177340707
0,0655752279931092
0,0642405389621037
0,0651702197435628
0,0668578900495894
0,0602383124601204
0,0699133268740789
0,0646467847851233
0,0628237888097875
0,0646529069088089
0,0572305136603673
0,0807328498955362
0,0577307819788412
0,0747745160460076
0,0574112403258417
0,0737928946182079
0,0603867912286391
0,0739879177701023
0,0557909917213401
0,0769606267435898
0,0622797523764183
0,071751238351685
0,0650416031239295
0,0704187482903707
0,0704450524761946
0,0679139790197744
0,0685253887848956
0,0694979723859323
0,0700229795677677
0,0704514007223553
0,0722785858892468
0,0597314210571119
0,0861593619676395
0,0731087169470833
0,0716243169245361
0,0779524428553198
0,0649400932191783
0,0818892221402719
0,0685497191387047
0,079621076778
0,0731676760554158
0,072929625147796
0,075675875176474
0,0734921210337543
0,0852289406215735
0,0797338420815259
0,072602010720932
0,0806922144797713
0,0710596505325998
0,0876573720226426
0,0774802621260527
0,0847452109200355
0,0761466363984921
0,0824859681817171
0,0682826775375671
0,0933380609983794
0,0886753414647095
0,0767548618580194
0,0974250377335274
0,0836235475556073
0,093227626860781
0,083878793199952
0,091377685374391
0,0878299117574521
0,0945857384726311
0,0856500184954764
0,0950602896083061
0,0871629510033582
0,108038983275227
0,0902984687902534
0,102104620777093
0,0881063136087031
0,0997604000613389
0,107141959442715
0,116907050559332
0,101298902486948
0,111305011143935
0,10234695238502
0,118317731293778
0,106411111067341
0,111055592755179
0,113689067855698
0,114764286474358
0,114530830838697
0,11550014217914
0,118824030272482
0,120213180438883
0,119480315115143
0,123206526893429
0,115122558683489
0,146392085340465
0,121283961634794
0,146346968588429
0,119598555191645
0,146977218894336
0,136484125143649
0,13785428140465
0,140125458696021
0,142096897942002
0,143378914893439
0,140890113042524
0,146646799405831
0,148557341315958
0,153777676467471
0,164651446350587
0,151285441836475
0,173305481561308
0,146597600304344
0,186330463184674
0,121442059948246
0,208413920753835
0,173657398592294
0,181346916753964
0,17814023857636
0,198976061735291
0,20622960590155
0,201250308193955
0,204970355151304
0,211210544020504
0,211509639201898
0,220858644197146
0,224908657369982
0,237233899662845
0,233526115919786
0,235506392282346
0,22483069539126
0,270715262409647
0,283077637189629
0,271864362592135
0,271601750153426
0,279241179479026
0,291356274903038
0,292181633960646
0,298978072801914
0,304147532654958
0,307390414714491
0,317009574984951
0,343039107077658
0,320637023353844
0,353549434429552
0,336032351821763
0,368804057868878
0,341645670499465
0,386402619476192
0,375625088797651
0,377926670857961
0,397573619785449
0,3882459507396
0,398378518015677
0,404431807134328
0,426832442277598
0,416849915606516
0,419661078337961
0,430419932984843
0,426552507195952
0,444118995829365
0,438966740606649
0,450707490101227
0,432165348880104
0,461440301861812
0,481013386346926
0,485585866201844
0,460531662807642
0,458346764354599
0,470182405559785
0,467087255371382
0,484993262046086
0,477977226241872
0,485373285460985
0,480504771027499
0,477349370162727
0,487232129778926
0,478009175638115
0,487654765069896
0,472755767486109
0,48335553519926
0,471409122359243
0,488202411097777
0,482737024196312
0,502945176309241
0,495471245032396
0,465177695251825
0,479680931885326
0,474661605998233
0,479456165337032
0,472427126045143
0,478242989634981
0,47814323870992
0,474397191490936
0,456346322358641
0,462533677327195
0,454161282103048
0,46814067529075
0,460934388932202
0,446637773638733
0,448970449502664
0,446533354973368
0,431591855846011
0,435149473253349
0,440271921157269
0,446883076899425
0,413866460091064
0,42420525413033
0,410788103354296
0,417725777846793
0,411064320488829
0,408746786608747
0,406661425111348
0,401556573140908
0,391570043147284
0,403065798349802
0,386420167393567
0,395477897033158
0,386347440372776
0,387024848816137
0,392322743060329
0,388941622854067
0,385151058665961
0,388048311352654
0,385193265328458
0,387570027158858
0,374898371653446
0,382098742987911
0,382893297294235
0,381403065584466
0,373240921140191
0,37737041001538
0,376118425861693
0,37271760773663
0,367794987855312
0,372438382644419
0,368865525219558
0,368817488690808
0,363621525876205
0,362354142712798
0,362328525646492
0,364801358063782
0,361655081785877
0,358557208660077
0,359533022183412
0,352752251892248
0,35609688382373
0,343130035409333
0,373287090015444
0,352265379139604
0,341216056256511
0,348431901531477
0,333293996984761
0,340989821234721
0,33716902942775
0,350436624458239
0,339742452167518
0,329387013703749
0,324152992161236
0,333133303735034
0,324856349518888
0,327959805956224
0,309930541053556
0,311815741215583
0,273571928082469
0,342963118258664
0,325127422836429
0,321947938322311
0,316991086295561
0,29808007973474
0,302799893455273
0,305443890656111
0,310335136913842
0,286902862946867
0,296165759211759
0,291423158325385
0,299714159340093
0,28867139836641
0,281657668472378
0,279907248102317
0,279770197564793
0,284656043504087
0,276253710366673
0,269596478304645
0,273103927743181
0,28061018574639
0,248659788743087
0,311216144716583
0,275985012020448
0,269690313743698
0,259555429238461
0,252182326652278
0,260539869922302
0,259674011179807
0,262544398297773
0,248902892017842
0,249305678660011
0,245849468514702
0,243802596567282
0,253960103689049
0,232673342942568
0,253803248161424
0,228636663247164
0,248476793452547
0,215897399653415
0,247860307086829
0,234074179131747
0,251813982218882
0,234350094989749
0,226328595229724
0,235651124228066
0,237034058740403
0,240109239145552
0,226399122541341
0,224549484712973
0,231024204909535
0,219647679026636
0,22834758343509
0,215381597878316
0,22242427957362
0,228245804244605
0,216148495715914
0,231980825875315
0,24419485692679
0,226807352058482
0,219185296205378
0,212053871235634
0,229354057004489
0,214314282622382
0,221512039039822
0,212675624499997
0,221880176720449
0,227353322297675
0,220154567219673
0,237272523323977
0,228401287299859
0,231875096704992
0,236034189024365
0,231319143486657
0,243280283253202
0,250963295456393
0,246170178845304
0,244791496120587
0,24747220271203
0,260579389499205
0,251358388826666
0,2613385479617
0,260299586064164
0,268996036883701
0,271299794056938
0,276854731032081
0,279918535493945
0,289870127071381
0,284652395527108
0,298825242400776
0,297858600819249
0,318630813500555
0,290752034693289
0,341069251010115
0,32741272404145
0,340896849523183
0,337943286046971
0,345785998861741
0,349037015460549
0,350944359645755
0,354340953260753
0,361759897764524
0,369247265727097
0,378744232498068
0,367416066936416
0,384395664413065
0,377778127039286
0,388090546389111
0,375932062158222
0,409850124967912
0,408829088936437
0,418837708263695
0,411585945250323
0,400610262545329
0,410746265219229
0,399113926132793
0,412814956140862
0,413084149796434
0,411107823625462
0,417001659095529
0,41841409710376
0,425295115416412
0,419131611056153
0,419451171690258
0,42345917529502
0,424960993106031
0,43295235577775
0,433209483269701
0,436580670773794
0,440364896510857
0,435188783672497
0,441207668326212
0,453024791501881
0,463371625894299
0,451232143178849
0,457611357629531
0,460981815491317
0,45936025694423
0,460972528329215
0,466265580729147
0,485140238065759
0,472660567498299
0,480089103082733
0,485171345959606
0,475633468618353
0,487433628371516
0,488322723771938
0,501052147688349
0,486227211894194
0,489743889779393
0,489656517957153
0,514418831005134
0,506173679781311
0,506813030178774
0,51558907377194
0,505365258675673
0,513921446543293
0,506832716482509
0,516246594847508
0,514733904277263
0,521640326933201
0,517555846810679
0,512915439917056
0,511055077528977
0,511244711015071
0,517986852435285
0,51728115985729
0,523311365517988
0,503058821446173
0,51016383163859
0,502650483893086
0,49790805136612
0,511449137218134
0,518591548976395
0,509138533031645
0,505346500684271
0,501845160210544
0,510492791778673
0,518525968783709
0,507090019019596
0,509911148841815
0,513890544035459
0,506608801648965
0,505790302088207
0,512747276527423
0,521367981530873
0,526164032594353
0,519946942250632
0,522461095925909
0,525040900264548
0,535605116113821
0,532555203492784
0,536033644006737
0,532484042838176
0,550008288887591
0,541558442711104
0,546807350273297
0,547280976907667
0,54856591558953
0,546531991114761
0,558197648641076
0,542871567015792
0,546903634785436
0,547054492063285
0,545364431960609
0,542682498725981
0,539606924650989
0,537191099347653
0,537600262453219
0,522535708501572
0,532482613278538
0,522510301516369
0,519312030813582
0,510487114393511
0,518503948275979
0,50322982164602
0,506598098312498
0,503596957505338
0,502056391071946
0,497753341175196
0,492172348838252
0,494789946014754
0,493648328562621
0,485881025729938
0,482872924435362
0,486496448637688
0,486553916273074
0,479256421759529
0,48165941631547
0,478813519687766
0,481968120813606
0,476099325476875
0,481734095587119
0,477667344615973
0,480718048736792
0,475046053483471
0,473507755027362
0,477432974763807
0,479904050173985
0,478610114143724
0,473929844078565
0,472227557076981
0,477055167774928
0,477636688685152
0,476102089895246
0,475278316601723
0,472774790031244
0,477417711596146
0,477271469960405
0,472603725973754
0,470533968298018
0,47881452571522
0,470208214918965
0,470095394053817
0,467180426365457
0,467643301937982
0,466972285095051
0,467834406290256
0,464709506023289
0,465244660245235
0,470505762510066
0,462407034297244
0,474629797299807
0,463906507153568
0,465234249057776
0,469094536963679
0,466931759286373
0,46614322484603
0,470285032491603
0,469124252193224
0,465399859105706
0,464501586605638
0,461448173167064
0,459795504922423
0,459481175314893
0,457562266120199
0,459592297840178
0,452249902013052
0,445964782593548
0,448035891676928
0,439716410618835
0,440715000996759
0,438073660169159
0,430419457016214
0,430615859737276
0,428721533474016
0,423504653720064
0,419259575715681
0,416904554452365
0,413887169197963
0,41555051341754
0,41227324586982
0,411755805561513
0,407136984241597
0,407429515565475
0,406179237915459
0,407119845650272
0,405143702349597
0,406901662437209
0,404501408448349
0,405092087184065
0,405211016337039
0,407814844967895
0,404242186654344
0,406428420075743
0,407666659890432
0,409199719498842
0,410248517666071
0,411864047759744
0,411754037696897
0,414268881953667
0,414902170811222
0,417818420421488
0,415782206526526
0,420883747553165
0,423407758272863
0,420775033103218
0,423323516450933
0,425950651966402
0,426472115628534
0,428459290348292
0,428652827805936
0,430584986072398
0,428278788540594
0,428621436593319
0,429918582999707
0,425335759636484
0,430696924129751
0,427097562559222
0,424314112101879
0,424090651768668
0,424676306292048
0,422923870606275
0,422706875715739
0,421349357546344
0,419015080995799
0,41824945789915
0,419331405380691
0,417146840846425
0,415881528559616
0,413996730366431
0,410085059472309
0,411661170791343
0,408429669367052
0,406447962193936
0,403805847895582
0,405085301110629
0,401354105778607
0,400851448866382
0,396312994368094
0,398467594790725
0,397550444339155
0,393506205892459
0,395016602309465
0,392633407846883
0,392262687712129
0,392440827029458
0,391345914655947
0,386839777425334
0,387784829221446
0,384955672586154
0,383843189125141
0,385091417891377
0,382867580542335
0,380987725026782
0,37752336284942
0,374084090524583
0,374440203482254
0,370321770771134
0,367791328513985
0,366331250070904
0,36493058622264
0,360354825635564
0,358352765484897
0,352129047637297
0,354768875313969
0,34941470823454
0,350188039346672
0,346437550859683
0,34555801315498
0,344520816048284
0,343718902403296
0,344461283588119
0,345261606646347
0,341031076234324
0,344972164265706
0,341613488527782
0,338589405638517
0,33707780269818
0,3319556707134
0,330547618230556
0,328216978411336
0,323672498156667
0,320053216363436
0,315622699769357
0,310978505550958
0,304642251625408
0,302184436968293
0,29996489960216
0,299355111556074
0,296773274758047
0,295621374865082
0,298890859892672
0,297523313739914
0,30294873866763
0,305425434631228
0,314137430299191
0,319446146609007
0,327933294448563
0,335910177701115
0,345595487014707
0,359565136103504
0,367965562151901
0,38274889907658
0,398088603408573
0,41238385834758
0,423184158671612
0,439083205959812
0,453479255848042
0,465502052340934
0,486741833673347
0,499307831374818
0,513952979879237
0,527341435646039
0,54376733989018
0,558190638974798
0,569584182757776
0,583436889579811
0,59910587194996
0,616618709433187
0,620350004612995
0,634419241173667
0,643367480433458
0,654284692335568
0,661517354760112
0,667719756431698
0,676963394344478
0,676342455181701
0,689868210257404
0,693671657819711
0,693087473634591
0,695202175694394
0,693920609560059
0,690736735472249
0,693276868935265
0,696577419113747
0,696425433004116
0,693956101593905
0,695944590881314
0,688468982896349
0,692544087777564
0,698128964652389
0,695349027658417
0,693443934702896
0,704657016673469
0,70044427191613
0,706638730216614
0,715706492771938
0,71022880783664
0,719776627117636
0,729657990293662
0,732848793975821
0,737505250198594
0,745363022470575
0,753401561552812
0,769549757252179
0,782988700757912
0,788565493892421
0,802860454384779
0,812615473864704
0,825216646670252
0,833534758833579
0,84856200273496
0,847321017812097
0,856542125778877
0,863112156090835
0,869048314830306
0,870732770490936
0,869753870853324
0,863827994427346
0,863370020966341
0,855209523232149
0,861185210871501
0,850466935538535
0,848121682050159
0,841686967960121
0,844647358642788
0,848702376920044
0,85341761227831
0,860228293882398
0,866329695689735
0,869492076791297
0,881239038334382
0,891917137500182
0,899296344247591
0,923815014601596
0,922709591122788
0,940360813954709
0,960898364798801
0,960498448038902
0,991059283613322
0,988639538479164
1,00629585339614
1,02237112895679
1,0304641948703
1,03985481647534
1,06869115906686
1,06660677634568
1,08717047409506
1,09549150477757
1,13636169020885
1,16183295874992
1,15704347306839
1,18612203713341
1,20780995783337
1,22687144979412
1,2587179578838
1,28203422367199
1,28467610647176
1,30397486217162
1,34189307797939
1,32469596722414
1,37765054154304
1,39133514340367
1,37418783650449
1,3939470623142
1,38858660830481
1,38363868402764
1,44751271560714
1,42641825015478
1,43242346971792
1,41325573986709
1,42079818250312
1,40329703323737
1,37449451612136
1,40400246545108
1,41383088433371
1,3787365738679
1,38003254602458
1,37144314016361
1,43158071548119
1,37836185098246
1,41000152506431
1,41201643755152
1,41433852769941
1,40648996861511
1,44960511641046
1,45222781518405
1,51457898947497
1,45569889565809
1,5703315932781
1,51712874102537
1,55558356532315
1,52069619235066
1,56071976947084
1,60939435598692
1,6134281512554
1,65008425919995
1,68936072060021
1,60183631466106
1,59954007872905
1,62501088253549
1,74816937017543
1,62144853658589
1,69638119754632
1,75436543239754
1,78760719817722
1,72873438716573
1,86178468363211
1,73346682719307
1,79250451431687
1,78229659804285
1,77336506741237
1,78040693400646
1,83738141120704
1,80881930527356
1,82634325171802
1,76339049377729
1,79980583610851
1,85150826250783
1,9581084538876
1,86113605065772
1,81277196998197
1,68774405770334
1,92314448654067
1,75715085259958
1,76753221518323
1,68971886066746
1,71837840562317
1,62688856205732
1,67107356711173
1,4914708269557
1,51054745882791
1,43372889297562
1,47810136015058
1,35671964367973
1,34287503346381
1,31137738632448
1,28046455288703
1,28398509401739
1,29281833975266
1,25187322917977
1,2795960586247
1,21512586958765
1,23842332358025
1,19296740440459
1,21185622233775
1,20213296550584
1,19259674978266
1,15895300079719
1,16326610167626
1,13778995527333
1,12348995637154
1,1002314390193
1,06916798752153
1,05690472492013
1,02552314241158
0,98934839074337
0,984446609103341
0,941170775709022
0,90385039819694
0,866020354225763
0,856429466549538
0,813210133465449
0,783230354216473
0,743593318387846
0,715291782119934
0,6800688312966
0,646810100305634
0,617475435865681
0,594787784255015
0,565596429133946
0,545085220413509
0,523332122970957
0,510731092929574
0,490109765517102
0,477456672771687
0,460871178888368
0,450985103138295
0,43708131404068
0,436732026852536
0,420458545670146
0,414025707766223
0,41278698940945
0,409191591787403
0,402131732926708
0,401952923387457
0,396495427741373
0,40465452196268
0,398469766900736
0,400690880396619
0,39698483806718
0,40143655656313
0,405754388331447
0,411435128968103
0,406159665205817
0,410841902802662
0,415412381831539
0,413000847772842
0,410738360849063
0,416622259123854
0,411427828523873
0,412507024630423
0,41318950351277
0,410166408171747
0,40253871623638
0,396269238700204
0,398220672635363
0,39720652145081
0,395223136366654
0,389079633251339
0,394191181365976
0,396237016939679
0,394533466029181
0,393703403597301
0,396460682477942
0,398020752382369
0,399175162440786
0,403450552138169
0,406993676608103
0,40731109890721
0,415296987235338
0,414853712240601
0,412755437574216
0,427214850924396
0,426154623565421
0,424986492063359
0,418488765764527
0,427061824375512
0,429480714652732
0,432815454111205
0,432801695927562
0,426368303979501
0,428922399849761
0,433483560980869
0,432106094731781
0,431742002451166
0,438603305636354
0,441632200882019
0,436102305990442
0,448809568653807
0,447106216421322
0,446629423831912
0,455455934493904
0,464109434517315
0,472014094006699
0,483335209136472
0,48919949748154
0,507493395669632
0,522265060164329
0,535335649763975
0,541630133660005
0,559026221801922
0,566658977949955
0,57510261201615
0,565272779146072
0,581080582794573
0,568767883753234
0,566843457088225
0,551805227186275
0,557154999252502
0,544723146027861
0,54334722717309
0,530701427646468
0,522829767281194
0,528078248000944
0,528933209580132
0,515279290908498
0,528129653419455
0,524215314078564
0,526514965869384
0,52323210785658
0,530118512767692
0,536515313936348
0,524706966092575
0,528417613897751
0,518355669136018
0,519807702922929
0,514776886398411
0,508251205733943
0,515487843443191
0,49752899951504
0,512632248216285
0,496165090321333
0,49958062838538
0,492399105900445
0,49086663060923
0,497483531956636
0,48536938378083
0,483208199705796
0,491205176060435
0,486567503700779
0,490923914412636
0,486954423282589
0,493328506025464
0,485617347594362
0,479335224805841
0,47596812571409
0,489042130019979
0,470986698867632
0,476423962031289
0,475666524285112
0,479566632034359
0,471794214579017
0,487400236664914
0,469252133952495
0,472101473294823
0,473120535747995
0,486536208382687
0,471403425979265
0,479904174404875
0,457783343888778
0,475531355222034
0,473087577184675
0,46614142854281
0,466810592062288
0,4582718586064
0,459813483242029
0,469606630422873
0,455323448850239
0,460777049272123
0,456038365806476
0,462518114007215
0,463856116937043
0,468417257143212
0,460200435843458
0,46517231359456
0,45858975349878
0,479131471024109
0,46361161879934
0,465218832369821
0,471677074164128
0,488785485283927
0,488449695881136
0,476871402020217
0,471522901191313
0,49018704444435
0,480821519489719
0,494317541476561
0,487406709710093
0,50073983612019
0,513224555231779
0,497935046820758
0,503339767380559
0,520586034186679
0,509933385758734
0,519184103313037
0,529623802075363
0,522428837655344
0,510341210436825
0,522386056427341
0,516902428829112
0,543805135923488
0,530532827530619
0,581361498559615
0,542518996115929
0,566014580087293
0,561977478877345
0,597127851218679
0,60293412144011
0,619361043919094
0,598236024974441
0,652560671444959
0,638166813138605
0,678599422305468
0,661776254965029
0,730436777712345
0,688904611431007
0,721704229763801
0,746751423966522
0,766992369157723
0,721740538512781
0,804103110854443
0,754657251122919
0,720503178157463
0,745685258500013
0,775939358680165
0,712233856701535
0,780103079240546
0,723718181723437
0,768553724745997
0,721265872159372
0,729772170766771
0,697004943563656
0,781745358806411
0,714192700773033
0,751657141329156
0,769785376453811
0,772852632014955
0,769059982013743
0,787591625047438
0,777809913402368
0,745810888644964
0,709569648061653
0,790177157983122
0,731651573375481
0,738192253043794
0,713239818527105
0,771543256473558
0,667658807985036
0,733112117122455
0,679598562006654
0,749335744089982
0,753596879521539
0,747790691215678
0,702556200722278
0,729806937046769
0,689116812664399
0,756296256246851
0,717222890389602
0,759680233609617
0,719379757716605
0,757506270768626
0,699369786152657
0,742420190887546
0,662059295094885
0,789752708434459
0,678501496734822
0,735653279548209
0,689491591181642
0,791148255952714
0,746916446636821
0,727330496162991
0,731799986449077
0,777250893874648
0,732384875419971
0,754765370221968
0,69496659645695
0,738568843492405
0,720113825336351
0,758850101365435
0,796250148012665
0,81280310814352
0,750666778350415
0,912877265210854
0,748343035646666
0,717412322266976
0,803491010563572
0,807964311893969
0,747122783239919
0,819055337286862
0,776544604708038
0,858514682483192
0,818862172070258
0,922901011606769
0,885300835016457
0,868861699934591
0,874047900968531
1,05890056887287
0,923846913453864
1,02039964625893
0,8960233585508
0,934474734377865
0,983636195972597
1,09228694070054
0,864996528427943
0,874588695336883
0,886557783544373
0,99415795321504
0,845351636973821
1,10934557329564
0,82467775301382
1,08606748364139
0,886651315113802
1,05230234222038
0,995080516319493
0,895687716619889
0,922725595501445
1,26548141818605
0,820818842396848
1,06468012642729
0,985479032856601
1,02721894243722
0,731176920262313
1,09452178006099
0,749531607354217
0,978046351313339
0,728976253092108
1,13619601439457
0,741720973641348
0,852463349980335
0,773412322454086
1,1440968338733
0,930159853146927
1,27408784606842
0,818673308535801
1,30752169164237
0,928512317185266
1,1590328995745
0,911629342335557
5
0,720569882911423
1,01938764074015
0,784638614331167
0,956764272065006
0,455733936672052
1,16101349689184
0,931532818164948
0,891802977148856
0,853115789346494
1,61922336466505
1,4550767745186
1,88101941824295
0,490925351389283
1,29572199013172
5
1,76220490728155
1,04723276937765
0,730068911783427
0,950584764313712
5
0,656710644220905
5
0,478173270059819
5
0,467839168671983
5
