3596
4000,36533379555
650,420452594757
1
2
2
0,024635489434739
0,0395355310727704
0,0252016907905594
0,0379320250097462
0,0258912871962597
0,044705421195276
0,0267243263840129
0,0400627875665249
0,0146785432650861
0,0374465536058857
0,0304447309124868
0,0423746638463687
0,027163136471661
0,0370642127189805
0,0297242439656518
0,0386614484257466
0,023199032111591
0,0360609188214593
0,030191063093519
0,0343601682666909
0,0234153318084855
0,0443077580713379
0,025581412154232
0,0298225015798416
0,0237313068740311
0,0335984141410912
0,0195477653505479
0,0387123816951102
0,0290813468584584
0,0407920967492311
0,021193129362277
0,0365880831470081
0,0266474786978843
0,0374343653446704
0,0224860006425819
0,0413338266485375
0,0233546581006187
0,0359213502428097
0,0297304268317586
0,0316661718862867
0,0268767089444153
0,043176218610799
0,0225230113179102
0,0328927739497791
0,0240954275908137
0,0390055864223519
0,0267339333231479
0,0312041776361089
0,0195982613987008
0,0374618333440113
0,025976348831252
0,0321418329112989
0,0222110949388812
0,0500123502525862
0,0196389872961241
0,042985430465319
0,0275428711770032
0,0352490723484035
0,0220953232883136
0,0369630045524018
0,0205422107182571
0,0524208394064731
0,0302166654407485
0,040806557366856
0,0240660574157494
0,0429906750193197
0,0183214471094937
0,0307805988299835
0,0265099089974599
0,0434257377191951
0,0201976159339943
0,0309508615582663
0,0291474918310493
0,0360943952940619
0,0259315276940996
0,0382802567377628
0,02597881636903
0,0338112054825537
0,0165824501796634
0,0414410455178141
0,0306565042074982
0,0358913714313597
0,019866180075038
0,0267842353735341
0,0175597548205546
0,0513312009202762
0,0230280862286875
0,0292801978511592
0,0309250949947686
0,0461950066384571
0,0301284281257964
0,028865003374493
0,0230285989423277
0,032782155394703
0,0232453275836615
0,0289270802206922
0,0245914935400328
0,0313706527101923
0,0224611245453443
0,0210121234724349
0,0297894528154799
0,0283955376728782
0,0471585482514534
0,0221811160398561
0,0140337437154652
0,0587801173472219
0,00094634731562604
0,062649434118948
0,0307195856273692
0,0395425024097036
0,021381083110531
0,0356025373879468
0,0186482846149417
0,0343385608981166
0,010559957642306
0,0243475212753494
0,0477344726686216
0,0410193914520979
0,0234255749016937
0,037591511299505
0,00778965667672335
0,0229725179461045
0,0515533185073286
0,0327026453979224
0,0319664000515895
0,0284087685557632
0,00129521720615205
0,0387810928566964
0,0516527786532229
0,0352846758425116
0,0278606477820411
0,0298143586639871
0,0187368741962873
0,00825962666432727
0,0405669722173689
0,0393423326359665
0,0165570741706656
0,018850505192299
-0,00638128501907061
0,0620017548682706
0,0366103785506128
0,0358944733535641
0,0173763160488242
0,0158645424201442
0,040950110822332
0,0485169958392446
0,0122743033244841
0,0286703876269745
0,0368910938445271
0,0267542801062226
0,0233371914207577
0,0243598690455852
0,0169383970309257
0,0321581791929166
-0,0138316308472103
-0,00237985210980445
0,0621206149293146
0,0197804437845368
0,0659340534813495
0,0455835303424773
0,0212987019574284
0,0384995498470844
0,0270159289117671
0,0265722819746192
0,0140563467883436
0,0291290435436046
0,00994473570324917
0,0489568085695831
0,0125282844038715
0,0312326888533031
0,031283190034365
0,0446919030269744
-0,0120932265073141
0,057202018943236
0,0442749330427577
0,0155422802364227
0,040051021319655
0,0428322142763697
0,0151371035455731
0,0148153234470509
0,0414585904528714
0,0303185566732855
0,0219076301225558
0,0228557808164072
0,0139134681185575
0,0363214764664484
0,0234549028714088
0,0285349703512502
0,0234424303466646
0,00714034511615193
0,000843498763637713
0,0465745655309537
0,0512762223275915
0,0386714358905918
0,0191656266403586
0,00606847627461
0,0109582583958429
0,0637406029458601
0,0267398288669662
0,0350181646918111
0,0167479788128857
0,0236934066192101
0,0246228432876483
0,0293858355936169
0,0158713628125643
0,00362328833212759
0,0320609940961371
0,0489126772653498
0,0255683246624256
0,0321892982335308
0,00540233235281411
0,0108566093044698
0,0315699111138223
0,0594780871716651
0,0168157245093144
0,0309093172912025
0,0111411221454623
0,0344278292431347
0,0383335219401516
0,0376695785060379
0,0236455162156533
0,0351130518359894
0,0234982118750069
0,0319946412475699
0,0219855871841085
0,0345070396587574
0,0194971792234551
0,0290067287873827
0,0166832455593518
0,0266675542066933
0,0219728292857964
0,0368793176258432
0,0229888876799873
0,0285383918476022
0,01201448600707
0,0281701826615255
0,0406796330638174
0,0337775780424141
0,0284244559187856
0,0348805988918493
0,0210055046555975
0,0307869493801197
0,0253240030650158
0,0290799766638336
0,0225342926344783
0,013748401509553
0,0398940511184643
0,0469325827082853
0,0223437682823043
0,0282330279998045
0,0101343473556764
0,0500396102805508
0,0135058581517829
0,0381653639727516
0,0180235300478198
0,0348928586258104
0,00461838011123613
0,0559694667014097
0,0237210920462109
0,0284449879814476
0,0222539508730839
0,0493258156882033
0,0138390485423756
0,027491903623036
-0,013797472484611
0,0750143294512525
0,0353391757951778
-0,00570172039638954
0,050635408104748
0,0596040920451641
0,0207763985979364
0,0328331839650094
-0,0481695542637217
0,07691150895863
0,0820700338911426
0,0441586585118007
0,00839100195297681
0,0402752464852705
0,0260659677903308
0,0280413289970553
0,0257086954661273
0,0135274787800202
0,0316749059665335
0,0300097702083341
0,0526653834793948
0,0334469712619978
0,00715590242134032
0,0649557353645585
0,0261574934585634
0,0435576874987127
0,0199063323994204
0,0357996103709413
0,0180660532053037
0,0496485872419644
0,0234777820264675
0,0500944667624215
0,0145727898106493
0,0500782426648508
0,0336520604720393
0,0392971764281561
0,0198805010154197
0,0461591735590388
0,0293520186698979
0,0366859631137897
0,0194605236062466
0,0460117623342593
0,0205806358431656
0,0185619799663884
0,0490538572101301
0,0553078424993788
0,0159283780829164
0,0604463639266463
0,037454368006515
0,0452564894130585
0,0292510934877099
0,0387988101860905
0,0292433314337645
0,0395941032326876
0,012471770386677
0,048013976020034
0,0373875690247481
0,0387684121535427
0,0340787840575998
0,0359376891959729
0,03455172492266
0,0469393826010421
0,0313367622800694
0,0416623001813048
0,0330323051318355
0,0283413926130584
0,0190048643411301
0,0687990085747693
0,0182956970548064
0,0286554802757589
0,0607426974598617
0,0534342390896615
0,0411539397158585
0,0452327852904948
0,0387901854023273
0,0443940742090067
0,0407075034031988
0,0472180440742719
0,0355114441466497
0,0589004283005879
0,0443440297795915
0,0441897081347513
0,026430922202616
0,066277015758059
0,0743542800739404
0,0679681206760014
0,0518068244284603
0,0415474324004896
0,0277356200336564
0,0865969466764242
0,037624317291279
0,0970338713643022
0,0514963565048585
0,0685188358711624
0,0582904935277722
0,0655228485170651
0,0551636114360484
0,0664269778993109
0,0682339057331863
0,0659775327263451
0,0637052813070605
0,0754050410099151
0,0660602708126476
0,0589464395789388
0,0839166748310161
0,0886515125700377
0,0704870328875376
0,0811257978905946
0,0608075653317103
0,072765341030383
0,094721460647236
0,0890534358424148
0,104300148317124
0,0847791454324614
0,115806353981796
0,0942686236107455
0,0947163345937016
0,0937937322236396
0,0909664139486615
0,101922153192269
0,096121077993101
0,10022200697362
0,091510253407203
0,103750297771132
0,105571874989038
0,106215733786577
0,105800726705571
0,107252462902781
0,112404594506207
0,122046024211978
0,107326107446146
0,115074541312421
0,0944013210028206
0,163254144920888
0,13537663180919
0,14541523368725
0,112226812886574
0,135885287532604
0,114084531647595
0,137890954532599
0,120509912063584
0,146950520995769
0,115867813227916
0,161412785313074
0,158355245762185
0,144691397445959
0,154783844897102
0,152115873998839
0,140719347046992
0,152091649077655
0,141738549309204
0,186804609235859
0,152935880894299
0,155033740190408
0,142165534517533
0,188152996677671
0,149269116561159
0,190230672631764
0,156619173387709
0,177262069194644
0,156983236988155
0,176516598241679
0,17373935938928
0,192348146035118
0,178885611762479
0,191736716857137
0,189211329474852
0,1904156357191
0,181820627428734
0,209772819006281
0,189840133016848
0,199176441379239
0,194348620992618
0,206993071438604
0,196894418374961
0,207776263121943
0,190680573725033
0,246905854221582
0,200966222042332
0,249272723305188
0,205877899083592
0,222646548645985
0,2198632643224
0,225496996497291
0,211055880198695
0,232200712129924
0,224121155103682
0,235499442979023
0,227529385797463
0,250624116136907
0,235051733630834
0,247887451652637
0,243385820302013
0,253226892937673
0,237864454784543
0,253277984539367
0,245239221983131
0,276164917062395
0,23686879752181
0,288183883349469
0,256329459877607
0,290397952033071
0,267395960139002
0,286347703449026
0,274617685483771
0,291505938198761
0,264467181356252
0,301179551411881
0,288595631074737
0,295836683406486
0,291214529562837
0,305471512129427
0,294101059586609
0,306558621637993
0,298652510621505
0,315940709111836
0,29284822572402
0,339678514640916
0,311593463862126
0,334686138594658
0,323476549613599
0,328116649362966
0,317476970862811
0,342948661687771
0,331381330964383
0,334311494952701
0,333706846453374
0,35145372521237
0,337235149519954
0,366314368944834
0,342719778050302
0,367573602805438
0,345752710702748
0,362450145037422
0,348345409908357
0,368691088560818
0,367743223021715
0,384310397888648
0,372478185791572
0,391023127859585
0,381177589251536
0,395858572506565
0,383842096925943
0,404774119781795
0,380707806036693
0,388363031320222
0,394185649750131
0,428235820733644
0,400053826497458
0,418813598328179
0,390162298133091
0,427063678662419
0,416197567408205
0,42605115379574
0,411655812430463
0,447228603493124
0,406285730869488
0,446416309437872
0,430682292096801
0,445072319529157
0,435494299182508
0,442697755922326
0,447496188032828
0,464959537904541
0,444879512511411
0,484753973440757
0,446108052293925
0,476167303807351
0,467576790603098
0,488998745097225
0,479008853359165
0,494823124261049
0,468879635801069
0,490399445747991
0,486395343657167
0,512655826673401
0,488223970234704
0,507753619650743
0,487202870425981
0,519366970305088
0,509048946879421
0,53696214243856
0,513699921405054
0,536647096553551
0,510966956887263
0,527589956103383
0,512660433973757
0,53013705668641
0,524562170407075
0,549191717913228
0,506817610050206
0,548191934493937
0,536315471034211
0,576096884766522
0,543798809652517
0,554357815017958
0,527350082724002
0,557257288118635
0,557514022928633
0,584233115057102
0,558531480592069
0,583934814573182
0,54782680825104
0,567928774961452
0,556731266404608
0,591876215141824
0,55632533211847
0,597707205746848
0,57620912727118
0,623177941521322
0,611076802149576
0,628237205219102
0,610588261898605
0,611895286333827
0,595649374960675
0,624793905212753
0,61939364023872
0,65427969184214
0,610567804524449
0,63252760755597
0,611265158787379
0,631930574552732
0,637743824469582
0,634071719358473
0,599575676773721
0,662734019275205
0,62744754140883
0,683507224257724
0,627767456355355
0,66071435409609
0,651690413775696
0,676323223668894
0,653966220439542
0,644377641243197
0,645305949733015
0,695881751628028
0,643988827746886
0,696522833737159
0,663812053661237
0,685497732745361
0,666364466176229
0,689910520535638
0,695807770328184
0,691798259877822
0,694234140315932
0,689729728552228
0,659354782205804
0,709438452379384
0,69998761619912
0,727397921873749
0,714970461186246
0,721907824552229
0,703531755797228
0,732302913468051
0,726834554672315
0,73772595378965
0,71161866851217
0,737254141857589
0,70169614183883
0,707920829330809
0,73863482159119
0,767695734158836
0,727139103221309
0,766388033884936
0,736201569731207
0,765304394408436
0,765717701891181
0,799124452476885
0,748812314487328
0,756693450952138
0,750810828695644
0,776200694059754
0,750157310560368
0,757650479953742
0,750526286154879
0,795470353610683
0,744834457020025
0,742854704546701
0,744580382387921
0,786765094323767
0,783522763667703
0,800822518638888
0,786668269386628
0,815573016503416
0,759901659057126
0,771057391143888
0,772294200487758
0,793621713492174
0,781718173473616
0,82385682543693
0,77721761177538
0,810594864041545
0,832787805478353
0,847785434208048
0,802157972060073
0,83270275682704
0,814240023319993
0,822845834974199
0,794452230622706
0,828551695153646
0,803195860313852
0,834561827802918
0,799704875799442
0,815468287611495
0,818767544181241
0,800384459351091
0,812912960294295
0,855609043577706
0,803292927105692
0,816435498306096
0,786588464337212
0,824694363390349
0,820609608158021
0,805878527771359
0,839921331171267
0,86837428276792
0,83061202776308
0,882713522088723
0,818773399013352
0,851005387923022
0,866202879302433
0,861798565160174
0,839047505191029
0,878683175758774
0,839705443393456
0,805977337899738
0,831022864223575
0,915105568949874
0,884332628662862
0,86247188885758
0,813798039401468
0,847938948095686
0,842148670180224
0,901012562591572
0,858812896180882
0,860472382536244
0,848818410775386
0,889495228495493
0,835810765358482
0,82835586539354
0,862304995134159
0,87695678821197
0,829565812283889
0,861574973087355
0,838821038452414
0,877975776675611
0,844773336752784
0,868897893939116
0,869915737568282
0,881147518000541
0,834591274675491
0,868404679341825
0,867772042615843
0,885765029798689
0,861148924195377
0,881403254408545
0,86884985997648
0,855722369258564
0,833688225239128
0,888739347958339
0,868067213967512
0,874543543634252
0,843578009824767
0,874140777435557
0,885659894847198
0,892086091347092
0,845761888192793
0,864311780484883
0,847089786398978
0,873040214695612
0,882251770920172
0,885548669273594
0,84803296912794
0,891226003863895
0,845247251507301
0,859528148619492
0,871520651305178
0,869478462371534
0,827328796441138
0,86552103739591
0,864010893337598
0,89000205171757
0,856907888770048
0,882538272192321
0,888526616186557
0,869791582344979
0,855151724349932
0,867601420673188
0,871465855314532
0,885667521557712
0,829801921825051
0,878532890526344
0,861175200004798
0,855975056626153
0,852394064711478
0,863145898635014
0,858421706701373
0,874042149191285
0,876278608487273
0,85287512630974
0,874755942320632
0,915678050908758
0,8805112562043
0,863488493241693
0,868464043802164
0,919554554784639
0,861807481161165
0,866910906095516
0,87369763761055
0,867983224602421
0,844045624309967
0,85132232811524
0,835139478360088
0,854808789661181
0,828453827702136
0,871995701692492
0,834552556712311
0,857455550829299
0,852637961528607
0,856250630977397
0,858313115159379
0,880716328312632
0,840620407658965
0,850538055101398
0,837589099005772
0,868172876138131
0,848310997234245
0,856370407478614
0,834050572926108
0,853018427223138
0,838653650273429
0,865098060884838
0,859605188913166
0,832026936979933
0,834347662014166
0,871154512201027
0,83763506787449
0,854909848885118
0,85491582317788
0,838411470840727
0,837121474917428
0,868985416478971
0,811847850071527
0,800760994632825
0,801377447510295
0,824180022387942
0,804325668557582
0,829986102382533
0,812222952172901
0,842387658317418
0,804449518657275
0,802760842355504
0,827554982317327
0,819297322468227
0,798963307412715
0,821125822907288
0,781675839594695
0,807734543670828
0,797294481604438
0,803233145389404
0,814081386996534
0,83435541238174
0,811380343832455
0,823349583301115
0,78635207947973
0,784235657847666
0,780027013058733
0,790774372416544
0,806893113838499
0,816322670381224
0,791102194302263
0,793513321177875
0,79132592114429
0,803967337381339
0,758133293062018
0,776704648720111
0,775781742380514
0,786589057437595
0,775426645564092
0,773300729558909
0,766668873148417
0,7814991484472
0,737052559574518
0,763443080048993
0,75185527173489
0,758855911049664
0,75436953870796
0,768472282096155
0,75857691646212
0,760117375473276
0,755626102323914
0,753272100993949
0,72919613762171
0,757782730898552
0,737051437383635
0,763329951594105
0,73364688768827
0,722438960552568
0,735241653676783
0,72874038622343
0,706581150887686
0,729188395601726
0,720581630111475
0,71539177052837
0,691638321740034
0,718350997161685
0,719496388871735
0,720013781769793
0,701830600980972
0,704678981633388
0,692035677581122
0,703675157911905
0,685229799858621
0,687918852760086
0,680095507287036
0,682424259766734
0,691013044055007
0,702685718437192
0,675109460327757
0,692265724396529
0,67000008598919
0,67407291926902
0,676316132997996
0,668883611336825
0,667909459509121
0,66055425724022
0,648457794020182
0,653081436481589
0,638935015891198
0,651623932530317
0,638327410792285
0,6570047258423
0,642491697217461
0,652968724280535
0,639827841988801
0,639421332625148
0,641944794968189
0,630430572993962
0,618580202941736
0,61922125227542
0,612989518011051
0,632771095732778
0,626841456422496
0,618915712943049
0,599652087922247
0,608803382808904
0,597017279750628
0,604329944071631
0,591818061391043
0,593797395870429
0,585198744163299
0,590385260552905
0,589981786450224
0,594994205612886
0,57616997399756
0,584141531856057
0,571271341448809
0,590839571990589
0,568394219400518
0,562167497770003
0,562056727899919
0,57514073904923
0,56501107004259
0,564474080049104
0,555581226715812
0,564357993883773
0,560275760766971
0,560615078134881
0,546966066064445
0,543269554698677
0,539069398590237
0,538905141516404
0,536965174779995
0,543093117088948
0,526509146029664
0,531359591146882
0,527816683176073
0,525225330686593
0,520831697882103
0,532106766660959
0,519574880963325
0,521698409209738
0,505199641583961
0,509038761624662
0,500370280551482
0,510220761496291
0,501408581042186
0,504194476131176
0,500265210570942
0,508820534054404
0,49648920763304
0,495659217853551
0,485078834338294
0,50025174678434
0,489513381806907
0,484359581680031
0,48538070307432
0,478255991108034
0,475057826044688
0,483402875677911
0,472778794768579
0,479089784670297
0,464906834592037
0,475715487101468
0,468854222193661
0,466076407649081
0,456889348050698
0,461694451439366
0,454317584450548
0,454019523239616
0,447817628383895
0,453078630850822
0,441228835555549
0,448934211392655
0,440534248845361
0,440411447339164
0,428391275577169
0,435480522944082
0,427319550881739
0,437109768607544
0,435240833529035
0,436094249845615
0,426521304058189
0,426779599798189
0,421442893388828
0,432484168820403
0,417351292606948
0,415037960922341
0,416061558198106
0,420684613900289
0,410311509016759
0,409931243820653
0,407799755680662
0,413824697744276
0,404215349602544
0,411800871771726
0,3955114482391
0,39686898056995
0,401625869935346
0,401495069162974
0,390760065640845
0,390753056960789
0,390807151501721
0,393576219459958
0,380398169706832
0,386847809691072
0,377261788979598
0,381963753666768
0,382362057781517
0,386497034573257
0,379333751560574
0,369999696616798
0,366271017710127
0,376884180818102
0,370110613064234
0,37058184454987
0,362954168238531
0,369548593040013
0,363061185704663
0,366417823254982
0,35907591617293
0,360802397878057
0,353820330226842
0,357017746647865
0,355470884744308
0,35663899349782
0,349968283437844
0,350433951525752
0,345843705009143
0,351346266255971
0,342845133444839
0,34857402802851
0,344589164609465
0,340795985142484
0,337925472607908
0,339846025874224
0,333947936067843
0,339067768180545
0,328942260665821
0,335794253274231
0,324524752380677
0,32916761117579
0,326809089285539
0,333972436642907
0,325784398055767
0,323270113810465
0,316205392472318
0,322746947087986
0,317231659312201
0,316733956050918
0,314192786825435
0,315673826951539
0,305115823158373
0,311101173391129
0,306397723974964
0,305522769793413
0,305865583775486
0,31003227943773
0,302444298841531
0,310263429089147
0,306399479639433
0,305775850528709
0,298799618202791
0,307993092481074
0,298572752470318
0,300741776332909
0,296171522533241
0,295322281361183
0,290680077112657
0,295607359044715
0,292563844674473
0,296255398380502
0,290800560027523
0,287623487962428
0,287058539720943
0,294283781072376
0,289101356596169
0,29521511074854
0,285632090204631
0,292780339808838
0,283648148221348
0,28929700231705
0,285564632581267
0,293165828099442
0,286079705913949
0,286074182272984
0,288851965807367
0,295049579252094
0,285883240239582
0,291913622523075
0,290613503409288
0,293485282720354
0,291107505558042
0,29384949638178
0,292114835331332
0,29629568911052
0,293207643339096
0,295427910716366
0,290715954507732
0,298748174115776
0,301405878905123
0,300446857606595
0,295879056540853
0,301344118025212
0,30007224933317
0,302834834088397
0,29669900242644
0,307767388683917
0,30182791991821
0,309754247331042
0,30349774580953
0,313325105662929
0,31205108907081
0,311016564869142
0,302913749977368
0,314265400425304
0,312271122363323
0,319312589312243
0,318837515336737
0,32560902498835
0,319340763071422
0,324654576660732
0,319869741538039
0,322087906583325
0,327700333914949
0,33098896204118
0,335356282160657
0,342810267938916
0,325540861113064
0,338508798228968
0,335429633018741
0,343861369652213
0,348376575416054
0,351613267459276
0,344807035689118
0,3522410986678
0,347875164448404
0,350929407358113
0,35169125682907
0,362369133521546
0,356277874480505
0,362949821789396
0,351923723591542
0,360111125785043
0,364470086177294
0,360451134007888
0,352862124496488
0,367723543862
0,356188317876067
0,361798186988583
0,357759906278935
0,361732730935322
0,359416144755371
0,361888364686141
0,34932969117236
0,360424717351621
0,362440500143367
0,365712911590364
0,362354811223149
0,363147967586487
0,351220190387463
0,357119804896803
0,354807647795167
0,36094096751142
0,354307627265099
0,353752240501034
0,351442455597958
0,358948936147709
0,355830570021668
0,355308277996066
0,349594039423663
0,352502309961974
0,350623016977151
0,362928836559769
0,357958667258754
0,35802829376984
0,356304623220767
0,358779258665535
0,357537995860302
0,356176582789431
0,35224617459177
0,364983888719431
0,353833355924728
0,356548721772587
0,355515677195516
0,360017559773275
0,354579743905057
0,361339799662822
0,358737276035554
0,362945226864223
0,35673684726788
0,353223831050733
0,353378736965444
0,359302542516706
0,350631829545233
0,351520099053489
0,349779018052788
0,359643549012332
0,349962354385367
0,352596563008547
0,347691142119098
0,34878091333798
0,345037355409621
0,351121460741681
0,34547043482345
0,348506619039164
0,342004599395607
0,343212280111394
0,335585172396533
0,34032134065553
0,335443547486505
0,341305042201221
0,334005351411266
0,336469605977242
0,332826396288358
0,329476719592147
0,327855097983295
0,320973978884706
0,321577260920144
0,325079739576062
0,316346970722484
0,321733152947005
0,315239080654076
0,320684741813649
0,315094253230444
0,314039738037513
0,310706234805304
0,306936585355783
0,30174528791984
0,299902853329311
0,295537320303494
0,30084938596117
0,293763569510572
0,294040862646423
0,291464290830831
0,292870750688025
0,290225943231044
0,291583531330412
0,280678351022061
0,28281407597202
0,275532025941262
0,282007646838693
0,279188048642256
0,281851034669971
0,275444971831255
0,274599469468572
0,270860042652784
0,270105540608892
0,265067091177844
0,269913594242551
0,262377694414437
0,266404856109308
0,265496317687821
0,263801198035892
0,260829739446792
0,260013131966179
0,258549258596447
0,258675058061997
0,25416142432133
0,256451392370854
0,254501359752292
0,257930352222852
0,250938553243045
0,251728727642162
0,247175615963933
0,252899927835888
0,24486612893231
0,247393022988673
0,24505571826899
0,246004908272575
0,244089123458505
0,246639087602837
0,238061061158618
0,242350958556061
0,239761266137548
0,237000369992989
0,234116336877527
0,238263663566761
0,234311801433885
0,235399788102787
0,23238255512217
0,23075052635833
0,229239957974707
0,229280258752703
0,230512477790862
0,228249196396142
0,223438269198788
0,22918862710556
0,223066941180799
0,224265693692976
0,222771497100536
0,224049412871753
0,21922098387733
0,219896292425428
0,220073915032665
0,222883542927152
0,22019396450629
0,216387676752151
0,215329867244122
0,217296134729451
0,218230085059375
0,215593349046322
0,215746462338497
0,214334551118673
0,210550897125389
0,215148141875051
0,211894811859487
0,212191820353147
0,212401793451631
0,212536885446115
0,21091306438239
0,207455179545564
0,206001220289675
0,209346454453526
0,206317418095716
0,211856277527329
0,205789657692366
0,204373358740607
0,201574946558252
0,202160969040808
0,20308326750985
0,205100279319648
0,201081618138984
0,196749181756824
0,195303778457021
0,200480293636758
0,198082488633445
0,202201013679086
0,197931789470002
0,200389410622698
0,197930826598036
0,196750000329308
0,195084495313192
0,19968535828711
0,195149983079171
0,195309379947607
0,194736600101427
0,192462504028564
0,190394533282375
0,19534481821296
0,18921627821655
0,194982205532111
0,189955217189374
0,192715878651613
0,186740033935391
0,188696032603664
0,185412751684437
0,187942822925073
0,187575955123856
0,188151157592342
0,188536560934808
0,188696651560185
0,185670159402487
0,188211591193789
0,186771608295944
0,18975110159572
0,186198784015789
0,187563250883599
0,181626328276099
0,186928269444672
0,180771730364896
0,181185002299945
0,179939915615519
0,180522114088214
0,180715721619749
0,183145989081923
0,180603291656744
0,18412155640481
0,182027366287913
0,181408532523288
0,182150028654455
0,181652221858098
0,178281958627414
0,179503813958288
0,177400628226315
0,178980675757148
0,179003343825885
0,180187301863857
0,175760493258614
0,180601312195559
0,178523889420145
0,174828232051516
0,172575888985539
0,175639709296071
0,174721639963941
0,172732236092812
0,17058808246517
0,174111670941266
0,169057648178543
0,172169825279401
0,17028778213026
0,174095235408785
0,168806612797464
0,17035070208355
0,164677598016729
0,17178968083241
0,164493900951258
0,168507743523226
0,170003845346839
0,167284049856942
0,165613828096307
0,168071769177218
0,161989847337116
0,165166211073977
0,162133005418246
0,162883251469373
0,162945786284111
0,164912929254602
0,158796233618908
0,158613668243124
0,159595457429687
0,162144120052233
0,163716871542715
0,158567034093115
0,158073208733054
0,159135160684642
0,157325460785621
0,157939060627841
0,150904307834243
0,153975724855839
0,150681696493756
0,154910779610263
0,154312186891521
0,156099567474922
0,153233415923984
0,151698455948624
0,147838333687542
0,152627066909889
0,150868278834679
0,149818300150699
0,14845928168187
0,148992246942621
0,149412468982655
0,148507403781403
0,145805263728849
0,147276576172469
0,142513759338555
0,145961194498258
0,143435790670374
0,146711111274413
0,141111122039128
0,14327046409156
0,139866687629953
0,141964438670475
0,139048177365376
0,139932098222175
0,137298095898775
0,139857081786337
0,136312613418161
0,136246595623988
0,135759439939398
0,134377018807776
0,135228978186819
0,135079113453717
0,13160753684924
0,130908640288788
0,128694962223108
0,128445792237743
0,129245652841516
0,13026342925726
0,125037045584767
0,129954467252727
0,122969639549458
0,125677466957142
0,121090951453432
0,122311915593222
0,118816820414098
0,125116081050975
0,122810338851454
0,122850608499537
0,118695602447896
0,122148321475151
0,118450754552681
0,120798081455182
0,120501516152844
0,119726451945586
0,117998754950216
0,119419440914791
0,11492746424806
0,11679519559047
0,116746447442853
0,11878005112259
0,114657398830569
0,116741819568121
0,119097708675772
0,116682668021834
0,11150716377893
0,115545454243351
0,112147968929053
0,117234974535827
0,113807748521366
0,113143310272232
0,112213992178049
0,109846128171548
0,110680280361462
0,111149982702758
0,109043578382751
0,10714642802145
0,1074710379861
0,111811474295631
0,105943090449996
0,107472579116826
0,105632873414798
0,106316834187085
0,107891316554838
0,108137454017953
0,10402483404248
0,103767307380402
0,10652268585703
0,105996244567186
0,0994927492857362
0,105674022735036
0,102549065264469
0,103447120734907
0,102732196746214
0,103679413685335
0,100570502641507
0,100497602608601
0,0993589275152741
0,101362411685086
0,0998753430361889
0,0999137605856154
0,0998017602281233
0,103624882305523
0,0976003869404747
0,101838161619083
0,0961939991528654
0,0991514751269888
0,0967655781699371
0,0981799437558366
0,100032678971417
0,0972485761799827
0,0962623535494106
0,0960730994807213
0,0969110765749819
0,0966117962524474
0,0932571232309745
0,0964987264804571
0,0970317833238162
0,0945310075927006
0,0933212650385727
0,0953370781063623
0,0954781371546253
0,0953794029621571
0,0951774453054329
0,0934076758123686
0,0942777013312353
0,0965935845251876
0,0939455992204013
0,097511786226622
0,0914386846319586
0,0935595387208317
0,0903107852332484
0,0925116930112783
0,0904099843774253
0,0922109187426242
0,0903424378432494
0,0912188002131533
0,0921965789925425
0,0961189143127228
0,0889472486420101
0,0880526570044301
0,0912012398119203
0,0911459646336361
0,0901636163049263
0,0905610492582921
0,0875502725576754
0,0890438137456451
0,0872986619749032
0,0871838098070092
0,0876251451253848
0,0892754625074701
0,0906496563079394
0,0846266960472185
0,0853026222072293
0,0851765416521687
0,0872021266610304
0,0861963775902661
0,0875154166154794
0,0880377274251045
0,0842323622707162
0,0843991845522051
0,0830158157487572
0,0845278625979403
0,0860155008551525
0,0846904664352452
0,0812398513417002
0,0823309026606398
0,0846044558685616
0,0853926145080187
0,0832471287614651
0,081269515787956
0,0821828497688094
0,0846442343873652
0,0809395944590471
0,0835507174788433
0,0807330424716012
0,0795468403968899
0,0784259359997564
0,0820010753044089
0,0802686724340012
0,0818588248060608
0,0798040635380485
0,0805972758492929
0,0790865287289391
0,0819773649784061
0,0802988399391101
0,0810526211276454
0,0787834192701875
0,0784447180471965
0,0775330396630467
0,0801569155522089
0,0785922157306648
0,0811953644013108
0,0786693058890037
0,0783093101322299
0,0777731851937887
0,0758722347307009
0,078481441621266
0,0789968312998285
0,0770071186202557
0,0786039790908491
0,07757861631552
0,0757794398456137
0,0767661405560705
0,0761036941021744
0,0726603052471122
0,0748649709531931
0,0743680261253065
0,0745885440320862
0,0740002759740299
0,0737148158403553
0,0713763838949316
0,0733079518443118
0,0699074439212668
0,0708110383500165
0,0694695353956834
0,0720637962653362
0,0745584338623335
0,0710827627674359
0,0699826407453667
0,0706247357483017
0,0709802018230548
0,0696035493223376
0,0676029469154172
0,0688581018187244
0,0667723462847725
0,0676667949707955
0,0663778034013289
0,0683891365162296
0,068033765558282
0,0653804218420312
0,0678550343807852
0,0652963106000762
0,0649528125764294
0,0662542127733826
0,063881508436825
0,065743996734192
0,0656983487139896
0,0641676917159746
0,062074780289508
0,0649563892341587
0,0654268288734687
0,0662089070126343
0,0625467019299281
0,0624097560842862
0,0662030158688293
0,0628401093218566
0,0600107968268391
0,0625284071071089
0,0632623006117792
0,0613664259440469
0,0618882173468047
0,060798725652625
0,0605865668665132
0,0638731585054204
0,0602287579724878
0,0618989777569861
0,0605906140526986
0,0614962606578247
0,0608543884591286
0,0593585170414606
0,0595929159343456
0,061113359893482
0,0600830232929955
0,0584554919935455
0,0581691413911763
0,0559455995871308
0,0558411469696173
0,0594088450652176
0,0584617373274389
0,057676973030258
0,0572278467532672
0,0567297328447141
0,0574559473131412
0,0568150216304394
0,0558903507123997
0,0545312669324668
0,0557499712621989
0,0580713472138767
0,0568068133218454
0,0550594091465946
0,0537470491222084
0,0545380837740471
0,054133080125977
0,054086814955051
0,0549940304517332
0,0543336646665274
0,0543758446951491
0,0521924372272797
0,0549310394563445
0,0527878275737767
0,0527761828845147
0,0505718531835629
0,0530445606990649
0,0529012726646918
0,0533274011501647
0,0509039502027307
0,0513396027416317
0,0528296219593926
0,0512783464770773
0,051169204341177
0,0517621472792399
0,0514689891539227
0,0535265485441701
0,0513487050934986
0,052855038561408
0,0499647468033305
0,0516192658345085
0,049632660874042
0,0517682523488817
0,0503682787288622
0,050252383179046
0,0496949855063083
0,050409925942972
0,0486589801581909
0,0521645399169137
0,0513577332481678
0,0496742749601234
0,0504137797204345
0,0535919076047374
0,0520714173076671
0,0536907988144323
0,0537900762773987
0,0523123458102085
0,0502170897249046
0,0476067110582192
0,0449958217325037
0,0495461075448181
0,0520917953883536
0,0561329474619304
0,0491425449437884
0,0506381127187365
0,047875019559901
0,0553138985815321
0,0478731407995639
0,0559078023182187
0,0463423905664278
0,0497207810692383
0,0510901624087898
0,0536385067347043
0,050977714411304
0,0594200203681249
0,0529027551050504
0,0537368886533112
0,0504112247703767
0,054873423757222
0,0454945322263726
0,0519807226444477
0,0429562225064483
0,0519555953500425
0,0423065497273978
0,0572977059688077
0,0390242996351378
0,057540616173624
0,0387522999268313
0,0566653665700196
0,040336658487263
0,0596080026526068
0,0422318947372759
0,0656517321061918
0,0347292734469658
0,0666983061695094
0,033268939369972
0,0564579529977959
0,0272674629246799
0,069860356107106
0,032031053654182
0,069949602530145
0,0288542422063963
0,0690027193676407
0,0250315930312419
0,0700147278803816
0,025108877157223
0,0678721909575649
0,02170269020422
0,0694274685736882
0,0354897849325216
0,0616589229149953
0,0320749045031674
0,0571875726981065
0,0482313494224964
0,0462081874000321
0,0538590582756703
0,0408703580293611
0,0595315735407925
0,0325003299653031
0,0652137214449709
0,032461250737396
0,0627234667688743
0,0372145817188922
0,0583714383052152
0,0374661016502126
0,0525332376326285
0,0450946760157648
0,0493109624055609
0,0446740020497781
0,0470055779070675
0,0465562900539127
0,0478314698542079
0,0453274642126609
0,0476103959667806
0,0420010083304278
0,0511407907695663
0,0433267982108075
0,0503296939952347
0,0434401276112425
0,0475849168142398
0,0436939253380208
0,0493998922516848
0,0434000778005352
0,049377784906154
0,0434066999289213
0,047854281544866
0,0427770638962534
0,0469628287588787
0,0448322410615047
0,0485548817737094
0,0434723213660505
0,0471440300914741
0,042136833290028
0,0469096493357206
0,04434321825757
0,0489969542506279
0,0453705887315233
0,0490970002697836
0,0442522913018337
0,0483541246607604
0,0441319069991728
0,0503525959560509
0,0466636172305808
0,0482454630668202
0,0432307655126647
0,0477990076490788
0,0463733143059548
0,0479357770512488
0,0453798858888015
0,049212105704348
0,0439295397198136
0,0495649716344356
0,0461387480744219
0,048994070731906
0,0464666291163721
0,0490562484046754
0,0470469435065375
0,0498274914214265
0,0449505066963913
0,0487293735515351
0,0448891822699573
0,0496656853743387
0,0469810307354851
0,0475010163730141
0,0460290704598074
0,0486568214297051
0,0466678074513819
0,050802789619698
0,0452404894094692
0,0494774892868494
0,0461581312051802
0,0496544577427505
0,0457562503352789
0,0502949119792943
0,047203972939497
0,0516187248118652
0,0466125350661502
0,051037545822811
0,0483376290245541
0,0485569316441944
0,047421408409408
0,0523665071217228
0,0468859039092087
0,0505069187260722
0,0481096271067069
0,0482173441723058
0,0456461569311732
0,0499964765564515
0,0460990671259155
0,0494858933051793
0,04780779566469
0,0495436104759299
0,0479182174063153
0,052066802305989
0,0493078384550736
0,0516483263089051
0,0480342712681521
0,0510343516089379
0,0477509702316207
0,050466521081501
0,0481361328496234
0,0508210226356234
0,0476723914264188
0,0498811081567825
0,0489972913064738
0,0509640681285407
0,0488747022335185
0,054042054007919
0,0509060541976812
0,0516290916170294
0,0493393209940059
0,0533348466204351
0,0514656138288806
0,0527752497525956
0,0513790048505267
0,0519050476256201
0,0521421493242341
0,0543530985031196
0,0500854094813915
0,0542015362137395
0,0508343453445008
0,0527872935527208
0,0501690204074497
0,0551254176068609
0,0507985499322081
0,0532875722477901
0,0502213951623004
0,0539449080163049
0,052261683520571
0,0552546105615433
0,0503241456321119
0,0545819792329483
0,0513963056510585
0,0524909075773255
0,0527377190419975
0,0547828914879098
0,0536435135806404
0,0544255600795761
0,0516993891354282
0,0548749373666821
0,0541754630772434
0,0550108645090079
0,0527367001054964
0,0537491116361939
0,0534721287412878
0,0548100936461841
0,0524698238996515
0,0548631715371768
0,0531196292643413
0,0563167814619799
0,0518332117815079
0,0569077907994597
0,0547154344227823
0,0557975714448428
0,0554049146716478
0,0565278413827476
0,0529581046323128
0,0554661642314348
0,054103415953866
0,0563400305843653
0,0557594524795325
0,0574199321007426
0,0533111999934335
0,0552895925423138
0,0557577253975094
0,0557416706114845
0,0553716417964702
0,0571499782921067
0,0567713019511146
0,0602541778890979
0,0565188769155592
0,056273477983135
0,054931736984412
0,0585691155656764
0,0559280984330104
0,0576913539246861
0,055832606044434
0,0581192706871956
0,0577955491228666
0,0575666776572008
0,0548776577259539
0,0565568260576106
0,0556670810230375
0,0573517388970692
0,0551972281973135
0,0567589078480873
0,0548094554314752
0,0548644301991859
0,0541570189772883
0,0585191660126
0,0565873775792952
0,0555589244058272
0,0552251824709528
0,0554432802897465
0,0523315882210338
0,0559645839278042
0,0537584563011502
0,0540840946938868
0,0531707896589002
0,0550467811606909
0,0545691478769586
0,0565501459642167
0,0539528149898675
0,0529384138999646
0,0528012528651835
0,0546960184259808
0,0527433382607701
0,0537666865559482
0,0540100826674252
0,0559990864947963
0,0555025797144512
0,0561239092624036
0,0512625118716376
0,0535611749397992
0,0534431422245851
0,0544582388513703
0,0519856335926914
0,0537909940129857
0,0530526478032997
0,0548203018308184
0,0526839402089433
0,0542134843761071
0,0539161418324367
0,0551129013029651
0,0525969628807864
0,0523771084017029
0,0533141621315384
0,0554731166454681
0,0521577651670736
0,0532282105725799
0,051516678796494
0,0524743274458742
0,0517507718357774
0,0538159547138053
0,0531459283523712
0,0526623151264699
0,0519044497605641
0,0548207551153419
0,0506166717807852
0,053831881460968
0,0488969130024885
0,0535443276310154
0,0532098450228016
0,0534803251819255
0,0509755722585717
0,0515433355653688
0,0497291179909794
0,0555685665861036
0,0510001495526751
0,0518996261398932
0,0516137907309897
0,0523198758200661
0,0503357465362014
0,0520582724537471
0,0487873419009554
0,0511955499629165
0,0486827502999794
0,0542401178758242
0,0505260053595631
0,0512323283690206
0,0487075853462657
0,0501259528800825
0,0508555228957148
0,0508122140678033
0,0492130158870417
0,051222561152174
0,0526894532922177
0,0521173119747808
0,0478006906079509
0,0497937546807324
0,0491776127000659
0,0505193422471145
0,0474524754596073
0,0511579795330061
0,049442477370954
0,0501903288029907
0,049370175173833
0,0503157409037783
0,051412173473578
0,0508870538046346
0,0474048532226047
0,0503284380789569
0,0495961117154615
0,0496913659916289
0,0463615334694935
0,0489728822623648
0,048205897715599
0,0505534128498769
0,0507388812731857
0,0492421707720957
0,0488372637104475
0,0507695635565392
0,0474791128459327
0,0476892673210825
0,047366371823652
0,0496445678910487
0,0451471853676179
0,0481518708737555
0,0479288357257473
0,0474261865510604
0,0461811672761124
0,0485531830737274
0,0465208710169216
0,0489858960230549
0,0443279591947935
0,0465328776910761
0,0463070584205064
0,047792523144953
0,0442815035097254
0,0451061973957985
0,0454264314116805
0,0454498517972022
0,0411905884606231
0,0450596088098061
0,0409986581804601
0,048806219214249
0,0417594365023191
0,0486612056375234
0,0419300193427154
0,0447915254224183
0,0419582678857239
0,0449594335657039
0,039896370724928
0,044698401503253
0,0418462103732236
0,0442084409389884
0,0410623386275191
0,0414202313833027
0,0417319293726112
0,0435460536017497
0,0393173226673111
0,0414178377438817
0,0402142506168507
0,04344031494738
0,0400913936730637
0,0424155877652949
0,040994929581653
0,0405637981882171
0,0389570840452205
0,0419683060162811
0,0365310130492956
0,040576813236147
0,0366792465861869
0,0429817706133047
0,0440697198311472
0,0366619973480578
0,0392839921725512
0,0396408327791496
0,0405068928319941
0,0385462787197051
0,0398650248830288
0,0394904426334723
0,0409577090002142
0,0394041104141123
0,0396058398755722
0,0394938849313053
0,0401074847499643
0,0380762758738895
0,0365375538521627
0,0397321117672629
0,0386821397583276
0,036896875630627
0,0391774671416656
0,0388384944063648
0,0383332286222762
0,038832024538653
0,0384259376866298
0,0393708500846925
0,0378295060766703
0,0375529637693905
0,0414418239821776
0,0383049113472823
0,0383245965665778
0,0362090800487152
0,0383891139852438
0,0370899219833893
0,0359428284497534
0,0370868114535756
0,0373120911664233
0,0363314101011135
0,034226662348783
0,0374791952878313
0,0366887960282962
0,0354887466907048
0,0375089967403012
0,0348165343966621
0,0351460237753724
0,0346941241034047
0,0359225415093964
0,03493693746345
0,0374881287717523
0,0338228121675825
0,0370595023937244
0,0365991409490937
0,0332553577136652
0,034484885748113
0,035752135590127
0,043080017573541
0,029552731453258
0,0389255923482389
0,0330822990760663
0,0365326048890351
0,0311970154667923
0,0360225483044153
0,0333582576518556
0,0359808941885139
0,0341928193541362
0,0365517176339746
0,0335456073932025
0,0365470570923148
0,0322699079752356
0,0357924141986507
0,0325100524073041
0,0378649861335144
0,0313303884622324
0,0340867531489416
0,0320136468532489
0,0388893516253265
0,0372014763846407
0,0384587938245436
0,032090719223974
0,0371876544495869
0,0254691328229089
0,0459289776215442
0,0296480497920376
0,0374246755651737
0,0345663198896302
0,0352627597775255
0,0314301795581193
0,0323201590074458
0,0319755124452856
0,0349148798551704
0,0372369521907004
0,0313563022207459
0,0343688628727124
0,0305060168395736
0,0339766464532025
0,0334229624230909
0,0331877453954082
0,0329981005830916
0,0315913210092215
0,0332916527573735
0,0315604708441398
0,0330541674711917
0,0321742940433715
0,0338720952271206
0,0285857585368816
0,0341912700157647
0,0344038485361709
0,0331449068692484
0,0338385045365118
0,0318557644771052
0,0336850315402374
0,0333939297314738
0,040055119907043
0,0301108297157927
0,0342240959756664
0,030543953123293
0,033179135983866
0,0349157452132901
0,0355262559144215
0,0319549812092043
0,0356368684733887
0,0317594156070143
0,0324761996398795
0,0339762573579547
0,033218677269205
0,0311261678485929
0,029639796442365
0,0339826276018803
0,0311168892833333
0,0335955462584245
0,0284340894997833
0,033093192052525
0,0269939080176697
0,0405390798732485
0,0359917294832946
0,0375638008237179
0,0379940232792283
0,0328505654417276
0,0354734505546903
0,0330530871527194
0,0364182467556427
0,0322036416173652
0,036803210033204
0,0327881870580309
0,0349472465806676
0,0299887694474257
0,03577886581867
0,0305436912865158
0,0338327104518496
0,0316631437926286
0,0353624236213458
0,0267958807534502
0,0386046817376191
0,0278018959237679
0,0380880735539101
0,0284508740139014
0,0410402643684861
0,0258444932587611
0,036604694896862
0,0208040335707436
0,0477825031075456
0,0407550536702223
0,0314715603473613
0,0371131959115557
0,0289789142328723
0,0348635477997671
0,0309255532005843
0,0336615480427257
0,0327828784213838
0,0349445667036186
0,0335880470821133
0,0366217930195392
0,0296049810850114
0,0313830479691355
0,0292644970336998
0,0350301866270767
0,043569393582857
0,0342626793353053
0,0340631405057624
0,0322579462107858
0,0317570466337962
0,0462580982917745
0,0281034518190708
0,0390444833549872
0,0327789343781035
0,0383174035805901
0,0335673849719625
0,0370222886106213
0,033215644211657
0,0361581619871721
0,0360162279884003
0,0340800694612616
0,0369225341832368
0,0316869014858098
0,0377554436644443
0,0369193295076128
0,0345096649828756
0,0387082953857542
0,0314039678295209
0,0394307924291934
0,0362191007620526
0,0360643532670183
0,0348159395027467
0,0338202508385299
0,0364910282858168
0,0381324901747166
0,0396616528187824
0,0345627102513202
0,0412569886311363
0,0412319847653256
0,0303434647447828
0,0451451593710644
0,0383513549806111
0,0377588306636497
0,0281961267147151
0,0328296661427556
0,0521570302520235
0,031605799242991
0,0507578589451391
0,0288407931171239
0,0492589247284081
0,0300144864513625
0,0471656457746865
0,0244289966360874
0,052277996206317
0,0296122384224562
0,0454473638802418
0,0302487915740605
0,0464648657758614
0,0439626046268474
0,0409740155428636
0,0386577188559582
0,0415088614939861
0,0359671586380839
0,0413577592808741
0,0379042567873802
0,0241339314587741
0,0601225158124459
0,0468601643916154
0,0441818765881127
0,0457446012470884
0,035888306724825
0,0575871148208268
0,0370579484810392
0,0495345003409114
0,0397228837929597
0,0420586191008994
0,0407311201307526
0,0427958160035062
0,0563685001571989
0,0465269029044799
0,0393473626950747
0,0482253525162718
0,0379898453011595
0,0597001953338333
0,0424906731801595
0,0531407074032498
0,0410537463923381
0,0514679001886292
0,0256831322248116
0,0677947139851907
0,0470559219477578
0,0466373765315725
0,0623412904489346
0,0512801059604445
0,0586915055687879
0,0480445378479633
0,0562821053349526
0,0557961736159168
0,0592262358336588
0,0494215100114076
0,0514467298613155
0,056075322932631
0,070127744898123
0,0467985511034434
0,0636880561438236
0,0448159162041821
0,0554212009006337
0,0737814601914575
0,0798320871447022
0,0607055862228035
0,0683000122681758
0,0598113364321774
0,0768707374032787
0,0591335956400093
0,0685923070100952
0,0660700475534422
0,0669253864493927
0,0677376156805773
0,0682584401991251
0,074053914823505
0,0733640242156964
0,0734639186336799
0,0700074546121474
0,0632715655262152
0,0944468781609053
0,0760270026646652
0,096837618753178
0,0676171659956103
0,10179622035298
0,0804261840505139
0,0857443469670055
0,0826482663117576
0,0866205347525124
0,0892611540989503
0,0851285195285457
0,0893349414286908
0,0870360609545695
0,0964976089727121
0,0998386459654301
0,0922602876512441
0,113106603029031
0,0796138719054515
0,113059117231116
0,0259790561276764
0,153848326984112
0,0988863969224775
0,119016121611171
0,0943438353440076
0,134269948615553
0,1350270028999
0,126709463451254
0,130093244223149
0,132333789522036
0,125769726940329
0,141448066092135
0,142269130300559
0,151369464636108
0,148117119098218
0,153087817398669
0,127186083987353
0,182263671020834
0,188374838424815
0,180287936121854
0,178365546756445
0,180853023802181
0,188198032738819
0,192450596629888
0,186977738045038
0,197774191671971
0,197603336084107
0,199079571421098
0,231261602854119
0,20336719729522
0,234984901744655
0,210942321541102
0,250191422444477
0,204913647790893
0,27366721698328
0,243620292668636
0,254339016721366
0,257759664287813
0,252830968461742
0,263755076418162
0,258184395735196
0,290201836869374
0,276327996820972
0,281416444780226
0,283875339623646
0,282934006171888
0,290900120217001
0,291955793706892
0,303724138692186
0,283705709006549
0,329167491657009
0,294004693264402
0,331322684417635
0,307019230854798
0,308695374292523
0,312894990992033
0,294988030747361
0,3327946224418
0,307132263842021
0,334468878333754
0,31881919033201
0,312485604468261
0,324631814151818
0,309350536228856
0,326440880792861
0,304927093546433
0,324995984042374
0,304284515625517
0,332442652580416
0,297274001870718
0,325934333212187
0,331935761620418
0,302892489668304
0,3170424448471
0,307462092963745
0,311416566324803
0,311543911649217
0,316841880107699
0,301075032407926
0,321581740232631
0,286657592090843
0,306336315449135
0,284538577768117
0,307816055535857
0,297647794738872
0,287142309177239
0,29504334084237
0,288075217360189
0,280195858772925
0,264893421362661
0,280743860127314
0,29133586143384
0,262001107614022
0,282080173160148
0,266586914933114
0,270466212085437
0,262631544377831
0,267526797849994
0,258984217956758
0,263656797230172
0,250462198305476
0,267562356842752
0,250742909392292
0,25772336712283
0,248651138280885
0,255821429918957
0,24683390159582
0,254296642748611
0,246215595184722
0,250868441914472
0,24900574260561
0,251165873051198
0,245206259227024
0,245148625869821
0,244945443443831
0,249647674147858
0,240478812122455
0,245395439714801
0,243678814970583
0,247500462979365
0,240166190745486
0,239333965805886
0,23952737625757
0,244464705919391
0,236073595142712
0,235752980799285
0,237554662648813
0,233708132080631
0,23833664898838
0,234989099096987
0,235651084212119
0,222580322217107
0,238629416075698
0,20783187888291
0,25110083783241
0,231595270392344
0,223755559870842
0,232979323563883
0,214218382724341
0,226301664497478
0,213035983721709
0,24179077774558
0,217919285398733
0,217606799912731
0,212255064980154
0,215187788029734
0,209765299926614
0,221976061136383
0,19644498189398
0,211427674517296
0,155899227324505
0,24874525209393
0,200234786755844
0,218848356551872
0,213151246176767
0,201039062595328
0,194865172065528
0,191818383599064
0,211521836007086
0,182696852776702
0,201507062304457
0,186946252431153
0,207285349038976
0,192279249431889
0,186105584155918
0,187575187299995
0,178805026290336
0,19283123353933
0,188732535505696
0,174558818401002
0,186125438671212
0,184280630243559
0,153898628082197
0,215619897449726
0,184681268072307
0,182268310046682
0,16762835927116
0,167564186953757
0,168692497599047
0,171439862024739
0,179923568683326
0,164748825197173
0,167193789537714
0,159298413545041
0,15741471223511
0,169935290421113
0,156296001114597
0,173695786179579
0,144188210349647
0,175859688152538
0,12932079534054
0,168118982620896
0,147633594942299
0,183219578663067
0,15709012812601
0,152644709649823
0,146006181473274
0,161906817977107
0,160921147045786
0,145945805783447
0,150303681916854
0,147663010773571
0,139941967407189
0,151387822618059
0,136349980579539
0,150458239648349
0,142658988316723
0,140539459052823
0,161000456209667
0,159746977018379
0,152196852960074
0,143334243082218
0,135801839612883
0,149847751380334
0,132925442201306
0,146903887234839
0,128128051332972
0,150052878531349
0,143350385350284
0,134430098767658
0,158815959871696
0,146698582442231
0,149496937681423
0,151022491662781
0,147086848393955
0,161488147800226
0,160431555294187
0,16441735454977
0,157101126343021
0,161582593503268
0,168869979785786
0,1592986522742
0,169094421268416
0,166710151507688
0,173918319062718
0,170612660948411
0,179524004212454
0,183718132612186
0,186682115792941
0,186763549874116
0,191306264065236
0,195063756362633
0,214085418733626
0,171282056066966
0,237286454654548
0,20204230724526
0,23081491230307
0,22213917370233
0,225786265722513
0,230582826062991
0,225961468494038
0,230477499734241
0,233859957211521
0,241741652365465
0,256120106999374
0,233243315268006
0,257645020629904
0,24491667160229
0,259347345271464
0,240332429070556
0,276865488685188
0,241165743469469
0,284300370814541
0,276746058042978
0,264911640352941
0,272246130135249
0,263601311557726
0,276143330148564
0,268352278447217
0,26881979191693
0,276813585501158
0,275563814161352
0,284067290046126
0,27114645456441
0,278700725119542
0,282935693265761
0,281390741855225
0,284574918820357
0,283324024121754
0,290723510444777
0,287332927508274
0,281334883718108
0,290835111772032
0,286266351469806
0,31798813218784
0,294816949870624
0,305298854054912
0,30738363597162
0,307138304507543
0,304217636518102
0,307823498368785
0,32202838534135
0,31468914056447
0,315471328977406
0,319510501880362
0,313346443460365
0,330464860305023
0,321701876954177
0,344439600253622
0,3155814681591
0,335669928963945
0,307007911987986
0,345363349352515
0,348029252202573
0,33174418913857
0,347151780794703
0,332771434611378
0,341268909652309
0,334435260132216
0,339737430920151
0,334650266394404
0,345579244035354
0,339043829974005
0,341629367074317
0,33733369976967
0,340295454228545
0,343299476563574
0,342573327613401
0,348493285763502
0,335945411477664
0,341964250981284
0,330986432793878
0,336975273279738
0,338852308899097
0,346345979950083
0,336150199034408
0,334439984381409
0,337373242741226
0,338070374980492
0,342923603495197
0,337357886695598
0,3325614914505
0,34119754182525
0,335249785727362
0,338092642890922
0,34132962037718
0,341325385708471
0,349385187382455
0,341650176891073
0,35095795576422
0,341335593029076
0,348533352773091
0,349676698553531
0,351919900129541
0,354890134734216
0,361361480254161
0,354411924304273
0,360413371759994
0,355167256292739
0,36254364968456
0,364165976307592
0,370198908367517
0,361911787140279
0,357459840743937
0,356499725376432
0,359123174536697
0,35814109414417
0,355686056093108
0,346208009426851
0,350298347096353
0,341182131335643
0,350378799959166
0,340298630636988
0,351672134604427
0,330480343565707
0,339895039428866
0,330109675815795
0,334502459687811
0,326004158922172
0,325768110499061
0,322741647375998
0,322505441426035
0,320069550843567
0,321003739267069
0,317985225856853
0,320070969142349
0,319080216433434
0,318645701389074
0,31317537882554
0,313339629730329
0,312910602531547
0,316521907316418
0,310168368372108
0,313441713227543
0,306140378653439
0,31522336685935
0,308087634377017
0,316784903320701
0,312449938250768
0,312663729456367
0,309416092131511
0,308941708886847
0,308272475139378
0,308208671941625
0,311082084971092
0,307738933632297
0,309985044387754
0,307443230048721
0,312302787979389
0,304265501126483
0,30848385209587
0,307074811757915
0,310892920562566
0,303847028247769
0,306812840190291
0,304481588227777
0,30605949492982
0,303813527435796
0,305242397870971
0,302795315909937
0,304738939770114
0,304701554907266
0,304306912972931
0,303605203949649
0,304225828907529
0,304172354858002
0,306366675364774
0,303105942943753
0,301637963245239
0,301731645126609
0,303997566467623
0,302599980231773
0,298210072638075
0,297171257525877
0,299814812609364
0,30160121441234
0,29721637303825
0,297414400535452
0,2966095761541
0,290792148462996
0,291015665042451
0,286649325549197
0,284797285771846
0,280368722157373
0,280329113159423
0,276931817635632
0,275100304810535
0,27637997636451
0,273429168833124
0,273718521084203
0,267333455995948
0,266516494485663
0,264040755442193
0,264071489075193
0,263330503043711
0,260350959993537
0,264339658480933
0,260674904191578
0,260543583398375
0,258436231104879
0,260067557309769
0,261134902123843
0,257706587506216
0,262316191785815
0,257878946363667
0,259618592768715
0,262174962387066
0,262456950085069
0,262210845520972
0,265857179540351
0,264851583639562
0,266387377724751
0,267042452558573
0,269033228817087
0,270672202347067
0,272215637839219
0,271697847438072
0,27315311452829
0,271690946947128
0,275158395105349
0,272369097226101
0,27641158583117
0,275303526476835
0,281180399602671
0,277344024394821
0,273925647491048
0,274031869332413
0,275080146161347
0,277086514193509
0,276059714967057
0,274885556908967
0,273253794017518
0,273267832369796
0,271688970962878
0,272034887032664
0,272744003460013
0,270817739266963
0,268251917447615
0,265113964155044
0,266461784262168
0,266072388546903
0,265331885595058
0,261032513593792
0,26301032176806
0,260992862533722
0,260070979675826
0,256998236670462
0,258492091373924
0,258450709339787
0,259335321535566
0,255674624869532
0,254134491504904
0,25620815070087
0,252003592855618
0,250630758101316
0,25066761363368
0,250948417679504
0,250861095819653
0,249243364074506
0,247574371281815
0,246060650871282
0,248259282394278
0,245558690677432
0,246184345387311
0,244128916516611
0,243358303712963
0,242661787550039
0,239961940227444
0,237371171520233
0,235493714654853
0,235302161722905
0,233758228056934
0,230708823476253
0,229847049757377
0,22870794466684
0,226164883487834
0,224422792617321
0,222049469072322
0,22184939598699
0,220192391073053
0,221192242439378
0,220602768441363
0,219221609875734
0,220090555332026
0,217725076483922
0,216844167950111
0,21830439845755
0,216216441787164
0,214055355420559
0,215199073841091
0,211462745561863
0,209975202167709
0,208903113179229
0,204142807651523
0,202505982767405
0,200673759457372
0,197816608827735
0,19480032531879
0,193937664868535
0,190525448996117
0,18864245347351
0,186621904265036
0,188007219615115
0,190856183720169
0,188884765068294
0,192662192908932
0,195984770132131
0,200177921784694
0,204862764194915
0,212425542706649
0,21790097961285
0,223300091465699
0,231937656848555
0,238511715673953
0,250903740526289
0,259758447641021
0,268945118656793
0,278115333506229
0,288243961839044
0,300125684506869
0,308876962799513
0,318607203293207
0,33079693833033
0,340014731681173
0,349826943350205
0,361356800923111
0,370291552082176
0,37999386568726
0,386437956392106
0,398632671656104
0,407024575751347
0,412660467394607
0,418727833667807
0,428479367873829
0,436064810118452
0,441664479416266
0,444233577154817
0,450087098011877
0,454366845655938
0,458266207269154
0,456769007878903
0,464999588708105
0,463802317032239
0,461258448398533
0,457533985505979
0,459187604279255
0,462929411563204
0,458805929825084
0,460706026885994
0,460186159043397
0,459084966051348
0,459604064854988
0,462883991450059
0,463115500402502
0,462300436636577
0,46480291123928
0,468254564540617
0,469385283445763
0,477130004568672
0,474804383023534
0,482131144668581
0,488484868631827
0,490003832690192
0,498571537268437
0,503890168923048
0,50707282368666
0,5147007797484
0,520993237888904
0,529762221034172
0,537024323438907
0,544450266771459
0,553359539619948
0,558222338223015
0,565249695564158
0,569549482100285
0,575968674195968
0,578686307036064
0,583655570212226
0,585485472435918
0,586837773100059
0,579422584725457
0,57896473875866
0,57856228528934
0,574670300631555
0,574234946783517
0,567562168350146
0,567638898593223
0,565767003884791
0,570226523056626
0,57164483065528
0,57207242069964
0,584163818560234
0,587844621297433
0,600731345992229
0,610378288020659
0,618334113364768
0,625379062893026
0,630668587365861
0,634266280212444
0,657689356298568
0,6590337743977
0,6705190822986
0,676268931755505
0,689937877302377
0,693376900906182
0,709771235364983
0,714588633024094
0,736007670642278
0,736549047663034
0,745881281310885
0,76522514342815
0,773914881376158
0,790969462904233
0,811788926434767
0,818191956300476
0,83987574763739
0,850388331814613
0,866234480619265
0,882899988256685
0,890278003727499
0,909521125302385
0,922944606175123
0,925607583979318
0,942842655942143
0,947365652908666
0,951290750984375
0,954527459062468
0,972236115409982
0,9632450918356
0,965798474748153
0,96137232405576
0,968786544584003
0,951531311538649
0,965492531725867
0,954620477783648
0,949340248288028
0,94508283968839
0,954801285945202
0,944931237303324
0,9342176199128
0,959562549989595
0,951392681834604
0,94632282838422
0,947955752736961
0,956723093827811
0,980612143454452
0,981057383400255
0,981929947158058
0,997081167537815
1,01769266620525
1,01794302365923
1,02904591577465
1,04967699238232
1,06265171492144
1,04992392813449
1,05888124244088
1,05913771222798
1,09299698844801
1,09500176101602
1,11194929770671
1,11996208552804
1,12611501378419
1,11706363479808
1,1327991612762
1,14254966230694
1,13902151012992
1,15363431701991
1,17343977518394
1,17578774884017
1,1883151241069
1,18418420627632
1,16790362968577
1,17790186594163
1,20887419119112
1,20604894675275
1,21947809626413
1,21769175175471
1,21298820143799
1,21508680223201
1,2202117970916
1,21573928041831
1,21033914316881
1,2047544451017
1,20758915708108
1,18940088115027
1,17640068203351
1,16311827109636
1,15464715561177
1,10416010101643
1,08528210090463
1,04030503418268
1,02313835187709
0,997313336446405
0,959178873991615
0,920955640062374
0,887036806780148
0,853479665039005
0,84667696950831
0,813973834342587
0,799907386221014
0,788352244564444
0,781813735053636
0,770484900915987
0,760136825526346
0,744372008624037
0,741039253474832
0,739310026715004
0,733681782028355
0,728541466134003
0,715227953731927
0,707026026724206
0,690701380379736
0,679358371571052
0,669957585745612
0,66033831141464
0,651587454630419
0,628423079025746
0,613966253322693
0,591185910790662
0,574742024372299
0,560296073438837
0,538709675520014
0,517699549461355
0,501355695980028
0,476724517182457
0,460844438541043
0,439462625869997
0,417301029586104
0,397284847378412
0,381789805767395
0,366185299624948
0,349508674014577
0,333288651054712
0,322466389809206
0,309392920904294
0,299705197817243
0,287574908197317
0,277710988865495
0,270375993597612
0,264194629103752
0,25472325439373
0,252696222244565
0,24638348191518
0,239934472289024
0,242057340907066
0,239427300042085
0,236127335092285
0,234554420021979
0,231590295528329
0,232703969773841
0,228684767317691
0,235863654416707
0,233501270846307
0,234993045906527
0,239841818585541
0,236510459848947
0,235146509076828
0,239014276153667
0,240358573985397
0,242063224230804
0,239361633710807
0,243912770857362
0,242144710079754
0,241272343925
0,23770512913203
0,238576242186091
0,234250997657982
0,232021521944747
0,23098156604405
0,229478626465627
0,231429397115667
0,226441923353104
0,227925381159365
0,229067393113726
0,229099679958231
0,230505476109544
0,232376172937384
0,231577793795404
0,229793585752281
0,235855341265481
0,23277928829238
0,237525381001294
0,240925722212618
0,244830550181004
0,23930617689444
0,242604507023108
0,24557393502
0,247543064729102
0,248535328918862
0,245214929542731
0,252198907202772
0,250173077628585
0,251384643107543
0,250978064565389
0,247091301088314
0,252861534940558
0,252449742510983
0,257104747269247
0,257471786437241
0,253925035852008
0,258697346997239
0,259912374322244
0,260026823488246
0,26275856772021
0,271561551454581
0,271710049325042
0,275624559359307
0,285885915638404
0,289116440659872
0,303154566268916
0,301970083731277
0,312454008409251
0,320651490095792
0,335647241824715
0,337893492144968
0,33899516175016
0,33601913472874
0,339625251852544
0,340956078016776
0,338134223363639
0,327869483207056
0,326588091303671
0,327253996779862
0,325551594161492
0,314215792918888
0,304797649299913
0,300974831909802
0,306602217155562
0,305677445836068
0,303164795762555
0,302609394346855
0,306159969020735
0,303672152888147
0,31184890087578
0,309670883013422
0,307348504172822
0,310958224396038
0,311159101294862
0,294722039864101
0,309017474473482
0,300789266313924
0,295932200275883
0,292363285782968
0,290241353206243
0,290898734199891
0,295974947204595
0,289160137369499
0,279886542720954
0,283815558281694
0,274199645021551
0,284481182673825
0,2817483332387
0,274010871311753
0,275831333541385
0,271810377637212
0,282427694383103
0,280932354931444
0,282349397596011
0,268542472153076
0,27401151789016
0,274316596924304
0,275506466624482
0,271898525401436
0,273547321602524
0,268942367388445
0,269079923725185
0,27309221961378
0,26424885538541
0,275463591453419
0,26518112574176
0,269504829154491
0,269988701926178
0,254864277663771
0,269738455627189
0,257239098223843
0,260066490728463
0,263642648050621
0,265296784335867
0,260879107991787
0,267672977352107
0,255785158138093
0,254089029074766
0,256825276583791
0,259127141184898
0,261707639992901
0,268059124606933
0,258850252910582
0,257153803203301
0,262824110205473
0,266796993080498
0,259952213020196
0,27139722765988
0,26017043454579
0,264531634077853
0,264862387234369
0,267265176310201
0,271859019549238
0,274224447067145
0,273966838649391
0,276763223943359
0,273437500433262
0,270763510876202
0,27830936726959
0,277056685156232
0,283478029802629
0,289170841411215
0,291324930548526
0,297763564084537
0,291487026118093
0,294543114181586
0,306237497804316
0,305819422276875
0,303201623318055
0,311346073594117
0,304081724056986
0,298354903795959
0,318191807204515
0,339035230657636
0,310449667246419
0,34646037038199
0,354391111808381
0,360624002914734
0,367141913421666
0,363146592405809
0,390350239994244
0,395685387846488
0,395028775462449
0,416207100565486
0,41671123738309
0,443042417169526
0,411081043032673
0,447567482418131
0,441739281453384
0,444518142366359
0,430231198749436
0,440379721476091
0,443466405289056
0,454658488825865
0,434659450850226
0,441221475632036
0,413178568784523
0,443596328568542
0,436037426021804
0,436342296906026
0,431065558338166
0,442032370347449
0,41668492721661
0,444439809674832
0,412483367002951
0,446194454855373
0,430784235787087
0,440317352819847
0,420486256112651
0,441244984207373
0,426401770873131
0,40770855394352
0,415186786158003
0,435105799491419
0,399371354112755
0,424409506872779
0,41716287532781
0,437132105515079
0,395531997030293
0,402792891635932
0,383777463339457
0,410649920483557
0,391482144536971
0,408065413535718
0,39104852404334
0,399974449270404
0,393193811234965
0,399039008268707
0,41283633820881
0,406617085398555
0,40792942363926
0,40601183195215
0,408401292453991
0,391845989618448
0,421468555261367
0,420941859076051
0,400125994155303
0,451653390408482
0,424411849371659
0,43681360602829
0,395537483824761
0,425350963796257
0,422248493741522
0,427021247494175
0,430359010255178
0,430431594855194
0,428532088074952
0,456389002643704
0,427453440043706
0,452083500513991
0,397664312395806
0,455709769958186
0,373340559781322
0,446499625991435
0,461719131029626
0,453976710432133
0,414553633728401
0,48517140281792
0,50568159646767
0,488435978901841
0,464531170079897
0,51875268482287
0,468259805076179
0,485444844477581
0,440235654819949
0,546864396408525
0,56435879295935
0,507392045220599
0,441783497163264
0,61233940109474
0,494722220689577
0,586085835231353
0,540040159175649
0,496544610278838
0,589918767129354
0,577318560105815
0,545838430124627
0,527351646343697
0,502354656099632
0,626472917789315
0,581680832978202
0,567437147703348
0,534753389718377
0,52478653665631
0,482463137619042
0,543528615924382
0,514646999542684
0,546887448469879
0,478449541014177
0,52600803505764
0,478836742891979
0,585151862144246
0,528843022897052
0,603990536279499
0,501531695749498
0,635525139229022
0,536862300157933
0,567071316545853
0,544711412184422
0,51499454660074
0,44701482902252
0,561154123509534
0,5166723431691
0,577618946385915
0,477817811157144
0,667176329056396
0,533710632129805
0,662568050626649
0,474197582304834
0,476041388425187
0,485246970662472
0,660976138679368
0,438774503028831
0,635264756770913
0,368276848545318
0,416489066521674
0,415868802274889
0,684014221278591
0,444344437226816
0,517878768747029
0,565826715543607
0,820539254787624
0,439468898724724
0,680999194958941
0,636246438013812
0,559913933971092
0,420059447354749
0,743172972534339
0,43715468158931
1,10709582766078
0,6421853355602
0,872157094929818
0,583894763145125
1,03162225952518
