3596
4000,36533379555
650,420452594757
1
2
2
0,0314016845219778
0,0425498565492234
0,0280989897226591
0,0432012778469443
0,0269367452550231
0,0465463292854358
0,0318413522295601
0,0423585738147906
0,0284184659157115
0,0421368265916143
0,0328293156369133
0,0493576780092389
0,0304067075260363
0,0383123963263612
0,0360432194769316
0,039831300816109
0,0287825794073521
0,0488991624441704
0,0331219302345757
0,0397725395764863
0,0305911642299162
0,0421220446881185
0,0304764635220534
0,0358025470072289
0,034418851559595
0,0384759354833058
0,0232469941478473
0,0413810308067139
0,0352343954788571
0,0395748750477188
0,0233101226641008
0,0367659728586278
0,030208654737507
0,037564608284394
0,0307714100498523
0,0481411319337913
0,028997700823912
0,0352390086665119
0,0272562028861872
0,0376434661876308
0,0363238610486573
0,0479884574295225
0,0265811633954175
0,0409968328703607
0,0289470023359614
0,0430047424670301
0,036275716612764
0,0417148045714354
0,023083792178855
0,0409340053688093
0,03015745211251
0,0344902542434145
0,0221390690435569
0,0504277343110558
0,0281778189249994
0,0568353611278261
0,0337716505294625
0,0437820511237257
0,0301125371277992
0,0384939007616059
0,0256934122639091
0,0507410422698203
0,0404549386569267
0,0426035835943693
0,0290563082066041
0,0412149423631539
0,0286320750856136
0,0362918970417938
0,0277391435711916
0,0416143337176272
0,0206007696101744
0,0441900486696524
0,0441536451075081
0,0477527374928111
0,0352399297773254
0,0486528924019626
0,0345237216389804
0,035955799582209
0,0235921719510583
0,0420388759015699
0,0315107155075191
0,0433737907379829
0,0328194293846104
0,0323646793976961
0,0208054776351278
0,053663476177933
0,0305763892359922
0,0270278655528536
0,0431434686665046
0,0463746738299059
0,0275578252512796
0,0313596721199544
0,0257466676803834
0,0349865478100232
0,0309635256752167
0,040022128753811
0,0282048349336042
0,031863759376114
0,02733825834233
0,0279769692703085
0,0158700212029377
0,043793338704123
0,0442278358205769
0,0520120166644049
0,0290818873971163
0,05404647078106
0,0069568297472746
0,0651894601010706
0,0581597612785644
0,0435586968954955
0,0332709322685326
0,0375449012846669
0,0304400340999381
0,0373726647802613
0,0114743692212997
0,0280075981105945
0,0531940603812087
0,0501002570336767
0,0294715340277549
0,0408148669609026
0,00816479415946155
0,0392901147914478
0,0585401314347817
0,0478156772736482
0,0275628425237062
0,0379068929621579
0,0102629680561391
0,059840009509547
0,0599844772846416
0,0488739162811862
0,0278999488021708
0,0398167955514969
0,0108668945154918
0,0219476058908266
0,0430484441499896
0,0590891932661078
0,0155906916192892
0,0171750405614218
0,00310009705729886
0,0776975511301529
0,040324434900089
0,0438465892181251
0,0161438177091378
0,0249925906457156
0,0580709295695302
0,0619565454026885
0,0196592059366926
0,0421648055655167
0,0434617884896267
0,037270747021124
0,0194345571583051
0,0277992278425641
0,029189115441862
0,034692028667706
-0,0259786634336666
0,0273272641530408
0,0674954152307556
0,0637442914872036
0,0696529955127962
0,0636244670928046
0,0238503392357901
0,0482465185202076
0,0270646158563523
0,0385678508511224
0,0150136251993223
0,027726928307239
0,0226942343384679
0,0618950238918536
0,0206176589769019
0,0324824061876904
0,0478748042155084
0,0441976101298498
-0,00104628043723914
0,0707069677671598
0,0535518606825338
0,030075517998315
0,0536913066646307
0,0628628482710053
0,0170833743572443
0,0278907679216998
0,0449725753234006
0,0427702593365301
0,0301784645885939
0,0346810011106344
0,0186702521480264
0,0531431792276898
0,0281730002299841
0,0443275338365081
0,0270258100550298
0,0184139809127333
-0,000419968139785432
0,0781596543973242
0,0581646207309638
0,0582048749358087
0,018519178548301
0,0138324367823424
0,010555677466818
0,0834954883059197
0,038279986711397
0,0358755860032414
0,0204270447680753
0,0299288615257607
0,0185734222104923
0,0414136238414338
0,00721548205841739
0,00687936516257073
0,0400216170934067
0,0726954223506386
0,028711586426042
0,0350672298985019
0,00852053976246981
0,0239709247556217
0,046403663616734
0,0745327203541733
0,0354116922040708
0,032889179800027
0,0112292763893955
0,0399232899621601
0,046035159811452
0,0459967844438212
0,0259599780217788
0,0436441565434744
0,0248129356632908
0,0391161495640254
0,0261610657968804
0,0407494160636917
0,0271709431006681
0,0362254996656847
0,0213975351868453
0,0345919111088431
0,0273925713849707
0,045667316305863
0,0279217438274143
0,0364031996897477
0,0105961905510497
0,0398711077619025
0,0480591359987122
0,0492805094805939
0,0255310336296519
0,0453782487502888
0,0256597354702116
0,0457619799099674
0,0252146583222136
0,0422357789026684
0,0106599739528133
0,0248189824440462
0,0386498441764214
0,0633527772311921
0,018596176996345
0,0333088025481952
0,0194285640240019
0,0550602345947653
0,0224411029435413
0,0422388266477473
0,0195380517888015
0,0294055772322425
0,00954002788727481
0,0567353482107004
0,0388073732723923
0,0337114752102093
0,0341041222154719
0,0495918773676155
0,0248719403515184
0,0166974444028739
-0,0115046530795063
0,0900257127175509
0,0322071059885115
0,0153446080342544
0,066382826589243
0,0759597241822212
0,0340156168519982
0,0200437943294978
-0,0425566302648906
0,102407135497731
0,107624946500537
0,050458347677333
0,022835246169925
0,0422455785189779
0,0287539690745236
0,0319699532764064
0,0238123626304488
0,0360054532094138
0,0270960411944256
0,0872333371096032
0,0606327616504988
0,0345934035746178
0,00968853993210555
0,0718936211706546
0,0331677618534522
0,0370227210802744
0,0163897680085031
0,035987195929741
0,0186544299774474
0,0479300879605822
0,0417021809349347
0,0382315509176514
0,0258450471144098
0,0592321732124698
0,0387275602388483
0,0369362480126374
0,0306976902701075
0,051319665186727
0,0347183887335116
0,0319027457086918
0,0282645019818835
0,0463596201859947
0,016948296215866
0,0233195952699385
0,0625288362428032
0,0586094796071791
0,025534691514771
0,0651932397511353
0,0468872910401847
0,0416516022293829
0,0321477393166359
0,0347652404035534
0,0309184401636639
0,0352435097294618
0,0118015412264665
0,0596769233596954
0,0376047412175552
0,0435165147757367
0,0311463529833457
0,0344599493338531
0,0292580770029574
0,0427575596230528
0,0246502028946097
0,0465860096085812
0,0240883007422614
0,0281428829858077
0,0307985402816871
0,0641850415189348
0,0142598335594157
0,0493858125266652
0,0664590626044304
0,0558276467071597
0,0287460906174013
0,0472672556655566
0,0325252739859958
0,0444153973687279
0,0318692034465049
0,0400507573736011
0,026231884870121
0,0644896530921656
0,0361517400390699
0,0317611606357244
0,00691834816823205
0,0832643130969348
0,0789758033561163
0,0707656598455825
0,0292361097640117
0,026308625017
0,0359218342144839
0,0777728748123428
0,0515895724977682
0,0820907660669005
0,0488796776568354
0,0492145970777275
0,0490994822566137
0,0522990630462095
0,0448673336246113
0,0502557795570703
0,0412259677270761
0,0523777736455232
0,0421582166556561
0,0632658680806452
0,0387972620150878
0,0465961616138554
0,0712028585590935
0,0748198722390853
0,0522546178771545
0,0551404679719011
0,0312374267816278
0,0517915687767382
0,0673926475923426
0,0952628708163326
0,0708818602962096
0,088074739918501
0,0882176355006
0,090728623989012
0,0593920044270469
0,0682982647455699
0,0517120826358682
0,0812521822501223
0,0648443795497622
0,077869872276147
0,0473351368385107
0,0783525604415311
0,0667522956195036
0,0756043573865124
0,0612699879486846
0,0762330070742362
0,0803523671318072
0,0980519337274892
0,0627100551966178
0,067379331646677
0,034782246751517
0,13214804882491
0,117176626305655
0,1101549556266
0,086647656505685
0,100871379936887
0,0730559697991551
0,0950895905775882
0,0821433511868636
0,106673048428074
0,0779386847385985
0,126274932623628
0,10410505207936
0,114812949607953
0,105949908921789
0,100923668046975
0,10053650715197
0,10944122377072
0,0927728706432848
0,145412678569795
0,109392510652605
0,103656773314953
0,110049884159421
0,133864640020601
0,109065359515908
0,132844083686893
0,113410345381797
0,12585240613882
0,110800355233732
0,131178792301492
0,114253265709608
0,141713529398501
0,126507445028379
0,135306392435936
0,126337074571404
0,141884641079289
0,119802208306177
0,150682650650421
0,133085931096597
0,159939652554282
0,135365205110145
0,158105157836418
0,139363555363908
0,135330169148576
0,137311637985796
0,16932283681315
0,146718475245687
0,189816518833658
0,156260020722402
0,157743317713764
0,15374162662261
0,170078716015428
0,146525113925607
0,16388770382915
0,154257481443028
0,184130689001538
0,160024580328458
0,185424359151156
0,167233588329658
0,181099404732365
0,168361330955375
0,195790128774494
0,176368271823654
0,198591751815772
0,18590302625614
0,191507478174384
0,173579430359032
0,2149906547998
0,200686432387618
0,229064645365759
0,194039350402809
0,20232815056623
0,202380823684465
0,216956728474153
0,182134504304419
0,2302433829953
0,213501842631228
0,22066581395175
0,208004072182704
0,233896493030488
0,21685427482345
0,243616756668531
0,220821715020128
0,248955323222594
0,22408584710363
0,256854716269962
0,216168844138631
0,25037189686327
0,234635553525528
0,26539208185668
0,23474447599128
0,2639788140985
0,249511377492673
0,279304067581977
0,2421337838615
0,280480015327839
0,256133416924586
0,282718793590276
0,250516863233407
0,286025430404939
0,262966619456694
0,297459703003104
0,261755360950765
0,290051765203529
0,263844482671852
0,306711163378298
0,272757687916773
0,293693200518308
0,288700545220978
0,297568325889196
0,30473162284011
0,315591230367765
0,303850290470182
0,313380452860024
0,303431634835726
0,323924530155104
0,305661868554906
0,335660807918707
0,310457686092439
0,33385740733048
0,313036791793491
0,340945381620396
0,313815180990993
0,36210429892703
0,324558334258667
0,364007419698026
0,326007863885986
0,357748611667663
0,344047200199405
0,374380512314992
0,361988495010773
0,383709783464399
0,327644942531249
0,382468006689082
0,345089138715809
0,385329910156729
0,345455659994526
0,388693079747326
0,367671679900925
0,403185477696951
0,360930754598782
0,394182173535089
0,370455443800056
0,411761411779402
0,3744646231593
0,406413428663613
0,380324052499771
0,423186880438051
0,378304131512219
0,442898672995432
0,396629948025826
0,428993115764419
0,417519100960649
0,419353109443759
0,416053378653429
0,448322833406009
0,409935610389095
0,441440835807571
0,415927256571207
0,467150986573161
0,420722191061805
0,454359254007901
0,430092194716971
0,469443933767698
0,441123335787014
0,459230578174756
0,428287704419021
0,477602886621033
0,431890992617559
0,480367375795668
0,461694770510014
0,483118892105262
0,442767037589588
0,475246810682537
0,473962132733963
0,485481628030523
0,48176414267126
0,503029798118289
0,463180166928645
0,513531667276609
0,485430855948853
0,509645378345763
0,47175267815235
0,517885507424287
0,484074749452955
0,544300415156457
0,490822929785434
0,512468853381557
0,504353164218824
0,523140206859891
0,490581965123682
0,526452521358112
0,495271120200198
0,534960333225091
0,515088048402132
0,537337615584545
0,517798554920132
0,581592943256438
0,528030604795748
0,54067933674308
0,517414176960048
0,566641460948956
0,538805771580793
0,558282590552985
0,513373830631783
0,56864884707734
0,533066430590515
0,576530555967746
0,550610907461874
0,570092710453103
0,542600190545264
0,596765352458416
0,572339196911627
0,584516970527693
0,553495686764984
0,586559616124809
0,550236681053776
0,607656192809667
0,593566270423206
0,622176658168091
0,557501815200792
0,602955869764002
0,557153556047058
0,61871608940491
0,579732215538785
0,624348809448099
0,589316955012159
0,620389213396088
0,570499103100428
0,65251040788941
0,574918286849296
0,640353722339563
0,590790186575137
0,639796583866549
0,615902562717261
0,643025614329393
0,594543904233989
0,631489257875011
0,623273214719477
0,662047837564783
0,597727909442523
0,629460900139507
0,610821055587588
0,655847394719147
0,615724790463191
0,638013230383415
0,617148857975395
0,66264172843598
0,615951901908305
0,68960484016911
0,646630897690018
0,671566747964995
0,633546375984683
0,656498733243257
0,647066814212892
0,674541379659361
0,631766581998125
0,689707497206719
0,662844999056352
0,688718982736928
0,658229858709437
0,682580019370389
0,63512503893012
0,688991347859581
0,677298697942558
0,679012609582428
0,65081439545336
0,663578353834025
0,659367217675223
0,710128751116914
0,657357218998809
0,697241545217607
0,676476350660045
0,716306741855436
0,682578315805886
0,716702251336949
0,664152350439248
0,707860330047317
0,656990309478847
0,715969046527948
0,661006455334469
0,719220765819141
0,66684920772404
0,707637479016559
0,676903254303999
0,705269695128905
0,689257548120249
0,745934545767348
0,683622968787815
0,707338554590081
0,6804847101403
0,728573919144413
0,682544355135624
0,715538573835375
0,692463686559135
0,738965365656337
0,685849929834652
0,740893342333563
0,692914005414092
0,71305072715069
0,695720317035875
0,74789570612237
0,678884622760152
0,726232136614619
0,70131482171779
0,721942879674333
0,705990015801441
0,745605530449439
0,696717296144515
0,740969758275063
0,691054591199062
0,731337386221339
0,669852407742017
0,756964836642907
0,706171637215285
0,734374443145816
0,69981221745448
0,737115730356884
0,696214476505648
0,733115277669608
0,713876639879589
0,717007834540588
0,703628738194111
0,717450932698387
0,720343352967221
0,723507585902761
0,689388258094472
0,74082057902406
0,698974554760646
0,729408810864066
0,700092081984044
0,762396022027106
0,708920117556421
0,736271822736654
0,709657001080786
0,741991503988566
0,705530214381824
0,72653387522379
0,685043035792777
0,747395691110339
0,701546138815304
0,731151585490101
0,691991030807113
0,729835061561872
0,703031171316914
0,762190333761341
0,700064515999616
0,731374911975204
0,687881734452827
0,708945436488662
0,711087141786358
0,738891579658079
0,690486260651548
0,735082091531661
0,688290079223723
0,748136534407118
0,690274046365042
0,727160834389004
0,687693762106856
0,72899157331472
0,68850001645192
0,725167833027888
0,684835116689379
0,723875031098292
0,706410036345487
0,719517087745977
0,717080356381206
0,727790787564576
0,71014084315432
0,733312811918109
0,689096856220266
0,731855450363404
0,661448085017052
0,717505201454143
0,672503270574866
0,709895220508278
0,673671559329412
0,737993516502679
0,677237065322948
0,70228505396041
0,686936855025552
0,715603694078505
0,673508764490155
0,704956465845189
0,672653424503199
0,711814666513829
0,667918619960955
0,697501165913426
0,66873257900693
0,722025480599577
0,657940075336585
0,698001813151306
0,675016564540438
0,687740176087602
0,678926713253153
0,695281426111094
0,672375301229786
0,712300753470386
0,658973589393875
0,691858444288964
0,651187511769984
0,697519664314318
0,649065462754373
0,688558153326517
0,659097458202598
0,687573614287592
0,678969052038514
0,683158680301492
0,649079827460956
0,690167453942326
0,653093950298526
0,665117481261462
0,641262634965246
0,668500911213063
0,651482341546408
0,676598440611623
0,627533794618631
0,650383102397004
0,623955564577683
0,66348765509266
0,639093118178407
0,661882699776455
0,626396060618194
0,656787145022646
0,609578718634245
0,645375284768351
0,617730642705627
0,651110034793116
0,627286721987918
0,649060743157579
0,62151174947822
0,63514493485634
0,616323183805119
0,636212817455107
0,608055680989584
0,628429926724986
0,613370842105493
0,629678522571155
0,59387446548918
0,633135404436923
0,613602291565902
0,634685222831613
0,590188514942736
0,616029355602986
0,587953503485544
0,621661828143297
0,579316093648627
0,6121290319314
0,594103190410806
0,600940917518561
0,580630335856277
0,611322216874141
0,585954723247457
0,588988960407539
0,566341642013391
0,592772420563076
0,556930727321936
0,591158746998954
0,556955643573388
0,57652092174318
0,546691218381172
0,585762154384097
0,544626287613585
0,57858087863741
0,556513135327416
0,577408913811789
0,546858993793068
0,552671398623929
0,537212094479224
0,559843876189553
0,54335885081954
0,551100535111499
0,538262656606787
0,557694223107871
0,534193003783893
0,541582455331704
0,518373385437114
0,543871234116628
0,513764285971962
0,539488331087134
0,508707177275066
0,536312738220618
0,509246003722407
0,516444877609248
0,494452331758448
0,519588003913515
0,497950880048531
0,51648053628464
0,489981913899057
0,51567758196249
0,501083854156929
0,50345279103081
0,485958667700263
0,499295178642033
0,47138717156101
0,496886721113684
0,469979568656743
0,479033899973978
0,470716128837819
0,479864865630629
0,470125069886875
0,485372102792153
0,465844484717303
0,476985272151096
0,455326129428712
0,479002201598373
0,450333791987316
0,463429401131747
0,451293017484486
0,456965548909523
0,437058024410731
0,449702537250664
0,430753012841481
0,454216198897211
0,432172975994525
0,444349742105175
0,427386765885781
0,450597543231552
0,423440132579482
0,438188108825833
0,405155272231178
0,434005119783751
0,4075285755461
0,435695549599961
0,416374675434662
0,420159115321023
0,40459133067644
0,409473151805563
0,404752262712122
0,416379568856694
0,402114163170457
0,407675314611713
0,393645040962281
0,412663797568217
0,388701941147439
0,404173835297282
0,382868678544666
0,3996578810459
0,375623330462217
0,397254550152341
0,377404518037951
0,386051576098288
0,370488972614411
0,380828322119766
0,361064974447446
0,372436412765291
0,358944944263431
0,382018714424173
0,362396410618923
0,373713586644573
0,349687308524323
0,363580824064626
0,347162030440159
0,362175522353117
0,349353229664616
0,36570764477624
0,339607220561405
0,354419259525822
0,337551207969166
0,347015493825435
0,333142924096748
0,349350994162881
0,331426218542925
0,343528917116395
0,321211463931055
0,337888392076714
0,322755600189764
0,333031918523572
0,31582169847915
0,323463950724975
0,309447837229013
0,326830358149294
0,313808726011246
0,320377211293719
0,313153069164988
0,321706099977997
0,303495700999901
0,310495758635513
0,302910148086867
0,309274440388373
0,301704854980421
0,313468945324683
0,293143691664745
0,306337924141866
0,287796480876285
0,298347106484004
0,28507255216287
0,298131490581582
0,281669080012281
0,28862856259326
0,276385203521617
0,283371416862902
0,277443488136235
0,293794101259801
0,274687805324208
0,281809034990962
0,270051440106803
0,283839097127521
0,264762803609081
0,273988061250688
0,260282326451631
0,27662711397156
0,266569316280669
0,274964638131849
0,256613233785821
0,267501054941394
0,261207157178203
0,271221357408998
0,252441863064048
0,259871090373533
0,250307510517038
0,261190422934083
0,244300305813497
0,257723832091695
0,246114658254644
0,249471869027178
0,241302652810135
0,249758079743472
0,240024304551068
0,248511551284272
0,235948708722169
0,243542747893842
0,234622636982279
0,243632094751419
0,230112037606539
0,245248942182158
0,232114735068325
0,242163393430872
0,229042301831788
0,235427591098231
0,225308632255219
0,232214580145528
0,223141180167879
0,229668036328653
0,21582439985613
0,232563065525296
0,220352993598565
0,23053482104715
0,218771820073787
0,229168797535317
0,213304620974771
0,219930819030769
0,215180665774233
0,218796768048827
0,208746017110345
0,216616571136949
0,208046491337046
0,216541624768748
0,202383804464089
0,21632094236092
0,208676693269809
0,215216618235248
0,199104897375573
0,210515093864297
0,19783014112163
0,205621384304124
0,200455224712021
0,203699132864913
0,188110382844959
0,208018101471493
0,18830114077147
0,203876804402882
0,194564940664692
0,200956028827513
0,187138807866402
0,205829162270489
0,189645113964354
0,202068789562173
0,189877451271307
0,199821121424763
0,187177698213339
0,200643146850141
0,187824490039638
0,199053420179741
0,188876349542998
0,196180153314309
0,185738345692839
0,195822101925488
0,18751661330873
0,199017929632706
0,184144330646153
0,191149340680151
0,185528304053592
0,199694225543469
0,184587577065124
0,194495232993422
0,183897571866695
0,201760013327021
0,189459342180052
0,198586508237057
0,186128960999415
0,20130174539526
0,185576271827357
0,198297353192368
0,187902862256133
0,19941866664524
0,195625777899484
0,204708212280964
0,18822967430483
0,20204706155543
0,194589870677243
0,197142043441482
0,191996539793023
0,206036146333078
0,19570899814647
0,205499679748543
0,200122047754267
0,201788114949402
0,198116079736855
0,212246817090931
0,194727154321539
0,207271916799607
0,204308465784326
0,213683895316805
0,199992524939664
0,214872687463492
0,20817913049456
0,221412466525173
0,208747486044683
0,221505264291465
0,211310040004737
0,223513180459412
0,216157686028989
0,222532805985226
0,217394341511442
0,234941663672561
0,225319884708716
0,234915958267735
0,224684375976588
0,237359780658387
0,228863757428796
0,239188542432219
0,231164598793551
0,249824242799625
0,240310861252894
0,253196338231995
0,235636032878829
0,25513589339177
0,243204428587004
0,264020281225341
0,254614657030011
0,265155166579952
0,24774226021473
0,273706157073559
0,261133788906381
0,278684255745429
0,260131192610414
0,274932924567667
0,264630335465529
0,281770817778033
0,25867482754824
0,276074839123534
0,271759882149209
0,281798466492344
0,275585607087922
0,284919655096648
0,272236778181007
0,279979125873939
0,272323436239435
0,27971115405108
0,268697212307811
0,277880751766086
0,258151963067056
0,279333176718149
0,262445306143411
0,274746238301288
0,266330429579059
0,274733997272841
0,263050260264023
0,278327074169039
0,265173318591663
0,275933254785085
0,257397201643626
0,272996675244769
0,261980945257888
0,274861208406037
0,257584026696046
0,270813759232119
0,260366352411642
0,269122355825147
0,260627525884838
0,271928340745512
0,260979247564604
0,270755716032993
0,257006177353606
0,274108834521438
0,259775785819642
0,26705530874016
0,252341766998905
0,269852476925125
0,256048703941415
0,267889045023074
0,257893715098963
0,266165526448405
0,259335727773022
0,271568945907947
0,257284638192782
0,264263032385992
0,259128052591074
0,262369875284199
0,252862633015811
0,264207273793477
0,250350602062023
0,261960897390815
0,248992534551225
0,263083747708217
0,244256353500997
0,255426220281226
0,240424621550221
0,254853479056492
0,241808246166859
0,249696541604697
0,242394956478408
0,247413006259491
0,236326601866194
0,247371731685696
0,23072514240324
0,23949617346394
0,228910371906399
0,235856374690058
0,219916608900511
0,238891615959704
0,221779621425074
0,229399206927564
0,218791585383905
0,231381624495713
0,219396081629522
0,225516286459868
0,214343204419356
0,222621332609857
0,214091335423088
0,219056051915055
0,20462259703774
0,213049721117716
0,206101738607879
0,208244939510198
0,197789112630513
0,20887833617235
0,196747227539566
0,207140740762964
0,193587375878265
0,206565372770852
0,192942808912401
0,202234657834533
0,18972727030624
0,202503236444229
0,187106510893584
0,196550070356349
0,180834573724236
0,192372032238857
0,180498074846873
0,193110644011703
0,184041180843496
0,186010980888436
0,176358247408147
0,187727034093731
0,177722432543625
0,187792889237953
0,170819978188252
0,182006553946142
0,172699829091885
0,184609433015658
0,169774718292871
0,175117370868318
0,169132213371752
0,176617096344136
0,168861750161026
0,180583499380752
0,166564048446552
0,178228315164651
0,167553452301686
0,171298253203954
0,157449251430943
0,174320031711509
0,16174824303171
0,168323695170568
0,162340088527044
0,167744578349113
0,157580151760766
0,167960194747601
0,156321330298479
0,165034730169935
0,156243760767112
0,164361220079392
0,155694166700775
0,161027128742721
0,153408259016856
0,160797426166173
0,156677202317706
0,154167023258013
0,152506550083258
0,157182925701678
0,150056888809804
0,152833122133769
0,144737183928384
0,15569600415695
0,144151937651873
0,152596389366944
0,145161083567442
0,149251482127182
0,142893717652165
0,152889265347337
0,143222680392601
0,147751822829152
0,141319677440686
0,147686927684586
0,139461692439788
0,147445397212493
0,139661904333884
0,147141326421774
0,138510456300892
0,143212817645596
0,140708531286578
0,146037515443034
0,137375970034784
0,144596302111627
0,13818835532237
0,14634368344958
0,139417038642433
0,139622579532142
0,131781219074277
0,142565658332909
0,133953629094088
0,144367355610525
0,138146541420293
0,141125628575513
0,131034634303547
0,140004881430938
0,135056392728568
0,143058666986443
0,135104627264577
0,134818381722418
0,128108403857505
0,13992859927738
0,130712911675855
0,135221647321832
0,13230873299272
0,138989916325791
0,127371658802772
0,13474588843144
0,122225986052225
0,134837024269135
0,127024091458198
0,135116224347289
0,125816649373427
0,131311202671561
0,126044960006931
0,132578514106982
0,122602350410739
0,132823943603117
0,126819519768268
0,131199118360525
0,122952462942645
0,129696084171625
0,119731075497581
0,12814076391397
0,121429329154374
0,126499905738594
0,120434157959038
0,130294797731663
0,123657551956724
0,127685936775197
0,117233784636898
0,130624909757072
0,118490948164834
0,126796604185092
0,120359282102486
0,129204113578869
0,115626699342376
0,127550116063102
0,12002117322784
0,128149651047624
0,117945357074008
0,124710353973137
0,117858989712831
0,126898224896798
0,119839064499872
0,122560466025342
0,117538848645758
0,12401126137356
0,119486257081729
0,125104667698058
0,117419770057106
0,1229498308677
0,11443369456948
0,125413377856147
0,115613539630979
0,12077730966974
0,115818794532831
0,118859117987853
0,115709088477366
0,120467988702059
0,115330502955952
0,117933454002755
0,112538714094906
0,120034940239761
0,114943386596331
0,118960714809618
0,112646723250219
0,120095317236756
0,11124530089839
0,117172925405976
0,105581625542809
0,118842438094212
0,104582690338275
0,117234528381326
0,110277701935493
0,112869549191565
0,106344615206948
0,118042447045368
0,105618667373315
0,113464407785933
0,106319772846094
0,112400376686881
0,105188192199557
0,110483341844214
0,100904115337608
0,111678434788384
0,104308598813703
0,111833741261342
0,105914311369486
0,112767077910827
0,103575120962181
0,110119862649399
0,101257271614918
0,110567225285215
0,0996899424709301
0,108156788768037
0,100799613620292
0,102625213586082
0,102642335632009
0,111451331287496
0,100025233566443
0,104019501908854
0,101796404093647
0,104294082810318
0,0981953426155921
0,103061357313052
0,0935326440090514
0,1009574576652
0,102381550143016
0,103978712487069
0,0946338120440788
0,101320686382199
0,0951494211684608
0,104650617288278
0,0925373886110278
0,100632486242046
0,0930700778362741
0,101962462821679
0,0931156971056951
0,0982776599984566
0,0905539455145026
0,0985440776152505
0,0933715717453188
0,0981158463341997
0,0862401808208488
0,0908334774154331
0,0881539668357207
0,094714148924737
0,0891114156496777
0,0913603361016367
0,0874946640330917
0,0940626293354697
0,0867366507829155
0,0889489943728409
0,0843283067018134
0,0900991652727929
0,0824751990296441
0,0908079334848731
0,0823047521469331
0,0877905363877196
0,078461038188849
0,0861826473329837
0,0831915513624418
0,08699314723017
0,0792638463542328
0,0866005743847042
0,0771011334886525
0,0849303434633601
0,0764699283243813
0,0848321894112928
0,0789635695782298
0,0830575296953006
0,0768397330854501
0,0823935424286898
0,0746210156011
0,0814349245803961
0,0782307532521147
0,0816818136708608
0,0725090873581227
0,0818659173015943
0,0751089645223819
0,0800011251131567
0,0736169317889321
0,0801832046619567
0,0736484087882133
0,0784569422888975
0,0767859914956696
0,0776962198098368
0,0740978346850742
0,0774918283401511
0,0755465755469942
0,0775927460172942
0,0713191923213134
0,0763864640188695
0,0708035083128954
0,0785525877865944
0,0695099096096621
0,0764880490510348
0,070257036455304
0,0744650549635742
0,0702746882265291
0,074687068898991
0,0695806166016292
0,0705549416080239
0,0686187780491854
0,0732201093173908
0,0651845540575702
0,0751754024679205
0,0672280027959439
0,0726805767292137
0,0654379527380047
0,0712482020073544
0,0670404161679769
0,0703627467826329
0,0655071838891599
0,069399415332465
0,0634900077249839
0,0706277095937589
0,0646255071441118
0,0700011118904142
0,0633507250699501
0,0700830766988146
0,0608714073898488
0,0701347353910994
0,0636084392480938
0,0732340932347674
0,0647947292255823
0,0665982435708175
0,0623147535372185
0,0680454424279981
0,0671808974217941
0,0698271763609402
0,0613168311001363
0,0667356138843157
0,0624794303423878
0,0653273424781379
0,0619462096380203
0,0629648113358043
0,0611810063340849
0,0672970916361186
0,0592114254069512
0,0675297539035291
0,0594322416854751
0,0665411743811724
0,0614348722220176
0,0693232972057736
0,0589743000715264
0,0654181496279767
0,0605469702458778
0,0652589589501925
0,0613443891896084
0,0690236354487934
0,059353054681988
0,0640342201901161
0,0601342952571625
0,0682026570999948
0,0606210373099868
0,0631867849701299
0,0612843939488883
0,0642424231279034
0,0606334536678613
0,0644370494486642
0,0568601636652276
0,0628528808621179
0,0559216334281856
0,0614010929344713
0,0564332453892218
0,0628934229868522
0,0588178521459777
0,0592334112132604
0,0552328076766401
0,0610921745675497
0,0572929249981873
0,0593163115210834
0,0571015724512369
0,0596336460846712
0,0538460559938314
0,0593315268520943
0,0526982127703295
0,0569755471722412
0,0556260587632702
0,0601114661804136
0,0530968297825302
0,0577305930702629
0,0546275512282894
0,0591316661923485
0,0555912104307065
0,0557996107548919
0,0525158443501265
0,0584924578684236
0,0521463330857551
0,0582396256027119
0,0497215477768278
0,054048025636039
0,0503011265413286
0,0580468555263344
0,0519437051434299
0,0584242644205538
0,0534464762811885
0,0572525877289767
0,0512637476493944
0,0586271907091245
0,0498485698633033
0,0557854553609479
0,0535200947734309
0,0579247062387615
0,051861387821113
0,0586209362304733
0,0521645855406581
0,0583387983487097
0,0490953964872384
0,053686036988467
0,0521104030803894
0,0569919011354595
0,050187831046757
0,055484222702795
0,0515847184037809
0,0569416694058989
0,0500149509281238
0,0514340993256959
0,0519778049862379
0,0564174828548783
0,0486541466864228
0,0537261671004209
0,0465980497765289
0,0532329199260239
0,0465162491899034
0,0538099154079957
0,0486503834686387
0,0547056589244509
0,0458572838637807
0,0509543520309603
0,0435144372240125
0,0506199865863469
0,0486740664116304
0,051160926968405
0,0449941203803355
0,0487759552101654
0,0461118868192727
0,0507068877710121
0,045885491999163
0,0502884489384074
0,0448720163397711
0,0493620255739085
0,0429636295524794
0,0499567205008659
0,0435430625738497
0,0481639998799682
0,0431615014812629
0,0459044366847267
0,0442365755551419
0,0496371126081744
0,0408912553573688
0,0472097284093648
0,0412328541237636
0,0464998442938864
0,0387360584741969
0,0477828649504135
0,0423741585794703
0,0481369938445066
0,0428910338435152
0,0466270118828043
0,0431741476155048
0,0462606883081531
0,0402665166213116
0,0448773522059593
0,0413134852475953
0,0434214701117314
0,0397838443266916
0,0424887265226346
0,0398522897956712
0,0435313665776975
0,0404897812730423
0,0439642374402924
0,0391057752365899
0,046775249796224
0,0393912387228777
0,0449163419558144
0,0380242291186424
0,0431301018124254
0,0386927055935418
0,0404953799130189
0,0368429666339195
0,0393251947053613
0,0342664865736933
0,0421393988621581
0,036339531169489
0,0433970501582529
0,037056996442325
0,0409099016935528
0,0385216367094412
0,0414642862609128
0,0371512416157192
0,0389718705145171
0,0353401766754742
0,0401945736770905
0,0345500473121053
0,039703349116594
0,0334979235996266
0,0391155334818257
0,033671218709646
0,0365149432017906
0,0353219526915847
0,0389730809375561
0,0350865586369624
0,0371688098344711
0,0334072554267232
0,0394172554344149
0,0336859037306906
0,0363342070268998
0,0312163494207959
0,0381135178008864
0,0311496058377668
0,0379397501487265
0,0315934064501148
0,0386358212144766
0,0324634321197256
0,0359859874863196
0,0318479033479707
0,0371726383251492
0,0316229440280132
0,0355476119787318
0,0313252867170871
0,035969472112637
0,0328877403874175
0,0369647047120333
0,0323205220563826
0,0390051797256777
0,0336428271028874
0,0367900718350306
0,0307110284757993
0,0375296986399879
0,033008244992321
0,0410642920501102
0,0317929213135355
0,0425399012385274
0,033323952346857
0,0404561258342415
0,0340035092124883
0,0478536910328192
0,0371885839895382
0,0431577109049651
0,0279205111049531
0,0307759462937816
0,0244910654914814
0,0443575827052221
0,0360822259429032
0,0406362491979309
0,0328591271148157
0,0421778119436296
0,0329512410613117
0,0397378766544474
0,0350472484042547
0,0417094119861086
0,0295486198404357
0,046034685891606
0,0306195806969919
0,043864763361945
0,0300091118902533
0,0480744080089502
0,0304542596644139
0,0421312479468681
0,0341906912904348
0,0384130546784203
0,0256397962721839
0,0380596229124983
0,0237114795442257
0,0337942279574353
0,0264868108968843
0,0332871621964165
0,0249044786878662
0,0348766343237225
0,0267482724982794
0,0405700935461387
0,0271661220292742
0,0398962583195767
0,0340471834662047
0,0391513256534978
0,0339118975849335
0,0348728950901801
0,0263116084099458
0,0299577659038423
0,0338404698379224
0,0352538954221564
0,0437878470562788
0,0363117278274672
0,0359797009846289
0,0145445798897523
0,0422154867253438
0,0296876632164616
0,0466770724760228
0,00854357279869673
0,0487298942317902
0,020453165461023
0,0545630084054257
0,00507678402405086
0,0571607020060566
0,0174043362772442
0,0522811790224911
0,015402490586487
0,0507307739757189
0,0225040176931885
0,037205714275133
0,0302015142153562
0,0312005112114897
0,0333833886537464
0,0304391264071218
0,0366470342756687
0,0240065130892995
0,0358572811150847
0,0270713239927964
0,03359218233526
0,0281451960465161
0,028877163939308
0,03125131114285
0,0286438353916038
0,0319376971865302
0,0280596046300821
0,0297175628063084
0,0291944002147845
0,028502724526984
0,0306086278170123
0,0258526487225074
0,0280331041692095
0,0268565367968334
0,0303997689055999
0,0254209829311554
0,0287363501362091
0,0281263608061914
0,0286245425938487
0,0268073651049542
0,0278021805092917
0,0269393288217614
0,0299729771022636
0,0262652907659514
0,0278773371953398
0,0251315037222121
0,0293641567649315
0,0270159342398087
0,0302146155225355
0,0289227802243247
0,0278173890151101
0,0264412249671058
0,0297451294365609
0,0257689206671167
0,0299253203626144
0,0277228406049275
0,0281801429463669
0,0261549333922666
0,028978871176544
0,028475376842814
0,0304669781843961
0,0267901717026733
0,0280626651846463
0,0268126995269851
0,0297453686570408
0,0258168370531611
0,0284476087777346
0,0286892113342128
0,0294969398083504
0,0272481457816936
0,0300681554569694
0,0271957776479208
0,0307301528572201
0,0277829499396012
0,0288798309071851
0,0270184369490158
0,0290723325081131
0,0273226471162256
0,0294367599239262
0,0274984272092764
0,0314802793458384
0,0263017602429899
0,0275597992554962
0,0259921506566909
0,0292300163527824
0,0261699733426164
0,0294807455790105
0,025750641503094
0,0303910249993004
0,0268929274101045
0,030862165131713
0,0276681066056047
0,0295791639010426
0,028939370871244
0,030383777513616
0,0252256345914594
0,029303513215189
0,0263824639901809
0,0297580629803912
0,0237989131996429
0,0275761543750809
0,0263917934465662
0,0307394303328051
0,0264922578270286
0,0295275378012941
0,0263904491525855
0,028762412750981
0,0254347145526812
0,0294842634326945
0,0267076579866698
0,0291627045164291
0,0261364592721514
0,0306261751397715
0,0275926486207812
0,0310679553088323
0,0268471812576026
0,0293598037124662
0,0258137157009829
0,0282722370224763
0,0281142528458173
0,0309416088111206
0,0279368314660902
0,0308747908462489
0,0280335637863022
0,0327423271674792
0,0293789790228876
0,0306741423774989
0,0287649154593088
0,0307411963643659
0,0272136867038463
0,030208655291245
0,026540731682804
0,0321743799751453
0,029415302216811
0,0314186133588323
0,0260510101700271
0,0330214622856269
0,0288094566147938
0,0304191215353573
0,0267403583258261
0,0316835816399478
0,0268743034899376
0,0329761689479372
0,0297139242967459
0,0301115008673961
0,0302358085693327
0,0326447374285289
0,0262895583095718
0,0288886185437079
0,0294444946321636
0,031066868376503
0,0281156232310892
0,0314879453963927
0,0297681000674009
0,0295973221367477
0,0294775365998386
0,030288284945608
0,0293066732761769
0,0314323131931448
0,027400586526239
0,0297541558185029
0,027636429611228
0,0331455542285583
0,0278588005073312
0,0324519707026188
0,0313596435869928
0,0331068133027348
0,0285158090767045
0,0313101118059981
0,028194920668002
0,0320244702386687
0,0298436754500174
0,033561084238269
0,0301102405786792
0,0340029216832579
0,0304039541840257
0,0324102337491072
0,0303417588057675
0,0322421659084589
0,0305625580013714
0,0343768151300664
0,0320969526135352
0,0334313282417272
0,0302134515378223
0,0327981937001202
0,0317297260363989
0,0345159109435688
0,0290413756759173
0,034153035087558
0,0297343097012966
0,0343068461566373
0,0330242889047821
0,0341067133157178
0,029942460298767
0,0340054923853318
0,0310655401762545
0,033089565259181
0,030044601823274
0,0333934780933341
0,0299392758176544
0,0326895110490049
0,0298555514909953
0,0346232285007173
0,0308134942191441
0,0317852446462328
0,0306144311923714
0,0328739756162274
0,029337504743421
0,0327271666641925
0,0292318736909114
0,0306737846676699
0,0285555443264193
0,0312447764155871
0,028723107640648
0,0320891788540405
0,0273866583575368
0,029655826310126
0,0276468389603267
0,0297306288744136
0,028573558154321
0,0321149410843794
0,0293885195839645
0,0323144824119002
0,031124269586991
0,0334520708627564
0,027762267111248
0,0305820013767457
0,0266113454394571
0,0307702089412449
0,0282576792606257
0,0329246285722149
0,0294924802554037
0,0325122607865919
0,0291162300656769
0,0313512734859078
0,0305229942704155
0,0306755941688907
0,0283441953473813
0,0320571723536729
0,0282570052568094
0,0305511704632667
0,0286330905800806
0,0319024984167248
0,0283836546527398
0,0296385875757287
0,0290617459437108
0,0337010693001606
0,0285254699251211
0,0301120544272964
0,0274836768803791
0,0325079473707358
0,0284904171723183
0,0308422994499213
0,0264669797892414
0,0308684381250916
0,0280497890480197
0,0302659581429094
0,0280731209798416
0,0315332478212205
0,0276540935136688
0,0318165143457089
0,028373576873374
0,0306059517161899
0,0263607575429545
0,0297102993703172
0,0259969780070907
0,0297921699109182
0,0250729402072597
0,0301075577140098
0,0267960282046846
0,0320649049618436
0,028148574817904
0,0308423326444231
0,0259392898269387
0,0300428264695278
0,028921245262535
0,030300948441175
0,026158181626981
0,0311637880725031
0,0282476687065878
0,029840920686032
0,024785017582711
0,028713221310142
0,0275293291896641
0,0304922250861795
0,0260966438427717
0,0313285267483643
0,0263070972612794
0,0292859221436445
0,027174351102879
0,0277227601794531
0,0294947999364906
0,0301093983273176
0,0244082184302886
0,0299646740299073
0,0276283820164433
0,0276651287064378
0,0252519832665637
0,0291848890904256
0,0260519760403707
0,0300217320429768
0,0291121371594581
0,0288525886337256
0,0313423187928053
0,0298680236984788
0,0273164046302876
0,0295609570842154
0,0276250454817695
0,0289941910135028
0,0262692563632595
0,0295245267915614
0,0262596790087456
0,028387610798006
0,025192149418116
0,0295379554360671
0,0273011277783065
0,0285668467634428
0,023622878604073
0,028052643892401
0,0259047975628292
0,0287391087271165
0,0242717627591274
0,0258448323826625
0,0251190114445234
0,0259684287923963
0,0227360712819114
0,0264967750655864
0,0236273467428634
0,0302307864400037
0,0240913060044516
0,0290473588867681
0,0197861436858739
0,0288237752335233
0,0224314273454705
0,0274796520743271
0,0207865454736534
0,026398753944574
0,0202395030142839
0,0250798463049645
0,0226153067501665
0,024474885360616
0,022400228130879
0,0267970697541107
0,0206927082964612
0,0243731145447321
0,0213216927861022
0,0263448847174466
0,0228885343125119
0,0257420801689705
0,0241255898133453
0,0237959992401331
0,0204234626236028
0,02600926778348
0,0191491796170834
0,0251136986851925
0,0140980754020533
0,0312554356212416
0,0269299065493096
0,0213557430305786
0,0225746277906376
0,0276120983647103
0,0234799535655243
0,0243604059754543
0,0217309515533159
0,0232520047253455
0,0224713423845827
0,0238193798905685
0,0217129399535338
0,0240082098160541
0,0222441332242977
0,0231356677793815
0,0203151193696707
0,0240460231853056
0,0231856257550856
0,0234316963520305
0,0240780978492826
0,0237212750464203
0,020124679466288
0,02488440951493
0,0201622324936268
0,0243377606990693
0,0203869580365775
0,0254294830095001
0,0245186078291862
0,0226548646847346
0,0226726360434988
0,0212032502200918
0,0229106251777544
0,0217153926094806
0,0215998249165825
0,0238023970772196
0,0228449078959477
0,0213799829555742
0,0212055703433047
0,0229728922991895
0,0218431503904997
0,0222338588263244
0,0224745473981512
0,0217687154149449
0,0204760633338994
0,0225117393321575
0,0212451049985534
0,0212773157326587
0,0235786789392721
0,0204229962619696
0,0241276467650633
0,020046959956525
0,0220231297591768
0,0165310835592912
0,0331635793473247
0,0302246132362465
0,0170208596960257
0,0251464630593105
0,0199752563228411
0,0245376281658789
0,0185572417814049
0,0240499005452017
0,01990529563684
0,0219037452115997
0,0197377276675509
0,0232406004493845
0,019994436585458
0,0235681439630352
0,0191658428088954
0,0239529088570846
0,0190072047294413
0,0247082606338218
0,0186179433166076
0,0216881856701013
0,0170373552862265
0,0256349843744644
0,0265659175180972
0,0220730699346056
0,0227950623119643
0,0202606982413764
0,0137193772671532
0,0414752958740421
0,0135200735359736
0,0295569225547964
0,016710446944982
0,0268242828084403
0,0159765806871382
0,0237509452954928
0,0149388080883025
0,0281548520187487
0,0196183501135666
0,0221728285062987
0,0203438747808535
0,0199852377378522
0,0185054468236604
0,0216028168805223
0,0177804390328461
0,0207614457083687
0,0177614281536978
0,0210575594090941
0,0174627676168007
0,022769860470283
0,0165400481867225
0,0228170828954208
0,0129617539497223
0,0257623055633572
0,0181008467171238
0,0218472096803045
0,0181332442624808
0,0228641267487317
0,0133894062713079
0,0356380263411704
0,0239184662444199
0,0191369378370148
0,0202675929949912
0,0199572243743518
0,0216581788904677
0,0217986229055847
0,0207144139336755
0,0212360661051616
0,0211555715121915
0,0204323345894504
0,0192493854151071
0,0206450359582301
0,0213543250075965
0,0193778455686377
0,0189896551778974
0,0211404661780678
0,0190021262027539
0,0210598096046635
0,0186740901304084
0,023286650225225
0,0123981598416576
0,0402046568663335
0,0180949846186165
0,0310846867559976
0,0225636846766459
0,0245722300015405
0,0185988129758586
0,0240120406280044
0,0194168932077014
0,0231258304048695
0,0208909731770012
0,0230229888780182
0,021819237498241
0,0231527062832543
0,0193587736145362
0,0213087739640691
0,0196188558998013
0,0246804194598483
0,0181632949503929
0,0204050255692386
0,022993091388789
0,0196478618283249
0,0226308254712038
0,018990534609316
0,0297014677597224
0,0154897665126391
0,023907670235357
0,00508499874070636
0,0539527990653839
0,0202948229519144
0,0243186088747753
0,0223306300740093
0,0187200241606224
0,0231162955905981
0,0167923201483243
0,0226426742906674
0,0227226812923714
0,0226110934763195
0,0206852348739025
0,0229717756475793
0,0188175887174973
0,0190530123680343
0,0121300448166434
0,0314258438215319
0,032953443245737
0,0196251246690075
0,0248315527074126
0,00882402806406167
0,0289801054377472
0,0329293222920361
0,0143364478990636
0,0294781411547127
0,0158563255656583
0,0260464094950503
0,017050860985188
0,025801570555868
0,0190311727682704
0,0273070024491887
0,018099247545458
0,0244502651507798
0,0201436384391265
0,020915691062214
0,0226264722852723
0,0235089543654732
0,0257611583096788
0,0259459784144731
0,0160003512026404
0,0321736482641461
0,0202454244212811
0,0235317637461463
0,0197839339590523
0,0227363550844051
0,0186560792857868
0,03390694157034
0,0240131246323122
0,0255131400338999
0,0311404175868094
0,0255573821662899
0,01580864783377
0,0353971535084115
0,0216814307007983
0,0320118780264865
-0,000981903525560755
0,0472403308351662
0,0284734693068498
0,0326673046841603
0,0298550847807612
0,0170145784370469
0,0272254180323164
0,0171962386907971
0,0256440175013085
0,010477742973113
0,0406350527200924
0,0113744489908941
0,034797540342292
0,0109450826402931
0,0382715294505738
0,0246717561930359
0,0278217072306377
0,0203572499650142
0,0274012174527182
0,0168864555333809
0,0370930913555771
0,0123992306303215
0,0202823811694496
0,0552348567493084
0,0248240331696571
0,0388504249742633
0,0194902485158942
0,0346554317249291
0,043165899445958
0,0174295198914211
0,0354926181443547
0,0185258446240854
0,0304487291306237
0,0134502674224112
0,0359440813440692
0,0466520544254507
0,0227299981989817
0,0301285513932392
0,0238149902424357
0,0258727647242097
0,0498806235905585
0,0234634109433448
0,0350515302345095
0,023967343114091
0,0318499602499243
0,00124946735860634
0,0701849731761738
0,0112749050166742
0,0525492206894715
0,0378989084527238
0,0394979231741547
0,037474829573542
0,0362396778623569
0,031278963156479
0,0461646656613082
0,0360650253795904
0,033014077495728
0,0198988930756294
0,0532680468830109
0,0426881135317619
0,0304763180132408
0,0426927782684358
0,0192235352038086
0,0353003374464061
0,0776956248363894
0,0620846695612291
0,0426398044764152
0,0391536336665272
0,0422741696491687
0,053138403632392
0,0317028811006918
0,0429636887229143
0,0374835227200891
0,0425531494010543
0,0381705538952661
0,0441214694454869
0,0491406971831597
0,0384682377476459
0,0494638820526633
0,0336155811430609
0,0425117258296121
0,0628944758814337
0,0652220440698318
0,0647418375255231
0,0443899640487138
0,0783919212212649
0,0431546430658151
0,0562039915657144
0,0451227449230865
0,0582356074956051
0,052517256890365
0,0479576116489083
0,052737820987138
0,0492790557241318
0,0724671820295551
0,0438506574618331
0,0706527498956614
0,063076581849703
0,0433930691596577
0,0503057183519775
0,029342191966822
0,125807563038306
0,0400202443978277
0,084864003707583
0,0162873878743449
0,120106851693562
0,0767602982671159
0,0664641551731598
0,0653582631388954
0,0696094345419351
0,0566592808731516
0,0803831680531814
0,0705450341043231
0,0810910018194587
0,0715981658576208
0,0772481306355493
0,0394400315584445
0,141772425639691
0,104727884264614
0,103119915639775
0,07769273878522
0,0936057104864243
0,096170039110557
0,0972667750387495
0,0763967567241141
0,10370474603444
0,064528080008186
0,128269761978612
0,112485257658631
0,0953351457274721
0,108188628468992
0,103337720911011
0,126242752097479
0,0746495516113227
0,164032447910517
0,10096183833724
0,123975202103963
0,111102076999402
0,122692628152713
0,114377337648445
0,124957279653012
0,149783096445511
0,119221806491723
0,128374020975061
0,123658900110528
0,129231501406575
0,130216707625866
0,134919833414474
0,134680465483105
0,125239141586769
0,182012764433127
0,139505114712978
0,193443238396193
0,128035131103049
0,147173797647399
0,132550349510917
0,141408904350209
0,168786421351154
0,126599187167142
0,179374369595205
0,135240189316022
0,143714817290447
0,142675414985823
0,136927338920674
0,144585273045128
0,132529321656496
0,149997350641951
0,129230616667978
0,17033497855528
0,0916669323648288
0,203308106567782
0,15046863826562
0,135474644194473
0,133127879299739
0,139306812438007
0,134960512037256
0,137575974960851
0,129029576907542
0,14376084277607
0,145015847528206
0,119768499658789
0,139719251852369
0,111487283996097
0,160948698106639
0,128395373413373
0,126655520064429
0,132545814695956
0,12306531886781
0,125919662854973
0,09250147680701
0,152309362713275
0,139987348644956
0,110374266019334
0,127070825978672
0,112426468678844
0,116425614536037
0,110800387433466
0,115395901596192
0,113358975132215
0,111488798654234
0,105738513187537
0,118974902898155
0,101725511745825
0,116180844699306
0,101559499062274
0,114023041395757
0,099131487880291
0,113645392190975
0,103387553834588
0,108817579493967
0,100026226709826
0,103823588755662
0,101000309934649
0,106659809535545
0,0992813455170034
0,104757205043138
0,0938165797472939
0,102986559468304
0,0955151802284154
0,10336462145802
0,0937105192654701
0,100536630700365
0,0951952993957289
0,1001406960464
0,0910419296627429
0,0968749138519046
0,0914110582547542
0,0970953105553942
0,0936857927401934
0,0962342076917752
0,0891097415343842
0,0875776504972536
0,0974674366564032
0,0694546929707563
0,132113155283469
0,0855760889975814
0,0904696672477022
0,0876606087239543
0,0805649403285292
0,0846693084700622
0,0778641776374927
0,122303768398506
0,081773289981281
0,0874753442744763
0,0792192607915349
0,0813805815064284
0,0887975878251477
0,088657214223355
0,0694618756194526
0,090165983504123
0,00737399722216183
0,17502650221643
0,0283640308085313
0,148330160323145
0,0896205990016586
0,081294782335124
0,0552374126476428
0,104463377623911
0,0890524975857421
0,0628325090070723
0,0838373294984442
0,0698179155778964
0,0983838827737823
0,0686917582185067
0,0725873722073932
0,0715023577790314
0,064320872788948
0,0888928139352286
0,0796897907984364
0,0545039487765414
0,0945802411749534
0,0793403367984994
0,0535279158424904
0,135882934595372
0,0937362045351336
0,0803476685473863
0,0617739977594607
0,0773129744080898
0,0627048863751528
0,0884070001857127
0,0919488276060726
0,0661596085974819
0,0783964383188716
0,0562920351909953
0,0700813929060674
0,0746163696167391
0,0801630317011216
0,0718059018582748
0,0687666089801123
0,0897451015158861
0,0367250760329116
0,0976326345048439
0,0510443160628584
0,121421059129194
0,0729877834161292
0,0725229434183675
0,050593453228918
0,104767304557933
0,079109270545682
0,0714892770842013
0,0738023351119474
0,0633185901638275
0,0736866261164951
0,0840060438806839
0,0540338771447636
0,0888095320099586
0,0692697330628992
0,093536617218974
0,0984236005362379
0,109093861900715
0,0873549372317782
0,0695088429406645
0,0668365123676112
0,0843855304988364
0,0635278685728738
0,0850961073233996
0,0434641721410304
0,101926144154446
0,0593921335907182
0,0882279517149475
0,0939272238579358
0,0776241860397226
0,0808994329647992
0,082835160101559
0,0756769234437528
0,105467087641813
0,0987486521947847
0,114786596378865
0,0765970216972574
0,105924351502584
0,0960068958574843
0,0924950572475407
0,0941799952912578
0,0984336989563962
0,0985373549834623
0,103516630649163
0,109662953693801
0,111475252162002
0,105527619607532
0,120545683800134
0,106477976121642
0,138763119839499
0,132219797241513
0,0997628376983881
0,172982897242865
0,126147686179248
0,16163371483422
0,132808907080769
0,144013851177126
0,145118228464151
0,141970580257281
0,154157000232724
0,144377433334033
0,175071786037545
0,171539929951375
0,151140156831747
0,173085920460854
0,157726674839849
0,177772566869495
0,155001103893919
0,213950028732747
0,142845371070198
0,230982582563615
0,182751157339834
0,181701563463773
0,179565291894097
0,173702141153994
0,19035902947049
0,175139648939001
0,182236710372796
0,18061881526985
0,188950039988586
0,197997391240288
0,17715414834006
0,189723616983966
0,182862759805531
0,18760914202753
0,187183651028526
0,190715416388863
0,195353250304434
0,186921973435225
0,190707791845788
0,186548266690899
0,204956557025767
0,235351066322774
0,185101720897887
0,209572207867871
0,198177894807838
0,206831525945019
0,197958791966682
0,203457083281829
0,221141752129077
0,208052298066021
0,212305399881305
0,20893048203649
0,208593826165909
0,221354145783533
0,21500337077176
0,236659839475461
0,19915747765225
0,232660593725234
0,1699160827055
0,267446865572646
0,22642919089342
0,221806699790542
0,23060059684779
0,216369301729054
0,225679693721723
0,217029557658201
0,225689108657889
0,221376220915208
0,225364136368202
0,218850614549208
0,225243082756544
0,214117981692602
0,216078631670539
0,214995255932305
0,223659722645993
0,230159653936279
0,207185480853132
0,216668495877662
0,204195027043687
0,213375176358495
0,211195665706509
0,233591782191892
0,207311265103513
0,21516860965332
0,209565801478142
0,216450450175366
0,216593953260996
0,20561739944362
0,201508190644253
0,217895124330783
0,199571932676241
0,212767426352775
0,204505500403266
0,224035006007109
0,22227535238438
0,213799520965063
0,221002253188385
0,212772047424501
0,219388708891205
0,218237811017486
0,221969148900338
0,222666988841225
0,231515452828133
0,227078666403782
0,232274459846047
0,226890264925501
0,238098007070947
0,238292840113641
0,242695912381622
0,237190955991872
0,230893595575708
0,236282887825296
0,23290309598629
0,242113489870066
0,236302438470418
0,234143117323025
0,232802561683872
0,231942515018952
0,233941441281629
0,236854772649336
0,249610609121844
0,218735830338212
0,245165129646849
0,220069880282926
0,231532447406035
0,224155991022933
0,228888913020441
0,220511013511457
0,226214451048731
0,220262156241157
0,222355404572403
0,22133796864094
0,219863886489134
0,219997081468556
0,220215560483807
0,216764578960467
0,21770418685074
0,215299532766695
0,217719159290752
0,211928767686138
0,215219366558955
0,210048742560603
0,218743488193646
0,209988952016488
0,226665209975192
0,215794594271551
0,219922338697596
0,208932475195622
0,218290962416763
0,211322609142649
0,212349300534709
0,215022407736102
0,211373566142342
0,208893710388855
0,206723029291376
0,212537883369554
0,21161343108504
0,208126635091131
0,20473776212703
0,207690432147897
0,201601318643728
0,202805225736027
0,200184696207902
0,203793454708041
0,197090210964817
0,205295908149222
0,202467446936584
0,203225736806533
0,196823724202361
0,199844380255034
0,197684364495166
0,193870999080323
0,195582001639424
0,197160841531383
0,19785183542572
0,190011007976179
0,192326537429558
0,191693931923317
0,192614192195248
0,191125169770182
0,190906760221072
0,191741795972797
0,191879927370402
0,189231538318874
0,188550247828454
0,188085713860463
0,185826278491151
0,185992874363414
0,183571518203775
0,182967815821845
0,180206780922085
0,178659069354692
0,174951103547443
0,17383971538333
0,174802289502257
0,171499931535475
0,171679409925875
0,167060713751598
0,168045135715839
0,16971075239368
0,167254152172159
0,164300083985364
0,163861026592176
0,164938644359334
0,164864278536133
0,162748572957766
0,1633298632088
0,162855106897621
0,16093830013837
0,162875119480021
0,163753503526478
0,161431963927049
0,162622575825669
0,162017651742626
0,163403730834194
0,162553888897435
0,164095663949025
0,166695142319
0,166221755207451
0,162915683367571
0,166326665486206
0,168429090438724
0,169148256796959
0,16834756123834
0,169885168264445
0,168630915346455
0,171549656267914
0,167931472661437
0,174169051056473
0,171413091291871
0,174408843144491
0,172357873993171
0,172911419315228
0,172734598321082
0,173523494471577
0,175589274937669
0,173755609578831
0,173348262634474
0,174326902106677
0,171783251597323
0,170263849920589
0,172659421716351
0,172548039917611
0,17058105399566
0,170699313053383
0,167674290048934
0,168970694766385
0,171272686425483
0,170291820915134
0,166904052714247
0,167487546677531
0,168836499029292
0,169745251452995
0,168723460556936
0,169390477001416
0,167313422456833
0,166793405132381
0,163187551102099
0,164946418715417
0,164241999091697
0,160837783036648
0,160576893023036
0,161587559753634
0,161034561953558
0,160630373326337
0,157399843631894
0,157625730565916
0,157079396908287
0,157498683769529
0,153369408220607
0,154201547164815
0,151708431257564
0,151018113243172
0,150542457081909
0,149037109310195
0,147972683240732
0,146995342580832
0,145334247855991
0,144693256527927
0,146838061334133
0,145502327431217
0,145007219116673
0,143943626356921
0,143238168230363
0,144192019852375
0,143074660299225
0,142081505421704
0,143733339137848
0,144568584742192
0,143478858634474
0,145566404391375
0,14496758698221
0,144624929280792
0,145168704184443
0,144124574117069
0,142173977429193
0,142719483381544
0,138895050870887
0,137799724104303
0,136322926272594
0,133092091753565
0,131599442733132
0,131801083996939
0,129014643914169
0,126266751987613
0,126268233854406
0,125595237544832
0,121689644216014
0,119566273346252
0,121470273076733
0,121829249224767
0,120494342541401
0,123043394153352
0,122770568156117
0,125912492421013
0,12750884738659
0,132423311835158
0,135038975388618
0,13823404999449
0,142922630349708
0,146902221803046
0,154380415334733
0,161903555328316
0,167929052780977
0,174400514741258
0,182181058220203
0,189886892996264
0,197454150221082
0,208144326901205
0,217840094232048
0,227980570779224
0,239595000635913
0,249174959407552
0,263633081003751
0,276722772722855
0,287925705940328
0,301220899829103
0,311973045793486
0,324007253049538
0,336992374527316
0,347295598586438
0,356941948554285
0,365377339046699
0,373614152483183
0,382521337246139
0,386967437627694
0,390669377090702
0,394335895405467
0,395342413431109
0,398007396275397
0,398829576693304
0,394878461128492
0,393928566670981
0,389372970034178
0,386855024684428
0,379572428503796
0,377905846970592
0,376127725866829
0,369004880307258
0,367515774139535
0,36407300443942
0,358790037499048
0,35667208329369
0,353028163307108
0,354665673574219
0,353027441566202
0,351294588413377
0,353975717086527
0,355961068029003
0,355257543862829
0,357600967600331
0,36183286185912
0,364581543543413
0,367738634388187
0,3734840069314
0,378732795885319
0,380051788613078
0,384653473354053
0,391622042516799
0,396908141415272
0,402570158103911
0,404090579398671
0,40532359436082
0,408661879961771
0,414106976971559
0,414389193192247
0,416558918410922
0,414640304610335
0,41921430453929
0,422437352088209
0,423595079229908
0,423370465186188
0,426605479133676
0,428668114929935
0,429329912991514
0,432294840070183
0,435751841744457
0,435513278743571
0,440306391189006
0,442197458442436
0,445799740292085
0,44678586742649
0,450217457117275
0,455914621467579
0,458120508964824
0,462454230011478
0,464941228907576
0,463742231704959
0,468494888495635
0,476487625746709
0,481753234181837
0,491021676886843
0,499032370041191
0,504957211084713
0,517516237276731
0,529173900853393
0,543300537808519
0,560632978520291
0,578410741493772
0,585520079415625
0,606862541297799
0,626107644095693
0,637277859385823
0,646078620714657
0,664972020471061
0,673401950952672
0,667600891353353
0,675479131476582
0,685750121131333
0,681409287275131
0,677174716359987
0,67430910723213
0,674459567886551
0,670623831136982
0,659449931967385
0,651409765924415
0,652677948767097
0,64232789085253
0,636923592143816
0,635605165281145
0,637190535288228
0,636834285713161
0,638185980733838
0,640076060092434
0,649504719488569
0,655408057691692
0,66323273771577
0,676058744258508
0,677561911360737
0,675144746875433
0,691887884547902
0,699687211537017
0,708016274173607
0,716448226406297
0,726068771701362
0,731072587667353
0,745966910074975
0,7542626072114
0,768633491368126
0,775805008447544
0,797598240964283
0,795712855750944
0,801964618593402
0,808552378606723
0,823425216481949
0,836686148959009
0,844829719779553
0,857435624340472
0,868747985443578
0,868812586470307
0,879252387301791
0,893439206873846
0,909180929247829
0,907196292760779
0,934195340248324
0,92726263953163
0,922900393295193
0,937584414905612
0,960096490013187
0,957342112280325
0,976676617119589
0,9759443886622
0,981247434028313
0,981215831497463
0,974931559906156
0,98336610891179
0,981201670638137
0,986518908840238
0,981353145012178
0,973402883546268
0,963892805454419
0,9304546145124
0,914830137151369
0,906200702159005
0,888989338987319
0,85822300838296
0,850015008722167
0,828746035230587
0,800346788282252
0,777502469686829
0,768309709473707
0,745860494537295
0,730130274016489
0,709171360353783
0,699675558992142
0,690545547567903
0,684665756997708
0,673880188502449
0,662455202495193
0,646893522282041
0,641622655799928
0,634088254012547
0,617816565366964
0,610449010880178
0,597237145046937
0,588722185407898
0,572585695444493
0,555489038182197
0,538095161932019
0,522444253023907
0,508412519777205
0,48553709071382
0,467107152994983
0,445615178450406
0,428302009074393
0,40710796426552
0,388090371271054
0,365955522747877
0,346445533528083
0,327663116486108
0,310059664248371
0,296174529188116
0,280105823885558
0,267429376950476
0,249239235012235
0,238338471297717
0,226537917388151
0,217312780785524
0,207445706507275
0,19459511999665
0,191073169398745
0,187214105039503
0,18138997088727
0,175017139467446
0,16883754542064
0,163471739802221
0,159526046835167
0,155373456485617
0,15475201736679
0,149299258627868
0,147420151024019
0,147218057039457
0,143664743576193
0,142553974438913
0,140583591483244
0,139851623607847
0,139252885065886
0,140517369657969
0,137802796478271
0,138328696946677
0,140072202379784
0,142647234066431
0,145502105022847
0,142716416678965
0,143931419245851
0,150383469268287
0,149167534163787
0,14877411281986
0,15316588872869
0,157437711293469
0,16221004316917
0,163380416370732
0,16386497191746
0,167671078722258
0,169519727859853
0,170270612640363
0,174184271744119
0,171728295379088
0,170300507983926
0,175058937612942
0,17260950504418
0,175462441998711
0,17631755844321
0,177228256373938
0,176416133213176
0,178099804280007
0,176027098965056
0,176188927251989
0,177565026145309
0,17971790124637
0,180140214832641
0,17392957384273
0,176821487184588
0,17987278947413
0,173056897884941
0,172681679376203
0,17040506736403
0,17223278747208
0,171737170151632
0,168551117098245
0,165590384080026
0,166210730374931
0,164805222149544
0,163002094560411
0,161650311530199
0,160643059960256
0,157388261013345
0,163450348409939
0,163612480050712
0,160123204143312
0,160616401486356
0,16171748824714
0,161989255019766
0,168913276372652
0,16871702151145
0,169312824794589
0,172895460949787
0,175468952735441
0,177567628032386
0,175794263677868
0,178592431679282
0,184793047988131
0,1853035069311
0,179966447345289
0,179594644980261
0,18071074578643
0,174386980530436
0,171717212929872
0,172962727603601
0,16696297532494
0,168231977080356
0,164565533993615
0,156534840695927
0,15912914876185
0,156893409250776
0,152355411315189
0,151780585380992
0,154119012801302
0,156795079258633
0,150636413629565
0,151363839852592
0,158707902650378
0,159732144629241
0,155448298703842
0,155484976237656
0,156407919993447
0,160858767030438
0,159036620206112
0,158006137401608
0,160271193783572
0,159330037424976
0,165185945411259
0,168951928897514
0,166849055208145
0,163346833766005
0,169801508326455
0,163351484869735
0,163723576382896
0,170588662062826
0,161229662834297
0,159580974546884
0,161097947432469
0,162023460516681
0,16430620457697
0,163407719527904
0,162202583028443
0,170566134627415
0,166542042020489
0,161869592081885
0,161764311903019
0,161704441958778
0,167167653934366
0,15974022946527
0,160641709831895
0,155328013492448
0,164550763807396
0,156563869141662
0,154865945076739
0,15519354273985
0,152207958911248
0,155854156720796
0,147393321834493
0,158737021941468
0,160363369818671
0,144956074996619
0,142649082257268
0,14796275706563
0,141626330930985
0,142895007136564
0,141196946615852
0,138373770887955
0,141601680577166
0,140677619738265
0,137802254301432
0,139950329032585
0,1360740217367
0,141677653552818
0,137300358256005
0,137315267393887
0,137601781663194
0,135925140574417
0,141050044861484
0,134183825598512
0,147113121079211
0,147272553788644
0,145867478310559
0,148184061942903
0,140371098095748
0,141885679426909
0,147978579400436
0,147924070546099
0,149992151018227
0,146963186690307
0,155586080412339
0,15655280970535
0,161925941419906
0,144567810789294
0,163041599470318
0,153978012908644
0,152568419562799
0,168090827005278
0,15723571665067
0,159498970512579
0,173428639864569
0,181666125449538
0,162971401455387
0,18752437454701
0,191631686026017
0,192049337238979
0,197919860467087
0,204982629625293
0,202632493281232
0,207111219662013
0,195899807062215
0,207275449430439
0,218946902200693
0,210118266801622
0,213210701194341
0,224510307937119
0,234857341741487
0,224756483252847
0,212352100031569
0,229073791596713
0,22522626480136
0,232323199286623
0,234640018051433
0,225945308040591
0,222306114220338
0,236050498451998
0,227844155600496
0,244044271416217
0,235852483724679
0,234818987434773
0,235787956433334
0,226280822467921
0,238336231379405
0,253123629766286
0,231806284435766
0,233392713061207
0,228614891340141
0,239603582522474
0,25213555505063
0,238059685505032
0,25125050428207
0,248236579562013
0,236719710620145
0,235842207527036
0,238647644140643
0,241266386627518
0,229350793681027
0,236806483370572
0,23505375363746
0,222931186063918
0,209523107821786
0,220965427484177
0,225605553326387
0,231665450497079
0,210939501496189
0,221826180873031
0,212357610828317
0,225670025270923
0,220573878613441
0,216793470743135
0,212229497129558
0,219773520114754
0,219794533064886
0,217895826461746
0,214426422873698
0,229231457284241
0,24391920369112
0,232957080408826
0,229161818509756
0,23007980343295
0,22057541378872
0,208203467567417
0,204094370029302
0,230864335574272
0,236271560147914
0,263597908933198
0,208027828645517
0,221949128207912
0,207560552943334
0,239324144965314
0,239098395621426
0,254871922105853
0,240178378026913
0,249766390453744
0,227217101473235
0,227956818585134
0,246262210439855
0,248489212821318
0,229383612158619
0,243450045905971
0,225631639314199
0,266915841089207
0,268885212333187
0,255713045962408
0,274151086871593
0,279880058994482
0,259783875583445
0,334178210186584
0,299903596780047
0,279273614122245
0,273777618450969
0,302721184034673
0,343560015096349
0,328181877028672
0,283354841755884
0,273778962626798
0,2819921396203
0,294408976914839
0,268626102137294
0,281701442176978
0,315915394201174
0,340800714761377
0,317422547184604
0,283970889439404
0,274755723121764
0,33065308531571
0,268135537069873
0,280739295717379
0,262058723783158
0,230589305110408
0,259194828015046
0,231848182718185
0,257071464673095
0,297410595417393
0,265331502669863
0,289646572903221
0,235703337714562
0,30213164019211
0,300485940794823
0,265487166412457
0,276046317419623
0,344163576194201
0,18607245227676
0,316171370533562
0,336843409097348
0,314633193054449
0,231215265070464
0,270555177782091
0,331728124269933
0,352648709787433
0,248474539473763
0,311045873336118
0,0675053264179817
0,352659203566167
0,2498433490537
0,362936295127528
0,352996241310404
0,262590767668221
0,327082243896072
0,243191802559154
0,303165542372306
0,363419886174717
0,308727883618162
0,232873960208008
0,205887411638791
0,368189789915216
0,210965564854873
0,334063091493107
0,26002275717461
0,574626279274954
0,268067037295489
0,207836251848599
