3596
4000,36533379555
650,420452594757
1
2
2
0,0345606051884273
0,0339051639876053
0,0261200478562264
0,0411648286162583
0,0316517392632497
0,0428179904025247
0,0305996179457316
0,0417044358267695
0,0295544300844536
0,038372101788284
0,0344850412840031
0,0357784350768913
0,0283997195539059
0,0390302719806193
0,0319680802596468
0,0380506991518589
0,0325269713854876
0,04218267588741
0,0370204766825187
0,0336123024606601
0,0272600819224743
0,0391760059250112
0,0275080301071188
0,0335714893588982
0,0345657440681965
0,0413945471339703
0,0285318505650062
0,0373644906510184
0,0393388073431986
0,0443899308763153
0,0315950840142698
0,0374330528369144
0,0281246698716214
0,0356671397223547
0,0306770547612165
0,0449089389056515
0,0316736845336436
0,0368137841430053
0,0315424890542059
0,0367574706568864
0,0323433760642376
0,0414057984437912
0,0263123884103297
0,0392093167594342
0,0293511176906681
0,0412441603323419
0,0307494080473962
0,0335930609366122
0,026005859350879
0,0410530766969189
0,0330179471688335
0,0345887022136042
0,0247703981839789
0,0513760931016014
0,0350858764481151
0,0514119371035348
0,0344069503047632
0,0352822336127944
0,0272475001479456
0,040476456291334
0,0290701143573773
0,0513479398917419
0,0393869504425186
0,0422729473940776
0,0300998166589776
0,0429821101305159
0,0315781932599186
0,033403234918565
0,0363960776009771
0,0407852787699582
0,0287256619566424
0,0402535813117512
0,0441771780267097
0,0388582103975882
0,0317816688718442
0,0448341129283697
0,0355600365470118
0,0358635136654427
0,0264938874458609
0,0447117046667527
0,0416959593466449
0,0421824676737654
0,0304412583702168
0,0305373128732235
0,0179349270083512
0,0487037800664074
0,0345133356837847
0,0186266703164943
0,0456885260821319
0,0460539270725909
0,0293114492215769
0,0308346167054777
0,0333516120594301
0,0292613253060748
0,0288613547827665
0,0312180034054725
0,0269494644231508
0,0313036535653577
0,0317591569843216
0,0279679619718089
0,0267878142154863
0,0349045321460827
0,05875962617582
0,0438754443485484
0,0262248381787391
0,062882459659442
0,00139876739503053
0,0670061952166753
0,0572040680703981
0,0461675063862729
0,0337567176214876
0,030537996617308
0,0272613877814653
0,0318997025709839
0,0160477208170712
0,0276574770194998
0,0701552652286142
0,0456055958031045
0,033878152557529
0,0379816673595044
0,00536432354892931
0,0321048431290413
0,0735932738458754
0,0405649405510304
0,0368167747370765
0,0371367961925253
0,00745810378785913
0,0450196824913975
0,0647904215846715
0,0393408847701444
0,0264789019837679
0,0373282563782475
0,0170330022550401
0,0191642073586514
0,0544519462783546
0,0587466872069838
0,0223923214580062
0,0165667102924218
0,00603276604699036
0,0886063876841303
0,0509378723607719
0,0402989276112665
0,022284754796034
0,0219647576301008
0,0638810822139091
0,0579117614978534
0,012877987380537
0,0393824036885478
0,0494226499599469
0,0300607313528472
0,0237796437332306
0,0247034417723021
0,0343797975384674
0,0361338815406203
-0,021860157770407
0,00332843872072522
0,0852448390015417
0,0547955171054693
0,0664923690679863
0,062986794254877
0,0214642699537651
0,047111053051129
0,0272471736062062
0,036630581676554
0,0163818145292199
0,0276103745410006
0,0184444528258557
0,0676112690013536
0,0218789362027857
0,0262186127417142
0,0536779129611705
0,0478736702659289
0,00818068260547427
0,0765971454610963
0,0555178876812579
0,0178872224493048
0,0586079841709447
0,0577729504838043
0,0182518177914824
0,0266804352119882
0,052651747443052
0,0465845397363567
0,0277284092852506
0,0288108375026363
0,017185180974609
0,0513491755507075
0,031067044047892
0,0340398631704644
0,0233500342179016
0,0118347466282924
0,0027221341504374
0,0876167359794957
0,0677379226453015
0,0563312516411136
0,0198732283012115
0,0103599760897855
0,0171133365376299
0,0852902267384242
0,0382372037322146
0,0342864706280923
0,0213387274155386
0,0297058250369785
0,0252443407288727
0,0347724361730325
0,0127448583741152
0,00764197562244951
0,0353458862089401
0,0704101067516132
0,0302933794235091
0,0388176321636385
0,00907868930859819
0,0193572492067498
0,048259844259432
0,0754442261885672
0,0282744752690158
0,0348291788520685
0,0151114821707733
0,0405316262477878
0,0488529206958453
0,0442545583554248
0,0258792218872425
0,0363670478642723
0,0269547235163508
0,0342308244894575
0,0267271713555779
0,0420271228518643
0,0220824707527042
0,0329050304143983
0,0200482133358052
0,0308239913106994
0,0323476733570827
0,0476263925066626
0,0290165892190006
0,0316819937488531
0,012833412062507
0,032056863621528
0,0492712518325036
0,0469497224968988
0,0278361991169595
0,0399157080418325
0,0264172639868479
0,0369976756361402
0,0242406323393282
0,0336046614086238
0,0168253645043945
0,025580497129631
0,0375968811196023
0,0655270285168131
0,0185511002141697
0,0368565822968204
0,0151768600821073
0,0627292406328226
0,0245341787752023
0,0448820682064315
0,0204575699235778
0,0338855798902357
0,0105708325349664
0,0593406017167476
0,0323035344806112
0,0256331076812814
0,0291385456912902
0,0507518972603079
0,0187408236433947
0,0175999306303345
-0,0114711215922637
0,0869013156963048
0,0435743340232853
0,00806445674722937
0,0660603553155645
0,0708425139360783
0,0311614169795117
0,0289969198459912
-0,0536785138810478
0,0874223830350448
0,105966582156575
0,0487092717070422
0,0238669336501325
0,0450398269450787
0,029904672534843
0,0229878104169915
0,0281985110935097
0,0258754229200498
0,0415168308879073
0,0871360606612231
0,0691957353735168
0,0374639441191321
0,00687300268014749
0,0822330278156064
0,0316129111692495
0,0385983433795214
0,020053340298324
0,0352023201402482
0,0195942150044013
0,0543574183258291
0,037452167365704
0,043411368574505
0,0248617383252879
0,0618014850611455
0,0491264624172021
0,0365100849710573
0,031338671057753
0,0481814975634329
0,0335399711375645
0,0354509711415714
0,028038234077364
0,0403203929569371
0,0127960655687855
0,011090008091461
0,0623351545260015
0,0617171829346297
0,0199310762399939
0,066898870453153
0,0433578427730457
0,0395038992821256
0,0310754868920433
0,0302340467944342
0,031395687899334
0,0330415662237028
0,0120544467208714
0,0529970537559769
0,0427444320010284
0,0305671444872521
0,0337769628082516
0,0357052825677986
0,0313983465042543
0,0415132883474513
0,0238718162996483
0,0378791290017035
0,0260643196141483
0,0201528758230093
0,0313351723581933
0,0674226581178994
0,0145253933570483
0,0347520371967377
0,0750344022141722
0,0517086166009331
0,032833839025085
0,0427319280619361
0,0280046864413466
0,0357624962759876
0,0323927142845367
0,0391278847337274
0,0249522766680698
0,0600991358274329
0,0414206512270872
0,0280268274694629
-0,000155297543546123
0,0752130628606038
0,0887853823175817
0,0727351538162275
0,0280382497224403
0,0238938459319863
0,0236040382611776
0,0915899937660221
0,0364623078040421
0,0750168688735746
0,0462012454272816
0,0396480607723275
0,044595017848181
0,0441993794888814
0,0422041704612975
0,0440619744237818
0,0458288772305977
0,0397709040237419
0,0456649072532209
0,0522163738993179
0,0369543506686865
0,0312382240165914
0,0706670082639818
0,0711376166975838
0,0432748935109703
0,0471903863694517
0,0249683563279642
0,0401078796276644
0,0681425144262321
0,0715438329684678
0,0763929718998816
0,0740933173124993
0,0918512855950232
0,0855428565402048
0,052791199137434
0,0573035331322517
0,049209900154055
0,0736689595248729
0,0607726099510225
0,0680845686108191
0,0467855414931409
0,0685531091223855
0,0642659387056658
0,0688877055760825
0,0545368885576356
0,0624358194111694
0,0702770209798342
0,0885584536832843
0,0582278168282134
0,0605916611740717
0,0203677904750118
0,118034576858816
0,110993407560039
0,101616222399613
0,0716703001922227
0,0865914200516473
0,0610944118868925
0,0823552930193047
0,0725910263467643
0,0918621078188922
0,0666780494228457
0,101024469728983
0,0990901861829341
0,100706679890088
0,104142725465168
0,0979094017724392
0,0916834071718937
0,106552337205385
0,0764261442526172
0,140460677437595
0,0986309726090168
0,0894845721592243
0,0946113235382516
0,128564468744683
0,0963257278369277
0,120917709043687
0,103796224388526
0,11078811032666
0,100051160987911
0,114993071243013
0,11191588977128
0,127329592470641
0,113803290859199
0,117817609340666
0,11135503320779
0,130489365625111
0,112848083406401
0,134764426758033
0,132429042456765
0,148815923155386
0,13036473915601
0,146413828837289
0,118988524428692
0,123598194674426
0,113400124999203
0,166502052181022
0,13756790969825
0,17487058418722
0,142854934775012
0,139179562157367
0,137412907554119
0,149092867787301
0,143950115610653
0,158198932595418
0,148859341976489
0,158017825967487
0,150925602556224
0,163452238124079
0,15843446337077
0,167492845688306
0,156921494186127
0,171591625520398
0,156766166441676
0,192915215079681
0,163617386021157
0,181580133952153
0,1649866932254
0,208297867514995
0,193683478851921
0,202304793699622
0,188330707498693
0,18891112551243
0,194897066924733
0,195233983259907
0,174068406348849
0,219437627019022
0,21308111291228
0,209949094939075
0,200832083249614
0,212575942588716
0,201835662341205
0,220927815586781
0,205517464355333
0,230939179744101
0,223802663906012
0,248774777586956
0,222866492399461
0,234367323052159
0,231263975270112
0,245549331946589
0,21143325540136
0,24342597080723
0,232879930293492
0,24801709146276
0,236221178192416
0,248900058560043
0,233330773752186
0,279665490170735
0,247877986810456
0,265794113996103
0,246285949345307
0,282922476181174
0,261639078406845
0,282549049002894
0,266806513810374
0,278782590210636
0,266814376083365
0,285038958908542
0,260675214721779
0,295844358781609
0,277720942657592
0,304546841358679
0,288475350101659
0,304608829192065
0,275829140864445
0,325674375900375
0,295670626369198
0,304542078029304
0,290640915291643
0,316685457999096
0,305498042384105
0,317761137578712
0,304529807612626
0,325058328572477
0,317256199698268
0,345828352945471
0,30976394552284
0,350848820792444
0,329072819997133
0,356834612378948
0,336890191186492
0,364927627496142
0,325031075531281
0,358242216262195
0,320234529895904
0,364092161150529
0,3476386259398
0,366726610222049
0,354123377799889
0,367768694593284
0,34526444238539
0,395675560369647
0,348339158541483
0,388022855609384
0,370150527072881
0,395392049489163
0,376448929383259
0,401165694907149
0,373064551179373
0,407393681753989
0,379359430103851
0,400551723978801
0,387619440342272
0,409531981105423
0,390400048355003
0,436526185412659
0,399956092944134
0,434111922707353
0,393647536383382
0,423498602507933
0,40722969926681
0,42522474766254
0,42453244836722
0,421697304742684
0,402090560143978
0,43412722378082
0,41777262170184
0,456193494416174
0,417003050077224
0,454825174961816
0,419708616995164
0,442616456110941
0,418085418582072
0,461385013975832
0,427200261940725
0,458866726246896
0,436661006909466
0,484551870698135
0,440726080343303
0,490329391395373
0,460046680973329
0,490139001559968
0,459775232430958
0,489039130962719
0,479659088734431
0,491837750400591
0,468934809146323
0,513527881960793
0,480774846708644
0,487291105140242
0,475264463409761
0,505679829146052
0,4935315276709
0,515590770497658
0,483902043855841
0,520537778600703
0,484890724544509
0,516197591710816
0,497742227323253
0,505785974659756
0,506166343971663
0,538978304097646
0,510617663154738
0,537338258609696
0,504959786600641
0,5356465368336
0,50418958763324
0,539067328746628
0,518333205123172
0,523203592692126
0,520145167222483
0,580335336001811
0,539107455337738
0,56106544361759
0,533417438513468
0,556542056465314
0,56407725368841
0,593233306425527
0,523211069567538
0,565034279300586
0,538844563812639
0,575948576291628
0,556180391709192
0,589545426993489
0,547172203587686
0,579014911571649
0,565999670505445
0,589412144805762
0,534638011020243
0,586082456642631
0,54930180160574
0,590606983459974
0,57259765844862
0,580947388480659
0,557116565042413
0,585516608887281
0,571302348639462
0,606830741686344
0,588741877945089
0,611331881455079
0,578038633772136
0,612823395170238
0,589636287692555
0,630842862540705
0,582545502987833
0,583891487761497
0,596133680788969
0,625402589043875
0,568323200695767
0,629378195898377
0,597008496566424
0,625420048843362
0,60326737981102
0,638317064939309
0,614777495849767
0,640239732677334
0,613184830437759
0,635170016854316
0,610641027047857
0,651792224540511
0,627405163038559
0,644800825065797
0,627267207209374
0,664958525562623
0,622360354208326
0,634437577639883
0,624700020329332
0,652281650836813
0,596799996093436
0,673732083795218
0,635609155078336
0,663198017799977
0,619071507634619
0,656057116712012
0,63345520375288
0,656330345968099
0,628456671670648
0,67176954867051
0,61692422275309
0,644913956012915
0,633445335362981
0,660658526164899
0,649052509005675
0,670384968332146
0,663390495470366
0,684310924694606
0,649304261402168
0,672189075769563
0,642152771798162
0,690660976928016
0,646204385097728
0,694364031816905
0,633350811422859
0,672454978519608
0,642039541113416
0,668798286079828
0,652092402193166
0,690075857468701
0,641407301702197
0,649029934356954
0,644584163396838
0,706303143341416
0,662038925565858
0,711223512327607
0,667269573144068
0,673491154823052
0,673569064619877
0,668512785611101
0,649832089679298
0,697720245619808
0,645875892736443
0,695930692603648
0,664157064019641
0,700016358581244
0,648351275006093
0,712553542072898
0,678360637217796
0,691679937123582
0,649040969596862
0,675579239249631
0,65356135855766
0,695627319877817
0,678077302370689
0,70012965564847
0,66255340694974
0,687760830276147
0,657914141637104
0,673207641444295
0,657819493813928
0,690562403872164
0,671114070206954
0,705222864086424
0,674337382167073
0,70572483631872
0,654350123714103
0,686294685335158
0,655477841790863
0,674766771618461
0,64624719248593
0,682862783774094
0,651209657875882
0,691506133434166
0,64330061900374
0,676388561890221
0,65616304301882
0,692244366013254
0,648625840141169
0,684107936233467
0,661005153923672
0,675094479615996
0,640444758968482
0,675616677873909
0,648717322592586
0,686865840395533
0,64727473478158
0,68512144989864
0,634335148673182
0,660193270102571
0,634426214977432
0,687030412841518
0,635403239006946
0,671396920826716
0,637596511242365
0,699434067342725
0,658965242522033
0,677898860911018
0,650922963093409
0,681370902326865
0,655263393772329
0,654247373549778
0,645763568854855
0,674712600892395
0,646124109071504
0,663104766559813
0,638868874377176
0,655287106716497
0,631721640106916
0,673831535366622
0,624688728806756
0,669308290607321
0,629259304778648
0,665868997072153
0,625554824790319
0,661742726247564
0,617504312039216
0,636106391699034
0,621662416484222
0,655403441484271
0,616515328775753
0,6731071057652
0,618158753880136
0,659010390822796
0,636610204492425
0,649337585844445
0,635194605577973
0,64631262570557
0,600412783206758
0,627504351973029
0,600977316915022
0,645734349865397
0,604957703450598
0,618865890229969
0,61388335284601
0,636647424787737
0,605836203928798
0,63463809929113
0,606769230762899
0,619038919532974
0,598853841142515
0,622081290338034
0,593885127508722
0,60166741341561
0,595824963977562
0,639658022469892
0,602882586600641
0,605486366236369
0,573283513778889
0,593987038957726
0,574679578340685
0,605536139462249
0,599535885555863
0,606015886149242
0,567956701292018
0,59814369069359
0,555787623953141
0,592976147917302
0,572922034811512
0,584295362797581
0,566931818990231
0,591346984307449
0,568495162649685
0,592177668385624
0,562768973503069
0,568230602368434
0,555047322725191
0,584579447454798
0,554272929831163
0,563174484376276
0,542377333178527
0,566454048518196
0,543784800007539
0,569641049845346
0,534644335604633
0,555422366758417
0,522772831773982
0,552303548324947
0,524770231530879
0,563787961734252
0,533766394630129
0,547120784354401
0,513272382753119
0,542028196942403
0,527277379588301
0,538746438788426
0,509452810453136
0,532320290174938
0,506846133393948
0,527593542557103
0,50044247524842
0,511411732955078
0,500077849151297
0,523869230465843
0,498769225063447
0,530580352254988
0,492247755343797
0,513169857730402
0,489441757386374
0,503813229016058
0,481095054159049
0,494777412129126
0,472537892715228
0,490174331965696
0,464621511813197
0,491924101537457
0,468464769662571
0,47390312133723
0,452892661527291
0,475910376877153
0,46280817132366
0,469145775558706
0,450297306616817
0,474418223680754
0,459394701575265
0,470357509210618
0,446416098244952
0,461386957732553
0,434658739415335
0,45382643807343
0,431626536464435
0,441191699899265
0,438561232437521
0,443015148816012
0,421920776673964
0,437106029852859
0,420817596318257
0,438245326277048
0,412515649154438
0,421427718578591
0,417121237742356
0,428444927264752
0,403540128351669
0,417799777100777
0,412490927807365
0,41035031834431
0,397438906362254
0,41874141314599
0,38506970850662
0,400566900055551
0,384266963306689
0,400277557538424
0,394308460273041
0,396597687186431
0,367906306768971
0,384294848955304
0,377073560330944
0,383356553879464
0,372761796476712
0,384273917367023
0,3657357042249
0,380673465781836
0,358851812505609
0,370039428341669
0,353510890554125
0,369473072923444
0,354082779144995
0,368310918968438
0,345426391439624
0,34961555349246
0,34123820003566
0,354281482766977
0,330915238071992
0,339398660340684
0,335230927398389
0,345131498228086
0,325054252607639
0,347399809222093
0,327553862365374
0,337605744847143
0,318554895043323
0,328228402673699
0,317162267447948
0,326513479185709
0,311142877212513
0,318742324688353
0,30689290710849
0,311880374154731
0,297933897787227
0,314094738515999
0,300182680980167
0,312844314178235
0,289232004578253
0,301364487583475
0,290131846818443
0,302045041512315
0,289179541965529
0,302577659004811
0,287323560388061
0,299128296250444
0,279715982957538
0,289533637096092
0,275373196494254
0,281983563218176
0,277280616514452
0,285738427815813
0,269949849979097
0,274358238138079
0,257415031470322
0,27342256036534
0,257613314486889
0,271270202196696
0,26699207904289
0,273327921364816
0,252981459759852
0,259574292252031
0,258020629396033
0,260572720115078
0,246541336825151
0,250326470035924
0,246116949541232
0,25226195524754
0,236283955007681
0,25083744336021
0,2323381010327
0,243428999427821
0,231070901745251
0,23966635864491
0,222682248063422
0,240888548788915
0,225250409762275
0,230985276408096
0,222546128740951
0,237888174857975
0,220063514656045
0,235865994882067
0,210899676107799
0,219785737590347
0,212727763543603
0,228239587632362
0,208090796707984
0,221845778662155
0,210871540464593
0,213922662951639
0,202845807580389
0,211787699956422
0,199061343902818
0,213703070455794
0,200563243791502
0,206977485778446
0,198141877332408
0,203708886742322
0,193091485004988
0,206571279092388
0,1894436487475
0,198739396533762
0,186911209252665
0,194195933132537
0,185590579104109
0,191826028028331
0,189074075845323
0,189702381685585
0,181505035651149
0,18877659051301
0,177556165408894
0,187090487147855
0,174113505904057
0,184490654644332
0,177002784565002
0,184872953976422
0,168964337023841
0,176437193515871
0,171134575447202
0,176184278618964
0,170858027291409
0,170656024517391
0,162300593936581
0,171186597540426
0,160301681730437
0,173352572111985
0,160518955018565
0,170755463819536
0,163219128020923
0,166351639234282
0,161133431227733
0,163329613643371
0,153160947916275
0,159151112191288
0,150225488248524
0,161929717167708
0,148501562274846
0,158887563683225
0,149683018085606
0,158461649839056
0,146973155274094
0,152479284644231
0,144943277360542
0,153532273680235
0,140608192605828
0,148159956363801
0,139026108924286
0,150145511735882
0,14396260579977
0,146731387541862
0,13810797986672
0,143869995099672
0,132248582813692
0,1479898039946
0,134525910562414
0,145164860983237
0,135787817622083
0,144269688838681
0,134298132428956
0,147419673170079
0,135074766381645
0,141300632977778
0,134553391377645
0,14154696806051
0,135505237330144
0,143106301173844
0,135019152455269
0,138101279976266
0,135062008134256
0,140832727483734
0,133374944383043
0,145682226337353
0,130972800880633
0,141612489387922
0,133046005261941
0,146368746956927
0,134547308507556
0,147121031882139
0,135437140408836
0,147904270470725
0,139176253012007
0,148143396225837
0,13841463619142
0,149515986606736
0,139769434898109
0,151559710959238
0,138452937778871
0,150056422259354
0,143971437269901
0,151933872663718
0,141496340157007
0,155826494193796
0,143661027792842
0,159022864383987
0,147671836595415
0,157501738397736
0,151530650505984
0,16182199877332
0,152067787326268
0,16046411087125
0,153077439486056
0,162293999070122
0,15405151264604
0,167304468864241
0,155804382801162
0,168966638813136
0,159972980249362
0,176385792805065
0,16385794137921
0,175868183524326
0,163774447675939
0,176113842997994
0,166690489444118
0,184030476615475
0,175759163308307
0,188208685598774
0,178999047411065
0,193434776741043
0,180666957611193
0,194381742359404
0,18385304001621
0,201626896253577
0,195646945869304
0,204768264605529
0,195141338855879
0,206869684275905
0,202192286269067
0,218600973103304
0,208703159880211
0,219862900683697
0,209463107143235
0,227186918161166
0,21683607282072
0,226576459580674
0,218903442567002
0,233023968372372
0,224449065868321
0,234165402162376
0,21694843231825
0,231718123795019
0,228968257898207
0,242752202771103
0,224965933760386
0,236678381455021
0,222776731871275
0,235190803919162
0,218562040028762
0,230026113339314
0,218748678597446
0,235877817146196
0,215667746688344
0,229113492901738
0,218312966545515
0,230868784182767
0,215982176091611
0,225154178666228
0,217041392082647
0,225217535959038
0,20821081992342
0,223356068803183
0,216623159451485
0,217034111796653
0,21244198589301
0,220255169788834
0,211390833105203
0,21955007289471
0,210400773290838
0,218533881265386
0,209367277305022
0,216687709071345
0,20621556071191
0,214795360817629
0,20186381532452
0,216786715039411
0,204870870618633
0,217217248517621
0,199657003450202
0,215206520114771
0,201626070373253
0,21119068317239
0,202099654161564
0,210988438031653
0,200074219380172
0,212310041691343
0,199766956315293
0,208805041727534
0,201922392413303
0,20436537873941
0,198656580532012
0,206128847078884
0,189984264543761
0,207492303928802
0,189929833829303
0,198765740433094
0,189387720659595
0,19550702829218
0,185141248362261
0,191443139781208
0,183156400130761
0,189385834217887
0,174949057574002
0,182397279224996
0,173004839874503
0,184998058924277
0,175033002968638
0,180323635849091
0,170769479535421
0,179168240560388
0,168390477680515
0,172523372234247
0,16596244941171
0,167932662399956
0,160621622577118
0,164474550507618
0,157816211507376
0,163102146775816
0,152919208732724
0,16211518930928
0,148987823096344
0,159230183093584
0,145223894878526
0,154444316308903
0,14753123263414
0,148826453712869
0,143077150516737
0,148505735575307
0,140795946959489
0,145031028027359
0,140994285920514
0,14858108746658
0,132205130717545
0,141511984931684
0,134779765268379
0,14199547304431
0,131490048551316
0,13878144509948
0,126266479440885
0,132503090982678
0,126334615089067
0,137686872112887
0,128648480091743
0,129218796057744
0,120567396019997
0,129659156656721
0,117102770826456
0,127860773233019
0,119445065592767
0,127817364075797
0,116446206093249
0,125456764800358
0,120271830427416
0,122815968274288
0,115573656289202
0,119502107071769
0,113923635822564
0,124043566053327
0,115228951227108
0,12091496846529
0,111682445804755
0,118992171971003
0,106824913379052
0,117610735914401
0,107548386985805
0,117350186625608
0,111635566287573
0,117520546414877
0,10610694173394
0,114655939846973
0,106319877447638
0,112848829629776
0,103560056806308
0,109941153447233
0,099252247877451
0,108631206709804
0,0976411959426507
0,105596819865205
0,101703713242305
0,105306450035459
0,0989732211990833
0,104474597417286
0,0960584277340364
0,101428480471582
0,0933048561853911
0,105071674513182
0,0938427070784854
0,0981229616613058
0,0953720436002116
0,100399726414409
0,0940991487971756
0,0978494789501602
0,089612345430371
0,0988487484899453
0,0907821624403736
0,0961963913075986
0,0911013632324488
0,0960323956522077
0,0900993709898319
0,0978655454175857
0,0923632679699758
0,0953124072123383
0,0883961589502981
0,0958608625884339
0,0896246540493833
0,092146713279084
0,0887353101804645
0,0966223552834516
0,0907013914437687
0,0928119070800091
0,0871994684794766
0,0960372880898303
0,0836131135710006
0,0957842647867019
0,0884206902897415
0,089400826116656
0,0831917696269958
0,0932527398187748
0,0863497837961937
0,0908131251695607
0,0872361030101077
0,0885127778449838
0,0853970191220822
0,0922244404884099
0,0864153649345194
0,0892336422106035
0,0844929392931534
0,0920836953813197
0,0809713390012762
0,0881264431797602
0,0815173580575763
0,0880427407274572
0,0821482493728126
0,0874139916749282
0,0825250934073862
0,0883116280614725
0,0779380916689282
0,087773179897428
0,0760474838536862
0,0863998442066944
0,0785302388826926
0,0884341226078061
0,078039766882901
0,0809409452290027
0,074470046539151
0,0842799207406314
0,0737917817225138
0,0810756311324152
0,0733050044157104
0,0846088772337124
0,0744958552929703
0,0832211756628246
0,0744726630667951
0,0840719730242614
0,078586095317918
0,0833744852276719
0,0763097526186552
0,0810176047432836
0,0738301369334655
0,080437125298091
0,0746634502394295
0,0798307813730356
0,0731588259971143
0,0805792864274398
0,0750155959532266
0,0820799866325328
0,0787806726605623
0,0783715802822894
0,0758652029315201
0,0787711471599446
0,0760463458000308
0,0778551592018795
0,0724709141912395
0,0789170248194481
0,0750874317075093
0,0798804134051945
0,0729188361056128
0,0838031327857296
0,0760817944598679
0,0746617340573302
0,0709079871896566
0,0773241206686611
0,0709061125595572
0,0759002320866218
0,0698850894128539
0,0793925381521073
0,06931163233909
0,0792230698654823
0,0679675030014396
0,0756999035855866
0,0705663540879591
0,0723472061698987
0,0621168737897007
0,0766079147515112
0,0701332852426278
0,0758263709736617
0,0709693849400383
0,0714790867742537
0,0661261354477085
0,0769248807698971
0,0664252314495886
0,0707476853716542
0,0665331734172094
0,0696141897938276
0,0639648427884514
0,0699146229073576
0,0624809851488282
0,0682143072513978
0,06275801992327
0,070168511929473
0,0675967174673397
0,0712375176403493
0,0650021332929634
0,0700701835264324
0,0637342140250298
0,0690782122917303
0,0582971826539415
0,0679321319088486
0,0600506316908048
0,067281431052283
0,0625670693283174
0,0699538433330044
0,0611439658650079
0,0661692825019012
0,0595381443507537
0,068838412761866
0,0604453131238385
0,0645891927774593
0,0602559964489103
0,0665329791906421
0,0629738433513391
0,0649580947485323
0,058007974740768
0,0664220844716028
0,0577502780989754
0,0654009936747144
0,0589462030259975
0,0663756146630138
0,0574151596414049
0,0660392204203032
0,0552289059483611
0,0621164114374122
0,0528749312936229
0,0619507675970815
0,056752788145637
0,0612576456323077
0,0532360144433378
0,0593337773756235
0,0560563146628599
0,0589536938214953
0,0534672006860878
0,0570797944010818
0,0530630017724197
0,0597631402828037
0,0533233755003314
0,0550638484407007
0,052496251806234
0,0576032632031939
0,0506174949444165
0,0588760546352812
0,0474130775893973
0,0546599055607989
0,044060567213899
0,052938650312424
0,045844139383751
0,0553578833430338
0,0478090341061214
0,0539161680064198
0,0433028366282542
0,052765823415277
0,0454622956237747
0,0535701067574746
0,0479738567689718
0,0512373000247969
0,0469949675035077
0,0512927029939015
0,0445966494732983
0,0527180128113775
0,0467862105308289
0,0507667302444838
0,0426125097712134
0,0532516102068345
0,0465701804141579
0,0506363606212454
0,0430341332119879
0,0514202742809165
0,0424382483836427
0,0505449788656674
0,0442846566198888
0,0510526893914865
0,0457893558822386
0,0484690962191003
0,0441678936203557
0,0479941949730836
0,0430572758188158
0,0482629754500032
0,0404281938279788
0,0504372579055648
0,0426754011111571
0,0497078223939163
0,0424587499966032
0,0461237375631607
0,0421039100867984
0,048852077508052
0,0393742092180121
0,0468647053592772
0,0418663520063893
0,0454414667970133
0,0401638107999668
0,0491921660423611
0,0431743938591854
0,0474599144455749
0,0394528266558618
0,0446012606682969
0,0382076641801751
0,044671728912209
0,0407218659556157
0,041403712573414
0,0381537076059009
0,0432044593890511
0,0399431042688698
0,0452642448335957
0,037989227214487
0,0457878588778497
0,037879688862442
0,0433569175668596
0,036573381291882
0,0463143106647154
0,042289016639301
0,0437615207542605
0,0364900432994337
0,0427635754563632
0,037489338163912
0,0459070540130214
0,0382112696212173
0,0409813201151817
0,0381728355217785
0,0420916872047968
0,0367808799402914
0,0403996636536394
0,0378959698005345
0,0434210193881551
0,034745502750687
0,0421448660876804
0,0351249727542408
0,0425131679457507
0,0357425491414676
0,0432190990830273
0,036182666489191
0,0423655973567842
0,0340026175568245
0,0431721473002447
0,0354119609479271
0,043243553951446
0,0387993019052094
0,0434697741594767
0,037282315576087
0,0430539352169695
0,0373447763372319
0,0390334025900375
0,0340786617819691
0,0418904100122619
0,0378981291558969
0,0397639372209415
0,0341773313523395
0,0419114598252552
0,0349094422670172
0,0397785789087259
0,0343781295762297
0,0409711440594453
0,0353949875900665
0,0369904439553183
0,0354502009815573
0,0379963649509697
0,0330740547465734
0,0398222139329377
0,0347891275810552
0,0392572962808478
0,0335129990678492
0,0381240819195208
0,0319900753919387
0,0366703820666263
0,0310982012196207
0,0389203272727799
0,0310619174624861
0,0350066001846993
0,0322641069450029
0,0379953005899034
0,031929506609963
0,0363754887191003
0,0327856061747374
0,0384293846066051
0,0305818287766149
0,0388453308850812
0,0316232974210856
0,031713205715201
0,0310196248941481
0,0364227036731974
0,0329146000929707
0,0376196945270727
0,0303044432550619
0,0375456589999438
0,0300758674228606
0,0387189310256027
0,0303414435147019
0,0368849885717174
0,0339781989798796
0,0357359392717425
0,0318903181871283
0,0360603681546317
0,0309633649851827
0,0383994919866811
0,0311750808448559
0,0362940954122703
0,0320907351134591
0,0341874838819409
0,0319871343158286
0,0378892428778677
0,0295629014428028
0,0380626553244913
0,0324849388823656
0,034685926874129
0,0334571350942783
0,0363175045040347
0,0288195467702865
0,0377916434467355
0,0310461175707277
0,0335696126889279
0,0298794913028805
0,0330250065453385
0,0299525711527212
0,0354130828699053
0,0292442989133537
0,0336727536697086
0,0258677901109678
0,0330919261525159
0,0306318938900492
0,0318094904632938
0,0278981599408763
0,0331629504554017
0,0290817206525257
0,0322222077295903
0,0277136658696385
0,0297053604960205
0,0266517192113051
0,0300579051667793
0,0271678582011919
0,0309337535857868
0,0277592291805344
0,0326058094757281
0,0267686067740404
0,0288801026076093
0,0271694453797814
0,0308434757099979
0,0249456389452471
0,030442820696372
0,0258916797444776
0,0305577644805892
0,026362175966027
0,0304537653185878
0,0263893509082706
0,0307629180888427
0,0256912727428773
0,0300973963694069
0,0271025490600303
0,0298096173901998
0,0241814411388787
0,0308622700530193
0,0254208714321501
0,0286976669083204
0,0241758592684701
0,0311041369711071
0,024023959417361
0,0312083437574294
0,0254165603370807
0,0291727556939824
0,0235759307399096
0,0314728881418502
0,0236954378740995
0,0283860003817443
0,023780250931933
0,0276561338069158
0,0256855286454239
0,0284873969597603
0,0219165894432083
0,0287081656986471
0,0211849115145375
0,0286000610393532
0,0219391694532834
0,0292707240799511
0,0226698090969132
0,026590149714534
0,024827187641877
0,0272304830694149
0,0223631460262982
0,0259142611957612
0,0209207190885611
0,0283579273558902
0,0227134726043549
0,0261674534048857
0,0194404447950111
0,0260979384751707
0,0200681902503282
0,0238194486440335
0,0208661025946654
0,0253578173073786
0,0209702671817451
0,0243364276277116
0,0214014717076933
0,0251714889633067
0,0198834556631947
0,0232297763217402
0,0197273666063069
0,0237421560837125
0,0188039304834327
0,0249145207007251
0,0185026056168423
0,0239668112977837
0,0192814991921582
0,0245390351174498
0,0187682651727154
0,0237132092518069
0,0200621867586817
0,0235018711462933
0,0198715536508257
0,0239250369469427
0,0216970299485819
0,0243133735814338
0,0198726082708572
0,0255122645666457
0,020637634694892
0,0247669977612828
0,0176531299185773
0,0239522390590113
0,0191336491392719
0,0304320386260904
0,0192588955519906
0,0266573233328857
0,0204721686257508
0,0317855393835694
0,0211836300087518
0,0351498380549371
0,0234621980103493
0,034312309158536
0,0162234730064508
0,0218517815329338
0,0117123963526882
0,0312217466227464
0,0240021223670782
0,0312188180472347
0,0151363345074595
0,0311415905515734
0,0211693847642007
0,0255199389665991
0,021157620541333
0,0318250045547406
0,0183817401178264
0,0330765656669435
0,0158283239717353
0,0328748703267662
0,0185277680901419
0,037853726665436
0,0195380271290911
0,0309768830247215
0,0215442059099334
0,0279431797675745
0,0122150421463523
0,0264087339413669
0,012176988310225
0,0224501080761256
0,0126307465618638
0,0212468519050323
0,0123841708849184
0,0234775629227593
0,0138195408497337
0,0302059080167538
0,0164143565810568
0,0295970645145845
0,0180292885515838
0,0322009124853829
0,0221324823071926
0,0287340880750526
0,0095360109367186
0,0209005552821739
0,0152190899577588
0,0268290997220776
0,0255700901763733
0,0306809585285602
0,0191197409810446
0,0125818534567443
0,0247960275950096
0,0228697739528549
0,0308241544345172
0,00835143697312317
0,032557596196023
0,0193935924630345
0,0399411548652614
-0,00230563148899085
0,040586783794929
0,0135044288054482
0,0366426250897358
0,00399686460270187
0,0412123550018873
0,0116138266163219
0,0295413955779588
0,0195073559560116
0,024850975314529
0,019988600850364
0,0233017166476014
0,0254475809172282
0,0148850274983857
0,0264803439341424
0,0173353826581851
0,0238984489493762
0,0176222957090893
0,0191344393922542
0,022089630041611
0,0170303351666619
0,0224235025417839
0,0168721145778844
0,0200131419342372
0,0199254489730058
0,0187455221528202
0,0183081493889831
0,018880155130076
0,0191164678725314
0,016763441632064
0,0196758936715278
0,0170978956568928
0,0190869254640139
0,0172050738343864
0,0194983927142561
0,0182861443224592
0,017431144917824
0,0175812547873395
0,0188096117287491
0,0163909590005183
0,0185211984976801
0,0150438971951961
0,0192531165857891
0,0172367771928768
0,0213916920988723
0,0175263095555299
0,0187479250610704
0,0180773377205582
0,0196385396038582
0,0144816131417105
0,0203734047860321
0,0185682982967789
0,0185035463039928
0,0152384770728401
0,0205340123872492
0,0169732102611384
0,018537380810304
0,0181159700544204
0,0190321746863249
0,0177647639476332
0,0189081534086393
0,0176596169703657
0,0202370526880208
0,0178812073474575
0,0202978059552711
0,019043769872717
0,0179393466228443
0,0181490938006488
0,0201676480172657
0,0173521916841952
0,0206525962615075
0,0175419944480621
0,0184228743779936
0,0171916221642143
0,0176243819663554
0,0179334784205697
0,0192768824457007
0,0165925765704573
0,0200811051181767
0,0158782289484733
0,0184946161026434
0,0162912400626167
0,021465847811316
0,0166964131909365
0,0206472941820381
0,0168368643923883
0,0227689722299493
0,0158597356851102
0,0197653415037847
0,017950291366384
0,0210176709374983
0,014614805387655
0,0187114136155188
0,0173952308728366
0,0194296301716308
0,0159969149252827
0,0202907550281347
0,0167749947701974
0,0198161813129154
0,016360456157222
0,0183661467155078
0,016112649786098
0,0195757414390095
0,0159670616288025
0,0196241058055652
0,0163638910006775
0,020182467697667
0,0167077560041929
0,0213995521229803
0,0169229281030665
0,0191476736710662
0,0146676830579804
0,0194290161092203
0,0160880743318364
0,0201993433408308
0,0176008564913935
0,0211641523637335
0,0177811371799876
0,0220819704938875
0,0188862980571547
0,0218012650452304
0,0169421189525785
0,0189670683001714
0,0178990584137755
0,0207026868284678
0,0165833022235641
0,0207279174267076
0,0177613914752051
0,0207319604289573
0,0189566508124457
0,0201965389604619
0,0157884860431671
0,0221135319018497
0,0170498240269767
0,0198862636853178
0,0172939648944781
0,0202490873582413
0,0165097636906894
0,0215942788121
0,0179228424343552
0,0219908992644172
0,0189712690635688
0,0202087552633304
0,0165990162739839
0,0196247828741757
0,01858568504679
0,0194699707833977
0,0172833553042656
0,0210939396876197
0,0201438633065842
0,0214104534867397
0,0167513653495716
0,0202616979149813
0,0189206462902535
0,0217161154268631
0,0174971990564067
0,0200501959195901
0,0175549225966458
0,0220076339026525
0,018486756187157
0,0209162575260737
0,0176711901338628
0,020945074414834
0,0183538227568179
0,0214510568179048
0,0155078863425966
0,021180827893719
0,0185891859566207
0,0229399270793711
0,0192289483464998
0,0217864083203458
0,0190818009305791
0,0219218334408691
0,0194340395845519
0,0222554401682675
0,0180869881755021
0,0236877826612608
0,0213870206646644
0,0233861992140275
0,0183359987445414
0,0227408167299545
0,0200353498683103
0,0244805543988542
0,0196192898034082
0,0217645542841063
0,0166370347971472
0,0241806316878891
0,0219168122644574
0,0221456205305317
0,018391948740783
0,0224911903855968
0,0205129427648342
0,0219718914264815
0,019823233566362
0,0233421458858859
0,0187922204783227
0,0205403476194211
0,0199986982649952
0,0241285383612997
0,0195334723636263
0,0208839244914614
0,0178102920623815
0,021446368108067
0,0183424621951814
0,0230334768536913
0,0187687756423684
0,0211417781457673
0,0174578699896031
0,0205916458777253
0,0187737107530857
0,0221759197324768
0,0175554397999601
0,018444769488604
0,0172085028485184
0,0194410584184184
0,0175808072156715
0,0202192213407884
0,0200351789073536
0,0204269726558648
0,01955209020024
0,022356961108296
0,0185034361481146
0,0207506491056152
0,0163178631375362
0,0208419881826487
0,0168919841233378
0,020475981065458
0,0177975121775937
0,0203836033962703
0,0192844043750915
0,0232935335863762
0,0200117406055794
0,0211909421575717
0,0184151444003089
0,0219202195752691
0,0185993869809753
0,0224950431034097
0,0182466788009817
0,0213495530395942
0,0174548632210886
0,0209368699250693
0,0184793551776962
0,023447158016858
0,0187907078552581
0,0203347191306466
0,0168362745922913
0,021968965007507
0,0176587529710933
0,0216887543857484
0,0165024647447513
0,0229450061123539
0,0196369782486107
0,020903989756964
0,0176732870658107
0,0201153861972514
0,0181481709915832
0,020545991065269
0,0173680201074324
0,0223112311130511
0,0175002295198773
0,0191282290273298
0,015077753462325
0,0200378001809988
0,0156424755815151
0,0188505970575654
0,0166874030898034
0,02123394870851
0,0163739750889563
0,0198353332833396
0,0163419342221212
0,0189772750337049
0,0168849507388259
0,0210953760900599
0,0156059856014534
0,0225751616135344
0,01817402069947
0,0197616246301693
0,0152211416605137
0,0196064545543876
0,0163152291970135
0,0214020596496784
0,0170930238958702
0,0203880377076989
0,016579220567718
0,0179934146743201
0,0160949633529842
0,0189510375946122
0,0192973838005008
0,0210544772946977
0,0156228645543612
0,0219202468827357
0,0171664876809197
0,0200523356743639
0,0170149599783565
0,0197935710335148
0,0159233383876111
0,0206269167236056
0,018792737218116
0,0205681854379922
0,022095138450052
0,0196922077805899
0,0164165101568711
0,018954763273027
0,019142577369783
0,0208620625045434
0,0155311628462216
0,0198384231975463
0,0163534751170879
0,0198457496323608
0,0166613032845809
0,0190648650251974
0,0171525136388476
0,0194976032742977
0,0151365470514407
0,0187196276322669
0,0152576965729094
0,0182685911031512
0,014712561868205
0,0171510348868343
0,0169572972123538
0,0170842928150021
0,013780489245462
0,017766307806112
0,0150829305592436
0,0198504300189575
0,0149670627579134
0,0217793726148658
0,0129963381487965
0,0188622962455626
0,013699581367225
0,018243730557417
0,0104705693142486
0,0173634606367962
0,0137562685605354
0,0169328214754349
0,0146896935613751
0,0149593463408668
0,0123124943045375
0,0174145167893142
0,0120419036170281
0,0167778335907513
0,0133541148761427
0,0185730385179264
0,0138296077083272
0,0168841260517566
0,014198136121973
0,0164063378960813
0,0127953433623869
0,0185532511385368
0,0112439720583909
0,0170041275672862
0,0071891165614622
0,0237010037191141
0,018487933066019
0,0141000381653605
0,0135194799483467
0,0212761918953628
0,0151573020751782
0,0165434004875774
0,0128886909958282
0,0144675867328345
0,0153328804307427
0,0142964977901866
0,0145440267367841
0,0153143651157361
0,0148793032009684
0,0154108868728934
0,0116106001983616
0,0166255876012717
0,0151940324627813
0,0167404990645999
0,0133258821872272
0,015499294476591
0,0139524950924001
0,0174547205672114
0,0120900658667839
0,017176230260336
0,0119072037889392
0,0186190727282851
0,0186968432261724
0,0166069913321798
0,0138373733931183
0,0139472873535401
0,0148973752932568
0,0129150013614572
0,0122050526486553
0,0155806405469177
0,0127713867164727
0,0149707487578268
0,0124460227103178
0,0152512927845899
0,0136608776044885
0,0157765533383325
0,0149084223035007
0,0145152085477911
0,0129344762769857
0,0142020410179952
0,0134537161949581
0,0129058927394779
0,0142453419336868
0,0141470231159777
0,0168398674565265
0,014145199379287
0,0163134548988096
0,00960051458611833
0,0249101781220143
0,021865243040396
0,0115663726653479
0,0180222641152446
0,0128323525582436
0,0183783242665321
0,00975186991674986
0,0156149874587612
0,0118635463950521
0,0164573440366763
0,0140341385629596
0,0163483909112039
0,0124519581787569
0,0157364646724176
0,0120043300429852
0,0158484479049956
0,0116716337603367
0,0175153772592987
0,0108643981803351
0,0150591362237056
0,011141184782559
0,020219512259527
0,0207929707519531
0,0159996441263703
0,0179156891826119
0,0107566624472222
0,0104559238981372
0,034401065922921
0,00703235210537392
0,0218052889403692
0,0111190774576379
0,0184568926332512
0,00733011466267515
0,0169698397117398
0,00610934158523605
0,0217902538311418
0,0119446153857982
0,0164349116468444
0,0114285026263913
0,0138893575257295
0,0120054554809569
0,0133218466740783
0,0101950038902144
0,0154736889978015
0,0113184998826319
0,014137188662977
0,0109367390152901
0,0161322768648791
0,00954856892233171
0,0170762803195215
0,00682306546124108
0,0198543702907869
0,0129094642028545
0,0158430582037492
0,0106095830517641
0,0154171925091816
0,00547620121898471
0,0296907068908675
0,0150093187576961
0,0141826798668958
0,0125824698545232
0,0124553358351826
0,0129505040688304
0,0162141508890735
0,0145803764117459
0,0128876978465788
0,0134148604898882
0,0148565006382768
0,012913303538241
0,0145375993859041
0,0143984237276556
0,0120181000640066
0,0102661282306673
0,013657302312016
0,0130953792794022
0,0145287171931414
0,0124579994995014
0,0139783838848474
0,00431893339717446
0,0358352444728257
0,0127104319410668
0,0256820938749132
0,0141948231893469
0,0194676657567948
0,0115854405540218
0,0172982555488564
0,011586878627339
0,017173276872366
0,0138552437531593
0,0163137454883623
0,0142619512919392
0,0151709647942943
0,011093005906758
0,0160142008265044
0,0100227120937759
0,0156669845884331
0,01120169869844
0,0157535362256543
0,0133511701392302
0,0137809157113211
0,0119881460117593
0,0117872482085308
0,0211753614837371
0,0102289090173302
0,0137134022709633
-0,000169212716672183
0,0485462275061411
0,0120307762013125
0,0188676417015432
0,014913168265683
0,0112563632572559
0,0157324534240515
0,00854205066224186
0,0138026122716983
0,0147846633802193
0,0131760948393406
0,0144209687397078
0,0164391332636019
0,0124434337436144
0,0109450223218093
0,000389878908179614
0,0246496139336387
0,0251320074913701
0,014299651671389
0,0193633906653852
-0,00082302941998501
0,0241410165831429
0,0258679417931874
0,00867306831608164
0,0214116168678357
0,0103171414433238
0,0186340184387411
0,00990396300061905
0,0164455790603285
0,0097048554847197
0,0196888062818415
0,00876605440328888
0,0177248696147628
0,0123085982786708
0,013508938391706
0,0156024904365532
0,014927686500635
0,0170740198384573
0,0167310757028419
0,00997416564689507
0,0250682477119621
0,0124569970333111
0,0169875830014441
0,0125077630449371
0,0146796227439258
0,0110200471805371
0,0289500186295497
0,0124576890447906
0,0161677747633566
0,0245761006404139
0,0171502151177413
0,00889327369912481
0,0272078231817079
0,0144054022604995
0,0229604781084715
-0,0130879754251933
0,0433315397303301
0,0179848275498258
0,0267201481655071
0,0193910256651747
0,0143789352184562
0,0188254729496049
0,0128578315066244
0,0138013070418453
0,00788893147150096
0,0297641167454136
0,00469028058119427
0,0246463135206166
0,00306935263324031
0,0306457898237199
0,015175023263433
0,0193047814733577
0,0119028588205433
0,0162969792806527
0,00618347657779733
0,0289120046079582
0,00227452248481831
0,0125120739776971
0,0462775240390936
0,0176961549140036
0,03131827882239
0,00585293888030462
0,0303247302276462
0,0323620724774218
0,0080607414085802
0,0265245118993011
0,0096779452652334
0,0206489678105123
0,00167845434983613
0,0278459571584098
0,0382999971712825
0,01306026992708
0,0231423011334108
0,0126199077049349
0,0163568626033863
0,0397718921134743
0,0157080232308681
0,022297008499855
0,0149551968024444
0,0213678237508882
-0,00437049274429671
0,0606059259608546
0,00176690578388826
0,0462129935360548
0,0284422799727946
0,0317514990796793
0,024152266877893
0,0268836553053767
0,0186086664274578
0,0367936176725936
0,0226732813045321
0,0192969522391252
0,00682306880911741
0,0456702567390856
0,0300572266180834
0,0204545619027522
0,0286262303961369
0,00396832558201908
0,0190033288514344
0,0667433225707549
0,0485836727522877
0,0328095356559551
0,0223322201453204
0,0309024203007099
0,0411363038210711
0,0184720247788878
0,0313097123530953
0,0235500799853887
0,0279303986737597
0,0238121022250179
0,0305390835514467
0,0332365131387297
0,0212771587761865
0,0359614431727093
0,0177324769749089
0,024421181050352
0,0473374847198086
0,0556167034365012
0,0445288704387111
0,0352989780346868
0,0654808841401213
0,0266914761715764
0,0398848648408085
0,026575316892123
0,0414542886850409
0,0357029905109356
0,03200425754766
0,0325786223430517
0,0318045274303554
0,0553874623182259
0,0237644479042722
0,0570184255270837
0,0430854657543904
0,029750041548212
0,0145857092674372
0,028236704073959
0,102485750177963
0,0222359708378145
0,0655225543195205
-0,00835513859436625
0,111222230967631
0,0574111001688647
0,046198586191304
0,0447854795306599
0,0470329583821917
0,0324793873009079
0,0552899103649502
0,0466770427425285
0,0594163081080371
0,0512142046414053
0,0517869414254437
0,0043065197076794
0,111388716680094
0,0784693848144433
0,0813366771338019
0,0516433504267721
0,0654756512244544
0,0671968088983117
0,0691504254161212
0,0479600166345938
0,071911913675143
0,0245103613172459
0,104790668969206
0,0763868572944456
0,0657074936041378
0,0678356329492872
0,0710794730844407
0,0857417015347746
0,0382010059989418
0,127857334500247
0,0672465294313844
0,0867014757347197
0,066675512556558
0,0821615462958227
0,0673846542226123
0,0824823245585795
0,107041055649811
0,0774699824216965
0,0888402320797086
0,0789103860845517
0,0853349497745451
0,0835361548322191
0,0906562212320552
0,0846528511699512
0,08389425272833
0,119271239485091
0,0937949989863036
0,15172699093176
0,0844475519575545
0,103766088845474
0,0796675335738951
0,0989554898621042
0,119809093613226
0,0708764029579924
0,135630985022242
0,0859889668906476
0,0936105613844836
0,0947218626497021
0,0908888771947783
0,0941434108882757
0,0877232548836312
0,0950751490803623
0,0768932599065615
0,118000126591899
0,0270199657636896
0,161388151024378
0,0989518469829736
0,0857949186920526
0,0861047221124529
0,0930906326061238
0,0817080256984127
0,0875292485125761
0,0748963586675972
0,094086992310898
0,0905892448535861
0,0736085251564206
0,088682952474356
0,0584821452395896
0,113732477142858
0,0798983948553886
0,0806617346696658
0,0798992744990124
0,072227314997332
0,0784151392364953
0,0385197501434634
0,108748016365768
0,0896686796853014
0,061904273797663
0,0782675113575852
0,0620721254747037
0,0709391386626447
0,0633455561085764
0,0654743292051041
0,0707127071146165
0,0662881274184737
0,06136068901935
0,0731462189195796
0,0567726041791348
0,065703864406492
0,0531308347192989
0,0664642237990501
0,0515691109054479
0,067666328563309
0,0544954990632002
0,061412310547308
0,0554381866419467
0,0611582499292435
0,0553994306457924
0,0589326781215385
0,0557047533840625
0,0582302807240272
0,0502744090971903
0,05935862656503
0,0496397339942736
0,0597142226117154
0,049449915749616
0,0574768818919797
0,049134963365487
0,0557291191071986
0,0469209554227116
0,0528446215463556
0,0480767566521719
0,0544939388223611
0,0471095789527355
0,0550465196301863
0,0458360997674521
0,0474378518235455
0,052181809565213
0,0258966520658489
0,0921270677598801
0,0451940149653251
0,0553985642302795
0,0455999379595581
0,0450585109572706
0,0400894993964656
0,0332272847828796
0,083256439494796
0,0424022877982311
0,0483890410947755
0,0414416863102936
0,044580086584614
0,0532666750069911
0,0488189975234468
0,0352647830334513
0,0519495276601333
-0,029421038741658
0,149808706807884
-0,0128421933937333
0,122801601529584
0,0580513110917309
0,0527854301244476
0,0181236598714345
0,073441903154231
0,0546419094393754
0,0335407575411598
0,0520304660283673
0,0415646363901944
0,0682350975540486
0,0371045873769347
0,0443064788710368
0,0402077591674447
0,0316804427733867
0,0587000478012913
0,0512581520914342
0,0267475747949489
0,0697849300617656
0,0515099680481844
0,0328024227942411
0,107462527459288
0,070169536812627
0,0557264212359877
0,0349919473848781
0,0498179873682164
0,030808683971797
0,0721809796181251
0,0681224259642692
0,0445231355603377
0,0557469964662224
0,0298387845779078
0,0465534521051397
0,0454911647450205
0,0586694060997346
0,0414618632240129
0,0484830823913578
0,0639691557580247
0,0140619274051828
0,075075418261965
0,0229777564887187
0,097489608146961
0,0520901058534016
0,0518204984162683
0,0274848495230213
0,0870186550187568
0,0557092034143769
0,051403297817064
0,0539521652551207
0,0389253284859945
0,0522256412661843
0,0602822382394744
0,0330363605308025
0,0702368141461213
0,0444470225335973
0,07337357460307
0,075357728841046
0,0904201419473512
0,0686239348629999
0,0488355365368051
0,0441046857803536
0,0601548591016759
0,0420433809534695
0,0613147402070311
0,0216037037198116
0,081900000606317
0,0311964676878081
0,072495150082683
0,0736038648751585
0,054698049588785
0,0570465815968667
0,0621517563239013
0,0521474479171352
0,0764593087520729
0,0719528528551559
0,0899869259421839
0,0513080439842209
0,0863671121146657
0,0685309711734212
0,0717783111933106
0,0655687098770208
0,0702553703760631
0,0720512002383773
0,077151696827386
0,0794120177428367
0,0821404306027344
0,0767875330155965
0,0912555312361125
0,0700164727015525
0,112679399499854
0,0970315398181725
0,0734854100643925
0,135598221583966
0,0980349765043955
0,131402106527931
0,098092640734725
0,112471749183718
0,11135483076268
0,106312848132679
0,119196946881221
0,105362302915635
0,140620415244257
0,133112975217649
0,117413990093432
0,134027800290291
0,12216123171269
0,138586771480906
0,1208344697759
0,171554758857108
0,101505513071464
0,198941129373879
0,139748926066643
0,146338448846758
0,137479206991586
0,133007751413932
0,149222064026134
0,133116940692195
0,142640894175746
0,134298307917516
0,148736689379256
0,157329197351433
0,134315798796112
0,145380500990364
0,137823166163253
0,143850735877283
0,142179880349189
0,141481650524326
0,149999675553251
0,139236838563423
0,14559886636463
0,137772589568056
0,159261029038079
0,190435693952609
0,137985672613917
0,163065204939228
0,150560630116411
0,159858154693707
0,148825599243128
0,152568984910067
0,169795965656057
0,157545664368202
0,163726176206104
0,158340460941065
0,159043087767791
0,169393081496522
0,166859625637634
0,181629646302982
0,148377194905587
0,18113801727017
0,113024285304288
0,217177127587006
0,171112024169746
0,172250890037429
0,177657601684138
0,164940201074917
0,167767300562417
0,162140468124776
0,168789641832238
0,165068533398978
0,172006005829289
0,164835063742384
0,170452504207881
0,162825966198027
0,16769738751008
0,163992903618344
0,168165601014048
0,171520868096806
0,15425341009231
0,164003317362686
0,152239018904967
0,161234586957127
0,154235453454778
0,179020465549239
0,153086615844079
0,162009673617331
0,153954660766091
0,160991734285299
0,166085072275299
0,155424416999866
0,14590660682769
0,163677332098347
0,146473322262234
0,162786996291514
0,149924684051342
0,173306134700095
0,170217850487043
0,16037552361031
0,165568218493353
0,160008205408919
0,164481405265653
0,165207736774188
0,167937907746447
0,167262524340194
0,173182818183691
0,170414812777692
0,175652365998679
0,16971317890594
0,183718778473686
0,178295988146401
0,185120715589334
0,184532223959986
0,175370302793741
0,185569361538836
0,177612597365029
0,187474167575729
0,18178489859135
0,180656957099803
0,17927807689672
0,180039375107336
0,176802996253543
0,183956916483452
0,196515927233197
0,169089790650043
0,194805322907021
0,168464760101896
0,185333231644628
0,174388885824211
0,178039012599471
0,169083253793604
0,177256707533214
0,171726654515624
0,172159333460048
0,16886792996333
0,170165315430411
0,172140066954673
0,170321988053049
0,169799543732235
0,170450589808213
0,165986468133506
0,16694370771807
0,163014506148479
0,167173160600768
0,161725765928443
0,169589426919438
0,162382126980388
0,180434578918963
0,167342262709191
0,172773438007307
0,160817380756693
0,17131534790017
0,160853104857934
0,164134986906857
0,163078289627379
0,161567683469046
0,159248313662836
0,158398657686048
0,159961019569919
0,158852237782329
0,159361789975821
0,156056907326991
0,157626007887302
0,15221598943553
0,154159075779113
0,149858815957365
0,153959941949904
0,147223312158411
0,152004596732682
0,148517951050331
0,151119437448886
0,145462533215521
0,149178396188398
0,146530769636321
0,143050319857141
0,144274447704092
0,145824506465895
0,146323277874623
0,138484668632813
0,14263642829373
0,140753251971016
0,140567650938946
0,138528761263258
0,138450583623428
0,140020846189026
0,138715182107107
0,136889036927678
0,138704619282818
0,137037451679152
0,134071153421043
0,136051464253039
0,133678668021612
0,130738724183542
0,130776895538282
0,130483841794275
0,127319596370021
0,12754453868082
0,127678505499542
0,125893784805031
0,126527029564942
0,123059636291479
0,123547528424681
0,1237225856183
0,122392766407834
0,120720518070224
0,119929335195259
0,119522263607128
0,120810577387176
0,120858627789569
0,119542424261774
0,119193073637824
0,117506377348531
0,117922758129341
0,121445761920311
0,116986126453139
0,118309209722322
0,120140680713475
0,118401676321589
0,121558156564701
0,12083005245265
0,121143533638025
0,121633800333124
0,120212038788892
0,123139118949562
0,121382873199725
0,124284013428207
0,122848892614824
0,123378723745012
0,121957394364003
0,125752113579451
0,123572014757165
0,126259363390841
0,125163053757968
0,129349637892577
0,125362953741362
0,126123513350179
0,12596999635378
0,126986290844458
0,128310307365172
0,127540431553857
0,125260668760859
0,126095507777266
0,128162041565711
0,125062505184891
0,126644777080412
0,127591210840197
0,125778756355842
0,125498355983819
0,124573278633488
0,125627375136454
0,126948230304578
0,126770171938315
0,125368117840651
0,125472574232424
0,125287787162621
0,125838514477316
0,123926607874598
0,12528472223122
0,122849849231348
0,123457682380989
0,121816798444154
0,12110396964936
0,122810635876398
0,120946533239274
0,118891134411364
0,119667796435704
0,118966479343292
0,118861747317903
0,11689657079161
0,115329613999396
0,114921867481121
0,115046393552374
0,110851081976416
0,112279678981735
0,110896763738666
0,110279867057023
0,109335160424739
0,108067933991571
0,108644222974229
0,106636182566762
0,104710359928201
0,105521451283949
0,106143555840623
0,105867302264936
0,106940791212483
0,106664989183697
0,107354823870413
0,106268495668747
0,10631505006315
0,107034871900851
0,107552348041422
0,109149704873691
0,107594218138021
0,110031002071668
0,109316923103651
0,108973119338738
0,10907076623854
0,107689997908824
0,10687109372498
0,106443135796101
0,103895004473019
0,105005551254452
0,102972876309706
0,0997214976546861
0,0976633040649059
0,0967839726515813
0,0961591814385456
0,0948593913289301
0,0942837166774587
0,0935373193504975
0,0909789807013572
0,090262882334475
0,0906130895469131
0,0906656496860366
0,0891614130798809
0,0913489954981681
0,0911277355209235
0,0925264325719152
0,0952392097644995
0,0995822714829864
0,100471368711498
0,103372061873316
0,107200521179014
0,111485816149299
0,1172404428404
0,121000899016843
0,127130764713417
0,13384311171086
0,140310207573048
0,148855238405276
0,155303128727527
0,164206051728111
0,1758106932738
0,185923548988319
0,198467812708221
0,210035631455888
0,222133863043315
0,236095082347624
0,246262733353056
0,259619037866846
0,275410102511459
0,284334216960531
0,296810455269356
0,305741003787315
0,317645749742585
0,328894278383236
0,333481738614123
0,341931382137031
0,344780833987239
0,351145564473928
0,353442309563629
0,35170679219339
0,352795087767837
0,352277755027615
0,348132570900266
0,344639727058223
0,340213282934584
0,335229503344332
0,327727742601859
0,324701539157598
0,319640593955789
0,310848775905281
0,307371969883223
0,302928773348273
0,297354088765844
0,295552132318018
0,291711734395686
0,287189608923692
0,288323500816055
0,286461695756586
0,286652729002959
0,287267424019565
0,28869549975293
0,292310056212261
0,292149570241065
0,29515103920913
0,298070586615295
0,301733796110509
0,306907093383178
0,307849100114754
0,310050656208065
0,314534260979497
0,31917772985623
0,322899367685709
0,323379099147741
0,326419421081011
0,330679879576397
0,334835974859866
0,335859011246008
0,338626132795967
0,341309681640472
0,344519107940029
0,347049722623111
0,351855607286496
0,351602124824924
0,352114515203733
0,357128240695423
0,357482845752956
0,358981532325268
0,363579375172506
0,364853391965743
0,36621221350226
0,36721770935421
0,369631908566263
0,373519768076712
0,371807161067039
0,372033169396615
0,370684537659802
0,371224828130587
0,375115903081886
0,373356424152651
0,378691325302039
0,382820384054754
0,389019265939709
0,395816569969562
0,406497169628051
0,416146375587596
0,428174235952907
0,440816744100556
0,453002656945297
0,464567700803435
0,48232192544339
0,495498464749758
0,509926369299596
0,525171166199196
0,537513251855311
0,548183912160691
0,559751767831988
0,567058405273215
0,572543202805743
0,568844609629268
0,560275097597806
0,557312351283967
0,559045883077502
0,54690122088365
0,533677887080416
0,523367924232954
0,517453962449275
0,508671079526843
0,503277595430419
0,497373263971704
0,49758877498692
0,497431534518119
0,497221401306357
0,503106879226266
0,509405671322925
0,51340449570105
0,51960476913926
0,530793980840748
0,540352083146982
0,547341434201486
0,557912752806754
0,567282382243017
0,57752876127639
0,579803704871902
0,584414549749785
0,600312807927398
0,612623170696903
0,613801550078436
0,629873637581465
0,63178497413563
0,640774000612442
0,652616800220851
0,658571449302726
0,669314036134563
0,69067221621459
0,696742586534115
0,702231245639389
0,707712986656525
0,720521664352566
0,729543733793893
0,738474416423469
0,74094778065502
0,749139619884232
0,757325113906238
0,75649480948472
0,77293754299771
0,790791447186339
0,796072715052999
0,806106406221504
0,808964380978226
0,818394871289908
0,831419333875378
0,837104486749238
0,836514677606709
0,848088521850058
0,839368203238932
0,838421982416978
0,838334911917116
0,835481857917796
0,833212675594884
0,825091783168924
0,819801407621411
0,806165426761647
0,793397730534318
0,774138447710527
0,750055367661713
0,727927724627667
0,709822444215254
0,697760839148488
0,677965894789359
0,660784061613834
0,639401218045877
0,622786567127476
0,617262396844012
0,60441627936339
0,582005069408159
0,573366070628002
0,563123202157311
0,549778430172936
0,543500629530106
0,538416592198775
0,524999690328481
0,521032701955323
0,50483414868994
0,494060526937732
0,488419737851429
0,467188682184408
0,454190446108035
0,44193598432758
0,424909972297667
0,405533627367483
0,389892814594656
0,377166034711465
0,353557018082268
0,335880307056254
0,318605236646775
0,298292887024707
0,275366772267646
0,260235677153792
0,242411549326287
0,227043104500315
0,210397420162895
0,193331524508011
0,182849514245093
0,169116017771281
0,158396692977715
0,146104165276625
0,138330426885337
0,129521049649855
0,123867208753405
0,118893752774118
0,11245802616937
0,106980101087514
0,102824931749164
0,100675018289383
0,0965148422998292
0,094289107679727
0,0918413492932005
0,089061189825811
0,087219652244554
0,0869838396088507
0,081763231442496
0,0820852682235264
0,0833687179057515
0,0807818988836759
0,0833458884014182
0,0805392799844612
0,0801817360627199
0,0805996581654085
0,0780937857995782
0,0801068621501469
0,0809706363536816
0,0810789125468054
0,0847361443941393
0,0817394866588334
0,0850999453524563
0,0873911432456308
0,0921144972963665
0,0921496662767668
0,0923127078288751
0,0987347747134968
0,101341480883048
0,104057350106035
0,108409064345905
0,107169099522172
0,113891904738156
0,114350275059053
0,11484547183667
0,118327323712833
0,116774628147569
0,11259946149629
0,118756153438051
0,119818121348663
0,121864170337838
0,122272074908186
0,122168656315832
0,123438314687488
0,123676449539085
0,122351531632074
0,123354285514039
0,122953640544644
0,122609915592521
0,121534824032025
0,117329782639689
0,120748877111429
0,11889158667192
0,116112357160172
0,11870866705986
0,111827981696105
0,110843823192452
0,113139610508706
0,108927797584652
0,105165334055371
0,107289524660552
0,108185305602311
0,105522067493523
0,10573979662253
0,103218283942427
0,101907903359696
0,0998455181677257
0,0993077645825696
0,100813026286107
0,100446621650954
0,10514962504035
0,100062551112673
0,103095765410361
0,104129526884
0,103171885510361
0,104508578196745
0,106571714498959
0,106613252296282
0,103683811721075
0,105960676221498
0,107853662499805
0,106858433810486
0,104980018784539
0,101951150051594
0,101756969779771
0,0980636747688831
0,0985830984563684
0,100009808728545
0,0959584341755303
0,0935688514518562
0,0976102039939457
0,0920280765507514
0,0899492193961034
0,0863415995377874
0,0874521932838672
0,0861676566267089
0,0847107679692548
0,086210012606288
0,0886462116685301
0,0898481928612219
0,0898378988079808
0,0917898707096105
0,0917073468006297
0,0923245850555969
0,0919774373939671
0,0946091510717159
0,0936759533502798
0,0977214937223465
0,100978884862008
0,0970236951554973
0,101295402986319
0,107637606390841
0,10691549563
0,10496405586656
0,108291646812607
0,101595929202884
0,109356710645925
0,108630801791804
0,108848029210673
0,114009352564341
0,106115034111266
0,10887112071145
0,110366348999092
0,108618160505196
0,109334398910047
0,110646354501899
0,112945305541081
0,111347367501301
0,106300451220146
0,107910050296215
0,110572900547036
0,110238041745609
0,113888007485468
0,105306373525358
0,112614990068116
0,102748377136955
0,0992751682927372
0,10838943650138
0,100366509624198
0,104810528497797
0,097540826692801
0,103622583297064
0,103511363173007
0,096988064859826
0,0986596748706185
0,0970762439550027
0,0909292490748162
0,089374344607873
0,0904913623935092
0,0916610766830393
0,095724355852558
0,0951806707165284
0,0890404396821873
0,0919615659338579
0,0903128697968201
0,0912048447019912
0,086840772596648
0,0877684606653849
0,092491766399038
0,0914323832336627
0,0858878005578426
0,0823340452494153
0,0957894204572943
0,0952453876318919
0,0940741928339895
0,0902028231883951
0,0899000201168105
0,0960503053371801
0,0953959655225402
0,100593229562638
0,092926196748702
0,0993574489706338
0,107978890468872
0,0999912160079283
0,107108808689448
0,100865181090166
0,111781703057519
0,100252842264212
0,106962950511087
0,110676272603303
0,10985074603472
0,109568062018984
0,113648026571321
0,116238002124694
0,105057707566159
0,121720054982912
0,12941147031078
0,12879420299731
0,13153011092922
0,137322519405968
0,129220815708529
0,140326268729309
0,132432577604885
0,14089596116963
0,140238163105423
0,135641266510985
0,139706298764766
0,143911116313431
0,144279622653652
0,144573302178131
0,141723195268746
0,154558545419941
0,149584503248218
0,149994853556679
0,149274652324517
0,149503778339583
0,150206047890535
0,137783494218854
0,148634660862348
0,163685119700145
0,148901916744716
0,15595802647457
0,16597862258716
0,160636775425457
0,168464319451154
0,176071611470948
0,167287927499194
0,161442904472346
0,165243962393322
0,166840093364708
0,164006965537647
0,160909897161093
0,179203335914152
0,181657411671481
0,165590188945515
0,176331703424349
0,174683994445752
0,166317476039606
0,153519223430025
0,171181452509167
0,153122450310494
0,165546614100638
0,159598721241609
0,153343714171212
0,146134392014473
0,139618705402591
0,141714929236627
0,141353089804826
0,132324086600299
0,158170269312116
0,164306445089842
0,143907769079567
0,160942632723108
0,163072090766828
0,153315163922547
0,143741011597978
0,130917238784152
0,153146962395489
0,167665519913309
0,138826233926378
0,137074227861183
0,173359119524612
0,155657013355038
0,150838773835833
0,13525848530368
0,159657822863362
0,143761233168679
0,172615089838095
0,153786008535762
0,165556815196545
0,153243327293974
0,173224295450343
0,168668218467912
0,168110677113087
0,161455403969201
0,163143016590292
0,157209168777783
0,147564183423381
0,198324405924045
0,159810187543646
0,156625469609753
0,188968977396894
0,180437349533735
0,196759142991119
0,197026463288916
0,187774110191354
0,219066134233291
0,183490066878497
0,202598875413492
0,226360386930487
0,20761300075477
0,195090244768945
0,200650959521965
0,186315952017451
0,212272672856378
0,216450283457539
0,214912631036533
0,180016463884105
0,217182928230465
0,205796576778779
0,18948729692543
0,202214656711251
0,212628567772539
0,204721952333843
0,191373934744109
0,190054999100613
0,178887581879953
0,212214538753363
0,169191637374012
0,178675817231962
0,154525622311132
0,193610755429797
0,17020894856663
0,199684118870441
0,169586729019834
0,232497180587402
0,17458430060403
0,258048043657737
0,174000625607755
0,212359260197868
0,176202912290161
0,217756192038215
0,172543637238992
0,249126842155512
0,102650021496333
0,216745988119928
0,202305499950052
0,207117095948466
0,157570430840538
0,177524274875837
0,175739671028934
0,267267816570023
0,095798603147378
0,196914673065714
0,112773746460093
0,297339410359064
0,168120641493618
0,212055343789819
0,191003671491161
0,166621348870513
0,252687583021689
0,217445138413367
0,228488778017784
0,185683428156865
0,115060444827376
0,137270771272573
0,164822348332282
0,169396648635299
0,17334386309557
0,0828423927992091
0,273239493334802
0,514805591649884
0,34174500352193
0,253565740862101
