3596
4000,36533379555
650,420452594757
1
2
2
0,0524235790015311
0,0525528892922598
0,0478493423223067
0,0486016464276756
0,0527387732006712
0,0531451578400248
0,0499861216012113
0,0499635273076692
0,0458835713091319
0,0575145491706957
0,0489285084854415
0,0516151426147552
0,0437194114609407
0,045521962826341
0,0503742620047279
0,0492130127583659
0,0474424669527336
0,056595202367342
0,0571700326564475
0,0455306224776751
0,0467429367543226
0,0536234501582803
0,0525807058329883
0,0515774163662027
0,0464596924901304
0,0543939252552675
0,0495908917311641
0,0498557485976724
0,0571237299129343
0,0519136499536337
0,0471428785635047
0,0462566738920766
0,0480843537946401
0,0453570028479941
0,0409756863715205
0,0628314872081955
0,0446939631700853
0,0473562648502615
0,0501250723073049
0,0489670316631277
0,0470023416556151
0,0478722627858555
0,0475051515052584
0,0534768103885813
0,0527584916069751
0,0523530554410406
0,0465536334814472
0,0472899103910159
0,0471887243100872
0,052435033837812
0,0541085855667107
0,0453901736453712
0,0482070920111101
0,0613275401862592
0,0474752032902667
0,0647591386366193
0,0511709097825378
0,050187754117592
0,0446501583080878
0,0467235945648219
0,0461975757726816
0,069881897045902
0,0553978654907612
0,0595261746518292
0,0409298373288655
0,0515572966380985
0,0416334097561079
0,0420227267497158
0,0398581967213235
0,0509810824301373
0,0408461697975265
0,0482192572366957
0,0647788284672517
0,0514220996049494
0,0489805082057408
0,0547848822224677
0,0462820991511856
0,0445372919107663
0,0364721603116396
0,0593027706022056
0,0559355257493808
0,0514043542196348
0,050647570497894
0,0425239161197485
0,0352703959553017
0,0596712949689095
0,0479680582176705
0,028706415888859
0,0701464796511958
0,0593560386304224
0,0513492194313436
0,0425455586486721
0,0410088486093071
0,0489640120371259
0,0467415904787287
0,0430507395226459
0,0411345914223034
0,0456085973982265
0,0514655505875234
0,0358985953039386
0,0506135918687202
0,0350287616989876
0,0858560239637909
0,044890489784538
0,0597840469475433
0,0794580583585087
0,0132156493178976
0,0911330368465201
0,0625119209118351
0,0587720386829926
0,0457171878897245
0,0426567344373148
0,0417342717370641
0,049989113287485
0,0280685862512113
0,0419845582917198
0,0817307145177928
0,053506134399982
0,0516605484837092
0,0503888834526696
0,0186288366344122
0,0424871716812159
0,104017710196636
0,047908726532367
0,054223025679707
0,0461373570370574
0,0227303538337746
0,0626423677213094
0,0860735525364146
0,0435262118845655
0,0472288198100317
0,0390931536056428
0,0360385104079777
0,0253859908983949
0,0754243718437188
0,0644070283037771
0,0355696140479083
0,0235894988239107
0,0287420922813347
0,107101809223895
0,0679985115134731
0,0499395368917223
0,0276500362736575
0,0214158808450072
0,0854305589591475
0,0683702395391379
0,0344454753916123
0,0434632987778641
0,0689318383253769
0,0416091456959321
0,0435695865478948
0,0355813456574887
0,0537775336671101
0,0468429844113559
-0,00533629260090494
0,0119962729104054
0,123879724247917
0,0333744765989159
0,107014067760826
0,0617327225471903
0,041401081406606
0,0480513143995997
0,0441840745781906
0,0441028030162985
0,0296353863772728
0,0337338933878531
0,0304747138055829
0,0705202215923864
0,0328283074164936
0,0417864839527308
0,0627240440884515
0,0603977644317944
0,0151171483752731
0,0881541093990258
0,07414223877065
0,0236562768895336
0,0707614271527702
0,061907160093242
0,0379484074592253
0,0282245640287464
0,0780015514493806
0,0505695423622714
0,0474628143575225
0,0353900192394246
0,0351582495188776
0,0616218388230306
0,0506684499691063
0,0450054055133005
0,0482165690157248
0,0191824993959968
0,0256732939062806
0,0942191604136783
0,085287248359145
0,054387944842783
0,0395656386857996
0,0122456958880502
0,0436764585897875
0,0947341088327706
0,0451887786175105
0,0435124365765444
0,0331510615235432
0,0362522316065251
0,0434012764456582
0,0416251922889738
0,0332775874387535
0,00872059732099246
0,0729739594793588
0,0779743927407698
0,0446243352054037
0,0414492953370039
0,0204777452837098
0,0262147070796913
0,0751783127081061
0,0952235865662861
0,039985754988116
0,0480155373035349
0,0211292412630802
0,0467892636606622
0,0649675396177782
0,045973560649988
0,0428313841625134
0,0475541128700014
0,0394773454326553
0,0429614117964665
0,0407834855430526
0,0445601254791007
0,0371021497331424
0,044577845857137
0,0368084858682533
0,0420789856985788
0,0474197208462876
0,0557797403516441
0,0431708962831824
0,0431800788808753
0,0264906856089865
0,040006888755601
0,0713958267702811
0,0481771341794981
0,0455328459933538
0,0473049385926961
0,041147229239957
0,038763562335456
0,041004808902002
0,0434805014880019
0,0351565012837298
0,0306393504907318
0,0715263217893114
0,0703521590830097
0,0369794230740364
0,0407511183395006
0,0307440647200351
0,0722744825862245
0,0351060796933284
0,0529794302685578
0,0353435002370884
0,0451627776524182
0,014395565261077
0,0730905660708462
0,0463110308212625
0,0425845963385486
0,0511647786996383
0,0681025933294876
0,03097922476418
0,0361658388546786
-0,00592893849913077
0,101896940666317
0,0594467761015017
0,0102757316719352
0,102012154083535
0,0836906398597019
0,0433995181570398
0,043573328181784
-0,0377303904982455
0,113152258630559
0,123591040587783
0,0615430134217348
0,0408788386215538
0,0620960107971359
0,0429455362281074
0,0366174260854006
0,0489471657249231
0,0284424124154383
0,0591638696006924
0,0766446212622567
0,107280840837549
0,0466960589343807
0,0251217697192455
0,0947300965567394
0,0452689066167884
0,0521831691735518
0,0356355059797003
0,0472565651570992
0,0384740636489485
0,0720631306925912
0,0511800137295355
0,0650529952006758
0,0322100645281293
0,0744880466252846
0,0566194862348056
0,0477012700692718
0,0450160736207041
0,0691230138389152
0,0470914818168794
0,0487581500383307
0,0395904633944487
0,0539833368142378
0,0284164878277774
0,0217587569191695
0,0902303801914624
0,0751666167395886
0,0287793027265876
0,0851542763674649
0,0606812123519499
0,0526540080951513
0,0458067065748037
0,0492621770558719
0,0448526455429122
0,0476214831662784
0,021260621163684
0,065681346644907
0,0629121929834737
0,0453822873673109
0,0542004941990597
0,0473768880344389
0,0462082840935037
0,0536132598551513
0,0487682816890424
0,0531405391020889
0,0454828034454528
0,0365203457882269
0,0454437114926927
0,0886518873637947
0,0326835778574875
0,0485761106725846
0,100563717392629
0,0638477248226513
0,0526445883813117
0,0523143882501964
0,0505197268690132
0,0502914874251999
0,0550842966467333
0,0536376586700972
0,046731991455981
0,0732371683911145
0,0608085543415037
0,0470720348265406
0,0312807491411804
0,0894342936575388
0,116657989497435
0,0892559451188512
0,0545401832923822
0,0416421137043746
0,043764716399458
0,113145450616943
0,0541199558442236
0,104184879031086
0,0629988176606503
0,0656479114334987
0,0645208243276013
0,0688996336889185
0,0680242310047448
0,0683913016772419
0,0697088081099291
0,0682366655340688
0,0678410087150969
0,0711064503658639
0,0638926911529027
0,0503693767605487
0,103781264796814
0,0965650773415253
0,0750932899356244
0,0753647421596631
0,0594364902553692
0,0678263028549062
0,108219812430941
0,0973734261081222
0,125908162447355
0,0898804863950385
0,133989965399109
0,100280132611057
0,0893149230649898
0,0870305603200204
0,0827284586954362
0,098331009807984
0,0907174168047101
0,0894705404547922
0,0859188020761853
0,0976537856170121
0,105212188673402
0,104313915069665
0,0984698685345001
0,0915737181842117
0,112954518195553
0,121959305501813
0,09800912969848
0,0978367850574043
0,0772881218070424
0,163733117901769
0,14352050906936
0,143134228791552
0,111567430832438
0,12802204474273
0,100977928966635
0,126764506787999
0,111644542455082
0,124698535135634
0,104856089795272
0,144052080307185
0,146576439053778
0,135266517071305
0,155161878472065
0,13723552154924
0,137867400166966
0,146017668789285
0,124055878708158
0,183504442085491
0,145785918207765
0,13840562394486
0,144795707544475
0,187873476562756
0,1423097603762
0,170780430632772
0,146971416792124
0,157801231230536
0,152547888046325
0,15961060312481
0,149830483142895
0,174363347685827
0,175327850019573
0,166639339635491
0,1736182660674
0,174988953049445
0,166096963828438
0,182558734240062
0,180328540755955
0,189129139548303
0,18138113771876
0,178093333954502
0,172234187935152
0,177902120751584
0,175043101568528
0,230899632514791
0,186197254949642
0,211426231475678
0,191581463289484
0,197943122406982
0,200645973047247
0,200506211672143
0,198304174751948
0,211378781174715
0,204727913373718
0,21515498374356
0,206084357337753
0,223713205467646
0,214620201288136
0,209118894865793
0,214492013398012
0,222237897756129
0,21772662616606
0,236576077649224
0,23084597974017
0,232920642677105
0,229021626916371
0,274656547537982
0,252096361050045
0,276244551280346
0,252455954288598
0,248872681356646
0,246080593006772
0,25240194131122
0,247969193805621
0,266172963944111
0,262437896954542
0,263804042676709
0,267772287299139
0,268194191472768
0,264326811283471
0,277273523664328
0,27788044483871
0,281442334980736
0,27973489913707
0,305451017141668
0,294318518949545
0,293238959298846
0,28369130960954
0,30558921019602
0,282710539414864
0,303156965059618
0,311903152118411
0,312653312574994
0,305387341910829
0,31368886629326
0,305411904410131
0,316351894384459
0,317159061103595
0,329112771186512
0,323456356631653
0,331951832630393
0,320711160389897
0,325168384415231
0,329894075883498
0,345693206890033
0,327134746966127
0,340100945040744
0,34133833469008
0,362745546495806
0,354227573799555
0,362890053601182
0,355293285113616
0,367463475358105
0,352906346142791
0,366098442775454
0,368113354166664
0,370593078881125
0,365957988749685
0,379077147193683
0,371381234601937
0,385923143361847
0,374967960349901
0,389447518770434
0,377965973897076
0,393599382967125
0,38481254147299
0,411293888429924
0,411160757329377
0,42796032128727
0,425067096022786
0,414431298569247
0,394157514274727
0,429707763208403
0,418840437463594
0,429230317489786
0,406545220069087
0,432565793978649
0,440012006751967
0,442138078707703
0,431668405017049
0,461904732864614
0,439074601656491
0,44848523190198
0,456979893298027
0,444441181718953
0,435058010671389
0,465594197877997
0,449202636982933
0,468737852022831
0,473573157367732
0,494498890041359
0,476037553548808
0,473733093996824
0,474765884383534
0,490096430039037
0,49393408785822
0,497069718181271
0,478600079979821
0,496616533929912
0,483424312486996
0,497069255099952
0,483666845994104
0,509957266314227
0,498682344106431
0,500336028156751
0,523740287236295
0,568568060802798
0,51872801579355
0,527427374568391
0,518601864073488
0,533454420948041
0,522339602403209
0,526102600317524
0,53261681793626
0,564505559137238
0,542024356348577
0,551641662613461
0,546594418029761
0,554857959839352
0,559878492026474
0,566248183698539
0,546153066721129
0,581661163734599
0,570301086827767
0,586482528055496
0,57264218198481
0,585366291794096
0,582890954662118
0,597495474203577
0,584090677211268
0,597194001347679
0,576760677309668
0,620733344149951
0,573441648149871
0,581433597836164
0,594011591267678
0,621072267873591
0,630454636706562
0,628874727412293
0,641914282021638
0,618773366942384
0,602324943843587
0,635499449863337
0,623422460442596
0,645386283860718
0,604932304562002
0,627904570613635
0,634117510277675
0,642921126129892
0,64086990568986
0,671640670195385
0,667048626883346
0,681371597943529
0,647426153562142
0,664260859761857
0,63464028033121
0,656385541142453
0,679115497175684
0,682572918210021
0,672978713902929
0,696412592159477
0,66612567591482
0,689316960669588
0,669563337046544
0,68547350189489
0,678094591094512
0,696140354274941
0,68150768050293
0,711263616591951
0,680495514834064
0,684861029267387
0,685468284548515
0,717893010264699
0,717584329396795
0,723901630347664
0,684849818113948
0,71584352904675
0,733904259112544
0,727516669312281
0,707433758429038
0,731164263489996
0,723661548772473
0,718550637033361
0,71113520233694
0,724493066272182
0,720986090186409
0,752140322097153
0,733419452048932
0,744152879158274
0,73490794967693
0,75792482152408
0,729639068873443
0,737038955828835
0,744719526360644
0,778197940113869
0,763481820350741
0,760110674543761
0,737939220739719
0,785932024161202
0,78092698006726
0,790758552599975
0,76537048411609
0,780415846907953
0,771301295896873
0,766690885964855
0,75875738856562
0,762815627051359
0,742303161133688
0,771176430176184
0,768687241147454
0,801498642634968
0,783834957209275
0,804756105368301
0,780060861206652
0,810479810470682
0,773010454695375
0,772843938407922
0,753507586260951
0,799017392996319
0,81245790498108
0,819733144540035
0,796497800542427
0,794679785053302
0,807173797969007
0,830587770152227
0,797145789515971
0,817719732274964
0,799263582739477
0,810401027316949
0,812868066518087
0,821918935807142
0,817201847932284
0,85408369845905
0,82987555859282
0,830513661639203
0,78936761903372
0,796633088235827
0,802307566402099
0,807255559361377
0,790122297424694
0,825403397118161
0,816700918242946
0,830295859321301
0,821491918306937
0,794860405800252
0,792861259879615
0,842960069221203
0,840822263556449
0,805560221296267
0,788662094910936
0,849337912011905
0,816858918272278
0,834130976396686
0,811493179209613
0,844634017205968
0,846023863502458
0,865449023026525
0,814349431003246
0,820609429072579
0,85750584861433
0,856701396518601
0,80906568200246
0,847791160711242
0,833043480287603
0,827342356684159
0,811404048006127
0,835424221122194
0,808881497000745
0,845174264296555
0,843667259878654
0,857207168714143
0,824563355055434
0,830178552180983
0,818641682811064
0,842105162890882
0,824195546729304
0,828825824454656
0,844388721501027
0,853356869718231
0,830761776178753
0,851111902676139
0,831635501554512
0,82267615890256
0,822396507476791
0,8555382672467
0,814433717894809
0,824524458186065
0,804121134777132
0,838982803054296
0,819089660874722
0,861146406493382
0,828700744838629
0,841050686377451
0,846592401900671
0,849183950774843
0,814257394318934
0,835473768807071
0,825143986682973
0,842610370427062
0,81268298210958
0,850498144629556
0,839947184226405
0,835213738749309
0,82685011429558
0,83323907439789
0,819281072862699
0,842484383264054
0,832633670121133
0,847675448533104
0,825036899469781
0,853199650764133
0,847630704929991
0,824369429815082
0,806257638250752
0,826997874128839
0,795703386036158
0,842907799140618
0,820107094734216
0,839768600217482
0,824230403130495
0,825906746917157
0,793684331184717
0,843926605054988
0,81260772079658
0,831627484710807
0,824336615032406
0,844638327530055
0,825378783126899
0,837881304039509
0,801233875380325
0,831009531947939
0,809481360988919
0,811465535141608
0,814896724063129
0,812820164463812
0,776117971589542
0,818948185553829
0,809709824732269
0,80403820411019
0,781415303758387
0,831095702014176
0,815943118666482
0,805734826515442
0,815393113063331
0,834098797664905
0,811919669196424
0,795678549902028
0,774707552108813
0,800897730990212
0,793345118045251
0,815835246853912
0,774007124715769
0,809780886723224
0,781022626699573
0,811086740292592
0,790547930304418
0,781170634086577
0,773723029185351
0,801565578856562
0,782649415991143
0,78826982933642
0,783302070284767
0,791755164158522
0,781177209511673
0,787736555680728
0,76281494465581
0,791187690271567
0,772071202012535
0,802509639394607
0,778018869653695
0,782068261117631
0,743922000229365
0,769710934968827
0,757245605087144
0,771751297544187
0,749973019189787
0,775904680347906
0,74845908363902
0,746632077042115
0,746633283837125
0,762478279946046
0,730379781833112
0,765181464752901
0,722958557766941
0,743524027312657
0,739032684578199
0,75769907138371
0,733426348350868
0,74203976971906
0,735180633968213
0,750204438109591
0,717048471433876
0,735423723097294
0,730062010586582
0,729842168865091
0,724887658892485
0,743909120322215
0,72079332968976
0,719658107136505
0,692299279257423
0,714244900348393
0,6946399113767
0,717372802667629
0,694322397692527
0,704417627173365
0,691797414141711
0,701331857608084
0,696449512703099
0,687073690350672
0,697075928085296
0,704281321169417
0,667452363333904
0,692608796208698
0,665502024794135
0,67025959621463
0,655450880236457
0,681733727918356
0,677855679028608
0,665005599208507
0,652064676799215
0,673261492699119
0,646330067236035
0,661951544548535
0,66274119903755
0,674586189452762
0,652951827068115
0,657843736542613
0,643283303288657
0,657408122952952
0,642494212315438
0,644364016830832
0,624672144750694
0,632851611897467
0,629370973416883
0,624137256427779
0,610183309910264
0,627997367516735
0,615646383427155
0,628698029277632
0,62057161379281
0,627075557273541
0,608155409913389
0,613905009226648
0,604879168720451
0,61460444059146
0,594629419165574
0,600997157127129
0,602063372485232
0,60522647343792
0,578249228314378
0,594951979254492
0,583250566747327
0,601802988202389
0,582216858183864
0,582849716265264
0,581926668218413
0,577835017485559
0,575941903701653
0,58826839634889
0,560866517272211
0,573357589464408
0,556210167477087
0,560268597862586
0,557079905889584
0,557703112522867
0,536822944449612
0,554579925296
0,544932191865203
0,558343870303313
0,537789439278042
0,543560927401701
0,528534694272925
0,546653955989037
0,532136150776158
0,539113979579148
0,519936129566773
0,547963013027366
0,522129045853043
0,532687085347957
0,524206741891905
0,524249425878514
0,50696927932681
0,515462780469417
0,503851537856352
0,506759281633961
0,501486378697829
0,502022363648264
0,490951305468944
0,504489392200041
0,48901275026047
0,487340628494101
0,488332369804724
0,504348063324203
0,485906577534742
0,500985795034772
0,48168914235439
0,498847063757401
0,483107561919512
0,482719844376575
0,466388550835442
0,479904282268416
0,47576219246094
0,478967572617965
0,459823145096014
0,475337471364696
0,45591713923739
0,469503873496425
0,44958799318178
0,456761719435534
0,442043750503853
0,46117950975798
0,447298394417573
0,455313483853248
0,442104126283703
0,448779059083157
0,440396201001685
0,450579088060871
0,432446156247731
0,437980892352138
0,418645424652397
0,441799372555443
0,433577670640716
0,438636717093898
0,419375037451902
0,430876790937855
0,414929073364125
0,425911110749714
0,412316924455399
0,419188096268883
0,406420004895774
0,419084678636474
0,404660371698619
0,420424917662376
0,404458831329016
0,412643829062157
0,397746882191933
0,403982915933024
0,397221477979802
0,408387498304353
0,387074299966454
0,400676596199755
0,389001367630151
0,395047622534468
0,388411898435902
0,390032234930149
0,388965879095559
0,389868562876872
0,377047124787768
0,38464686673868
0,376021360669253
0,386617545287715
0,373664551110089
0,380347233959541
0,360266210047909
0,368719080757297
0,365605362137956
0,372181903935838
0,365005537494507
0,372658465277247
0,360784651244743
0,36527040613549
0,3596267674573
0,362317195248549
0,348390126953965
0,354055956877917
0,35292312928122
0,354642650200549
0,345075209769479
0,357042231309108
0,345295511545075
0,346995620589556
0,33844513959794
0,346099543574607
0,335847864752847
0,34232144364282
0,332880795858593
0,34602904101455
0,328087752152215
0,335596014447994
0,334128259724778
0,334800496095575
0,329547093740271
0,33217575658039
0,323141822272096
0,328940824004802
0,314262747705774
0,327357340193093
0,318189336719627
0,322020362249585
0,310969720778693
0,325853720555448
0,309523282987861
0,310493499483216
0,304936874680143
0,311054710225795
0,302380050702174
0,307688358692991
0,299979107153134
0,304922857119737
0,297737496002615
0,315257180537031
0,298565462376159
0,302035479163253
0,288654545403712
0,295191714840833
0,290853531396031
0,302725426476703
0,285180988269545
0,296997726136341
0,288474301548677
0,292954154555653
0,285392113938305
0,294041054096065
0,284448458706605
0,291315852782921
0,283260453482136
0,290939914013221
0,27953752937589
0,282043781251641
0,278884577926424
0,287570288960846
0,281273828404611
0,291038196728441
0,279967937839074
0,287553590058331
0,277755447369553
0,2902472558162
0,279564767702083
0,286545412971629
0,277944165142193
0,289928247276932
0,276462366420927
0,288942112323171
0,279429337451542
0,28811478161093
0,279960797073057
0,28698448278768
0,278843407931948
0,288674016258731
0,284711541274122
0,292581059234868
0,280718185492102
0,291269980066456
0,287512811999064
0,292888312675462
0,285733475043292
0,296170813747706
0,292210204996907
0,30109533919353
0,290249276434246
0,297538175628896
0,294413091351945
0,309770441325363
0,29460365737236
0,30613840943151
0,295620733106019
0,308783956715872
0,295655260265828
0,310774949658601
0,299997521570406
0,30837647587789
0,31141882317682
0,311620467138696
0,306336863526329
0,319270331762133
0,306740938680537
0,320548621661261
0,314149693475722
0,324288595766697
0,317804867786054
0,323598021569868
0,321683387762416
0,331101478409313
0,328754152402453
0,343766041316718
0,329272796808634
0,33847765973624
0,336251512313377
0,352464256848329
0,339946823952347
0,356239732518628
0,34177780633267
0,355688848446642
0,348954141172223
0,353049849760687
0,355380866243045
0,360654177177305
0,354585319505092
0,367988783215131
0,355566925325221
0,371033496653384
0,357800493727325
0,374649102555248
0,362851922461376
0,374545888001364
0,358867370758393
0,375716016917121
0,359202923052655
0,374600817519775
0,35892262303353
0,370191116728014
0,355238768265643
0,364827865403769
0,354743314594382
0,372530603244521
0,366925956325391
0,370154008432514
0,351893127337689
0,369846473593977
0,356342367046384
0,378427847100005
0,359523208425921
0,361904460056558
0,361137064979927
0,366979651163082
0,360915837740334
0,367704153001382
0,356689944129442
0,37174788364048
0,354392478437068
0,360298751834929
0,355407719573997
0,369016834890164
0,358017266412833
0,365762292998504
0,358751627291424
0,371003590699873
0,35928067566155
0,372500009735401
0,363237122627572
0,377660216579848
0,360025159541697
0,367882278032713
0,362734264906981
0,373103049744968
0,361362573675976
0,36988279929096
0,362514728166068
0,367580995807714
0,362111680975505
0,373480000924641
0,359510237609059
0,369308596682612
0,352466015284521
0,371055444911416
0,360807223822447
0,359945654894789
0,35435162151175
0,364352427633865
0,351341917363965
0,361716396344248
0,350865935123969
0,352897323727947
0,343941858223394
0,36226930517551
0,350664294750224
0,357149922828664
0,339064181428632
0,354619220853426
0,33991454709421
0,344107884983603
0,333160630453899
0,340900639633357
0,33005389744203
0,335576772619449
0,331682762111613
0,337113184310384
0,324909183538398
0,33043484731002
0,319978957272731
0,325695046392164
0,313754714666884
0,325044458207139
0,312769486531833
0,307523640161265
0,305029437741102
0,312072205485809
0,30094158078284
0,311637448197656
0,297118179770992
0,304627083645642
0,289918605700857
0,299869542980933
0,284799153107586
0,296074944052884
0,285653949408362
0,289519969274354
0,283354762270193
0,29137157400811
0,276428303868779
0,289600304177902
0,278970165954194
0,282380870604311
0,275382841144789
0,28101199411467
0,2720315547339
0,275603239807412
0,266934847431535
0,27327949770059
0,269118754440954
0,270316536065593
0,267137497031702
0,26871211985189
0,256680402596437
0,26598593188434
0,258708286344738
0,267516937023894
0,251294766670367
0,262823391296235
0,25537138405827
0,25837452698182
0,242850368894674
0,259616783687851
0,251832200822655
0,253896076127041
0,248668654923193
0,253577583637775
0,240292043367285
0,253753068574937
0,245080078134675
0,251141132917505
0,242169345821483
0,245219729688673
0,234702225742642
0,245330036254852
0,231308416161852
0,246019358938347
0,236165484002111
0,237544471414368
0,229935506036332
0,238326164116095
0,233390545622041
0,237617131324025
0,224202114031222
0,234883226658131
0,224335032985051
0,234449391171144
0,225446045220113
0,231719301060063
0,218265176974109
0,231678952710443
0,219482054367856
0,229681708943885
0,222628117858721
0,225379862038515
0,217414863486839
0,221956232256516
0,215792559413396
0,222663847096891
0,217411951827157
0,220610611740915
0,216950744240395
0,223663403279091
0,212646655654226
0,221166941664788
0,21233648852763
0,217335567398579
0,214145585446972
0,214757070123076
0,209481299887536
0,215703561744123
0,205260111499907
0,213614332535262
0,206662035066669
0,217199582525583
0,208059826315483
0,216799877897188
0,20858034717118
0,210421162595089
0,205687116915507
0,207850025905577
0,199207464584632
0,209358752297978
0,200712655589824
0,206328708873077
0,202091282864966
0,207425112007504
0,19921953510512
0,203514886253746
0,19609030369369
0,207461559418433
0,198412019551473
0,201696595620912
0,193852013029378
0,201173802648313
0,193285157708171
0,20001392210169
0,189483054988566
0,198015772588037
0,192489438108264
0,199857652887238
0,191232877758908
0,200551141667574
0,185714327404995
0,194842698238104
0,188640480321272
0,193184155229172
0,191384702228915
0,195714681570744
0,189753420659779
0,198174088277984
0,182248097399582
0,193361980928996
0,188828644747199
0,191268273770954
0,190779110238674
0,197194238102463
0,184518122583108
0,191126005753318
0,185620088780755
0,189958534495656
0,184859393586197
0,190087359696257
0,182727418491197
0,190886482951227
0,181722054874539
0,189586706849949
0,182544166696915
0,189538260120064
0,18180416134382
0,188533645793584
0,181274871877469
0,188053108644786
0,180967133327752
0,184194070273007
0,17939028305486
0,186545834493582
0,179521420099483
0,183578238267282
0,176550832642389
0,183742636688975
0,179206437078397
0,18287786458293
0,178501091168595
0,181644337452504
0,179287669366887
0,183590001491661
0,173873898886802
0,177531093569465
0,173866372846246
0,178499690908621
0,169236134963745
0,17925546600233
0,169485250874445
0,174909886228453
0,170655973742211
0,176204346236396
0,169532953900208
0,181219159545065
0,164289870052279
0,170292499483877
0,17021031236482
0,173273137626033
0,163370971796388
0,168483410732266
0,161287272656195
0,170630603854766
0,161407801329064
0,167644710320915
0,164339655268839
0,168994206550998
0,158885669018821
0,165766449747465
0,160149836726984
0,167685548511867
0,158269881497847
0,166472032850431
0,154399492048796
0,162189163021169
0,156846379630336
0,165759492868103
0,15912722046853
0,160955468376943
0,156399504281686
0,161634270171179
0,149929553217434
0,158131822690753
0,15270971103294
0,156886785873226
0,154745343850222
0,155877670975454
0,150070077884551
0,155403699629203
0,147969542243527
0,156301432708788
0,147756941156521
0,153405706406386
0,145231816111436
0,153397113163462
0,1454916985847
0,148702336773783
0,141620949944015
0,152999851173487
0,14495486774618
0,148629041511002
0,142216475050773
0,143803512416686
0,139301294240937
0,146960857944555
0,138807761251539
0,140822523267086
0,135496260670509
0,142853405977197
0,135495566211729
0,137786226988201
0,134742851153325
0,139498652533644
0,129287666495418
0,13821679193086
0,131586286064339
0,134682692882321
0,125724581234717
0,130836990114048
0,128151016219781
0,133796315711856
0,125129724720297
0,133701372825582
0,127092669353842
0,133062166662115
0,125816623203731
0,131235152441023
0,125583377227148
0,128879115860993
0,12267385049157
0,131031067748568
0,120095403629776
0,129729949736924
0,123165954630217
0,127547185798675
0,11824675498041
0,127098484238775
0,122363712836315
0,125633180459319
0,116842380252574
0,124784074321507
0,118782630213801
0,125254616465546
0,118215365202767
0,123379639838308
0,115290328589653
0,119513802229971
0,113673073192512
0,118357735672158
0,109672747781732
0,120628970369415
0,112140985776599
0,123558524814918
0,114030793823703
0,121251897633045
0,112865465656873
0,115701435255159
0,11297074805505
0,117563396096548
0,108380103937487
0,113515629804708
0,11119562824109
0,114790469376306
0,106006151927999
0,114771866589619
0,109221303464273
0,113400128385035
0,105615721754617
0,113412762646423
0,103951787390413
0,111286620333537
0,102947192924475
0,108261123915874
0,104452059073111
0,110267758339091
0,104960916264291
0,110818484180663
0,102820850409285
0,109684424731574
0,102112748517385
0,11212533259537
0,100944146079568
0,108179049640092
0,102010478051888
0,106686275069598
0,0985563968781751
0,103014742733567
0,100337221320598
0,107954013111394
0,100079386121753
0,105809727594778
0,0991473335753667
0,103753533499649
0,098447893404133
0,103573665556999
0,0993216412472635
0,103472268157845
0,0968478513536874
0,103931322900422
0,0943766079126889
0,102854263298776
0,0984734053881631
0,104089501559152
0,0956438958524242
0,100305473687147
0,0945312974609267
0,103558611545776
0,0975867798646121
0,103430322138373
0,0970124010013527
0,10429451418207
0,0984980564608323
0,103172765810953
0,0937222215044126
0,0991041312391294
0,0934463725310354
0,0977476535796167
0,0960703506293037
0,0991621550711058
0,0922101168010516
0,0994125316389859
0,0936766784365058
0,0974195969162925
0,0888442874331805
0,0974780826685099
0,092720114862425
0,0916746606980478
0,0887637822621598
0,0953353117274354
0,0927907849280416
0,0964137150865423
0,0902951267188948
0,0953794951999912
0,0889991477859945
0,0903582776756456
0,0871646262289072
0,0932943695333908
0,0874974947827933
0,092377725125214
0,0880227896727368
0,0915907103692612
0,086052557977029
0,0919175298203271
0,0896328237259015
0,091547044774465
0,0875849520656136
0,0924783072009219
0,0848294609055311
0,0926615751925655
0,0833555602466744
0,0891358161503754
0,0826520352775235
0,0915973680096157
0,0863631397099137
0,0923393936553386
0,0868948766666561
0,0914830332608834
0,0835600608295381
0,0897364084864596
0,082527606769301
0,0893713689077919
0,0843563887341283
0,0889046113966641
0,0814554016880494
0,0896893452569869
0,0855041054900717
0,0879056227629046
0,0815787524014532
0,0846189445036372
0,0822320457206397
0,0862822677233022
0,0832735567774887
0,0880701632611249
0,079471503433664
0,0866575010754793
0,0825473768199023
0,0834009526627173
0,0820251023372682
0,0843055702752163
0,0766706853748839
0,0842201939106273
0,0758159924409453
0,0832271239211007
0,077596174572742
0,0809992294327917
0,0778368489859677
0,0832582149371488
0,0716774300439586
0,0801105759744476
0,0715263422495283
0,0802028496435914
0,0752072641822825
0,0779691713115015
0,0721871321154633
0,0805747806430536
0,0740861946858256
0,0787795586890606
0,072134517240182
0,0754003272382819
0,0717628185572213
0,0763152945131889
0,0708230119728046
0,0762776234366387
0,0709931114054521
0,0755548978441119
0,0696902794261746
0,0739966249969641
0,0699512198620391
0,0722582635387264
0,0668553741165919
0,0723396997043513
0,0685262093104257
0,0715754160325454
0,0644669877506042
0,0735085536437348
0,0669788811040446
0,073161787282003
0,0667668118315611
0,0722393670972472
0,0674969120965502
0,0709523966657793
0,0648279408285805
0,0700959801103056
0,0641941070711883
0,0691964805975513
0,0636374983959162
0,0697931004905018
0,0616347654361521
0,069811227128098
0,0646979163417445
0,0690033279873868
0,0637133757868795
0,0722373718608661
0,0642061891383749
0,0670444232744761
0,0620947003934615
0,0676440038082311
0,0620918620762819
0,0683050127138017
0,0597085470107153
0,0642168510769216
0,0598806476212136
0,065477477870077
0,062040138890206
0,0648099636822859
0,0620552597014471
0,0646792570711654
0,0603275920012925
0,0639067942778444
0,0589643022471107
0,0613959806617708
0,0565435786045334
0,0639701369367171
0,0582284432670503
0,0616805850091495
0,0555222329610498
0,0630766254291146
0,0561244697541116
0,0601894776883354
0,0582579210136676
0,0597487385287046
0,0549286402324679
0,0595014596280708
0,0563567404701387
0,0603641949920345
0,0538927364899344
0,0598485024894672
0,0546667333149717
0,0602416684184176
0,0524244437255626
0,0601289909883697
0,0519974591932399
0,0571318161254197
0,0530351619504033
0,0579311804928943
0,0543841680574735
0,059252249301226
0,053037036744954
0,0571979937240345
0,0548148094078961
0,0576496623726356
0,055648910402695
0,0572000064986316
0,0528639501646878
0,0590709126476307
0,0551296917722025
0,0586930216063242
0,0522423787503324
0,0574286624722122
0,0551499288698278
0,0633454535334826
0,0528074465838608
0,0616107135537766
0,0518461358921791
0,0622908763079144
0,0537118458716259
0,0659031696361885
0,0566465153984984
0,0639273371719013
0,0506727415780281
0,057341961022941
0,0457622400726812
0,0598817607983226
0,0590196464315909
0,0608065865819975
0,0488548390819663
0,0620103627892886
0,0603996075002718
0,0542274864433753
0,0545697900279338
0,0660974981020839
0,052182648101966
0,0641215303344437
0,0469373605988655
0,0662782542856502
0,0497158965778911
0,065197441999539
0,0544465753288796
0,0606094412606977
0,0528949594407899
0,059791467946503
0,0452816712556516
0,0531726213631713
0,0470492190097207
0,0536662536014428
0,0453436088413408
0,0535621350567324
0,0451567237564336
0,0556152647139762
0,0416911671355606
0,0634165769754968
0,0482698563571837
0,0640483784439021
0,057355993093606
0,0645533575277459
0,053029283499332
0,0633808244015665
0,0426195060890253
0,0557621405222415
0,0443561087611399
0,0641599305350712
0,0544798341383309
0,0720857118713637
0,0453069486862835
0,0521072400561422
0,0476673845736148
0,0652784989661562
0,0552962192637121
0,0509998972337534
0,0484295605595866
0,0624861780476123
0,058641262353574
0,0450490840089111
0,055891768225148
0,057723513330903
0,0585743229969875
0,0449846351746001
0,0604489456574408
0,050509709351576
0,0519467011172367
0,0507932309946278
0,0552294940634854
0,0490946926793059
0,0553221603954111
0,0546211867292718
0,0465327523328843
0,0565503636088697
0,0482137443888824
0,0555499139632251
0,0473696640210247
0,0509716933382105
0,0476738337809232
0,0506230709056836
0,0501273382157633
0,0492455778045081
0,0470133736241043
0,0497835209683316
0,0472928463277843
0,0484193602068407
0,0441054691096134
0,04999488846152
0,046739309889733
0,0510748592734596
0,0442176295944798
0,0501906579244876
0,045244854408465
0,0483225500243387
0,0463533022601511
0,0471969604387871
0,0458627340935059
0,0498095761517764
0,0465864289068797
0,049033360442759
0,0445977747379604
0,0486321350435312
0,0457056679451796
0,0503845819636101
0,0429554218897312
0,0500287217861021
0,0452379746172278
0,048459537918251
0,0441978021026023
0,0506172270597362
0,0457326008249482
0,0489088008885318
0,045011392091167
0,0503981930390639
0,0468706175788789
0,0491063855979591
0,0458324485947356
0,0503472364496035
0,0455898556141052
0,0484765512834862
0,0447690097997647
0,0502715886165431
0,0461795872437794
0,049059597800459
0,0471767410681786
0,0491322496793329
0,0469702314675799
0,0511577942111969
0,046090582788346
0,05189348913908
0,0479765555547133
0,0472454852385388
0,04504444185599
0,0487979264805883
0,0451957982755483
0,0489121944510428
0,045636300885934
0,0488460171173253
0,0447455685189197
0,0490897047737837
0,0455020330207723
0,0508533589036669
0,0456096365501196
0,0505363533516805
0,0451570977391378
0,0508184491273319
0,0452858572008987
0,0486845963431319
0,047204353726138
0,0508142002673808
0,0438016401681314
0,0510197335581677
0,0475157951847611
0,0512716631996267
0,0445199145100032
0,0497944425258472
0,0475526985249618
0,050553190337886
0,0482122021782272
0,0493578688402762
0,0454988182064114
0,0513502453757457
0,0456111401194027
0,0532781232841308
0,0464213359457658
0,051290366611079
0,0460089867334165
0,0517749172050525
0,0473157617963124
0,0501820652779609
0,0456254349703251
0,0517529935684401
0,046383850604813
0,0511998602101833
0,047285385781727
0,0540979693463257
0,0481737210361332
0,0511881478418185
0,0474766943197116
0,0538013880171595
0,0489246853823945
0,0512836160940614
0,0480915651974986
0,0515968407509854
0,0501858161442786
0,0537589296434115
0,0487880661004181
0,0529271716644564
0,0481798819468826
0,0532316212896808
0,0484207144024512
0,0532526665457682
0,0479703502695602
0,0515891955975611
0,0469055669209399
0,0541614272423983
0,0470007619185259
0,0515783210204681
0,0492246108791007
0,0529182611130483
0,0483614702359247
0,0537180275908889
0,0487501546949295
0,0512080806523229
0,0506302597190484
0,0501718248323543
0,0487595253356016
0,0532519198745533
0,050294994503632
0,0555405110185494
0,0494083395435091
0,0507398114591544
0,0503486302684493
0,0541147120702045
0,0508758435213809
0,0529639383104772
0,0496203583550919
0,0538526240262139
0,0491134627267767
0,0535517535476239
0,0510416813200979
0,0544210812180674
0,0505550042412245
0,0553096073228064
0,0491313122341539
0,055334823609637
0,0511259246580552
0,0554142309282659
0,0516521929381247
0,0554060865222065
0,0516388866900207
0,0547955542489781
0,0512302695288138
0,0546490036226468
0,0519478593262545
0,0559376559546471
0,0531125870745549
0,0551712747809115
0,0525033396097241
0,0556012659071444
0,055664529810236
0,0576236253271349
0,0527335516897949
0,0537857400750266
0,0518904559929862
0,0572943938658456
0,0534283693756892
0,0547260864195426
0,0527747346116814
0,0553876627396388
0,0505398205567902
0,0552062588116121
0,0514987890615858
0,0562829085405156
0,0515291456500825
0,0542058730489912
0,0496037858133486
0,056511594552261
0,0525788194992601
0,055172881050972
0,0498019448805397
0,0536888251882323
0,0482772973807565
0,0561180643888272
0,0485618034333827
0,0523331816081355
0,0512905544047494
0,0527240468396773
0,0505993386516571
0,0521229099383071
0,0491266532454039
0,0519685718560346
0,0495739371300694
0,0526876161812003
0,0489603194502671
0,0525082559735868
0,0505944510529663
0,053114220425511
0,0513014933113872
0,0550576659958607
0,0475840194406577
0,050085854643907
0,0462128662482781
0,0532482543941024
0,0482813701084549
0,0524800288267481
0,0488581900401411
0,0533577676145843
0,0499374056229234
0,0537381065352635
0,0509817406352993
0,053078296107785
0,0485884068604495
0,053123740743677
0,048167763571395
0,0527556372638708
0,0490841206180158
0,0517180080531555
0,0474292152492902
0,0523270228173494
0,048444473376121
0,0510931344220381
0,0480030018586819
0,0524503593008752
0,049474546218097
0,0521021642559161
0,0484503489020769
0,0517685681507004
0,0470370219468702
0,0531670551356297
0,0493008402579425
0,0525138031896578
0,0481663443281651
0,0506086803160972
0,0455989809909973
0,0522277422554433
0,0501264253053423
0,0518942701858368
0,0487149490374141
0,0515989180675447
0,0461592840074387
0,049166221205629
0,0448470960490645
0,0530670723931847
0,0471438619299221
0,0529783898523108
0,0462761942907377
0,0504999276282536
0,0473870489943758
0,0498318626067675
0,0458942871247325
0,0499383198920675
0,0489550820106186
0,0533033967727341
0,0479817776809521
0,0512839570740443
0,0436054606478309
0,0514644223330789
0,0464568879408452
0,0516292381657964
0,0449910265427708
0,0516171581122743
0,045744898933259
0,0507820467468434
0,0452455309435196
0,049132772233884
0,04650087544034
0,0508501890828836
0,0462615756571451
0,0515349832852396
0,0463872167625953
0,0487912017444202
0,0448612113046606
0,0490411445180979
0,0460382376441434
0,0514148699090612
0,0461762329511358
0,0484358494267431
0,04998638777174
0,0509942899677186
0,0467483486327997
0,0482100549630028
0,0458441790898894
0,0486523078696852
0,045875849106719
0,0495645057020825
0,0458396465272356
0,0474374402973162
0,0460212675130989
0,0486647146752333
0,0458582996933658
0,0493411813954311
0,0424736035378357
0,0472278929560653
0,0455542786477043
0,0476156216224676
0,0435808994572378
0,0451447514593126
0,0431094360935193
0,0483604141453824
0,0428568074606849
0,0451797839476237
0,0423764880901113
0,0469054756946826
0,0438237979958383
0,0486233099658682
0,0410683177374444
0,0469124775371564
0,0408141456864722
0,0453690290665432
0,0378205644565021
0,0456939823490262
0,0412144732854557
0,0439450980448655
0,042044203330249
0,0415532533268113
0,0407900997787245
0,0432491050470367
0,0411911639086716
0,042478403803815
0,0400202031426551
0,0431609778265953
0,040356057841669
0,0448577238170375
0,0412589656430289
0,04030906029628
0,0385156048835263
0,0435221219276668
0,0381359029370122
0,044232751352425
0,0351554907606285
0,050240577079044
0,0430857159520712
0,0411747645227823
0,0413875334691669
0,0455588282896423
0,0391499906814706
0,0419885234772265
0,040264354221924
0,0405391818657485
0,0393638648933186
0,0442262861525966
0,038843342713684
0,0426606438760141
0,0366737754468225
0,0424353363999927
0,0378501915756115
0,0436769162565111
0,0387515465772629
0,0396725386634079
0,0386383507432629
0,0417372819840845
0,0379500494948975
0,0425494630855298
0,0365532010911491
0,0423932786268295
0,035031757551727
0,0454093831408702
0,0431215199668399
0,0427608737143764
0,0379799138131709
0,0377654399645692
0,0383007910241098
0,0397231971912271
0,0374049776201683
0,0407693274479168
0,0370042308600043
0,0381949948688835
0,037100552580787
0,0405701414188223
0,0364895150314986
0,0391943363137402
0,0368014166818953
0,0397935600507927
0,0355582385202715
0,0388793617933168
0,0356527242989034
0,0379291019236571
0,0379943670390631
0,0391182416202512
0,0399223043130768
0,0378716057042154
0,0371264504486532
0,0326797150426944
0,0501145286074734
0,0424483870807417
0,0352471036703435
0,0400490408784623
0,0367713628765449
0,0406853092875488
0,0336055558827663
0,0381699966154834
0,0369058561087063
0,0393826443724394
0,0361750280138691
0,0364928681892009
0,0364941896053127
0,0389100413869295
0,0340967081335164
0,0395015001369741
0,0358671078912394
0,038621099512237
0,0348385262145077
0,0366006768467368
0,0356995967071846
0,0468115511699282
0,0426264762550402
0,0387579570538015
0,0386351577353737
0,0320476782471368
0,0388703756793599
0,0521649471467261
0,0316869690958739
0,0438405410741197
0,0329533830275567
0,040226642933061
0,0305046613612251
0,0399003694758081
0,0316139042623158
0,0466166264292731
0,0318593328144043
0,0396355304497261
0,0346155537109016
0,0368966295605273
0,0348977975598293
0,0377418321995949
0,0345426121904344
0,0380246594248763
0,0326207932529354
0,0354404970517222
0,0338667135190137
0,0376495421283192
0,0324662813408137
0,038563369030528
0,0307575010664563
0,0438346638990254
0,0334712061681048
0,0383776463730968
0,0342376997077951
0,0380809980167224
0,0290294575122417
0,0553991261184979
0,0338698819019446
0,0404750867085591
0,0344744784821303
0,0362267312023855
0,0330067859656479
0,0386548039647346
0,0348176984627026
0,0382606175409264
0,0361080901340767
0,0377049659921118
0,0356853374390417
0,0378173959139533
0,0343175930477381
0,0359869798373998
0,0326411392607083
0,0371617642703943
0,035837239359923
0,0370865853614722
0,0357157286304821
0,0340219999601268
0,0284327436253836
0,0582347861536166
0,0356285054911946
0,0517303053064218
0,0398040193010914
0,0406815211101983
0,0332976127472489
0,0406634746126247
0,0336317484048112
0,0413266443665938
0,0352526399341762
0,0390585867277829
0,0341019027780497
0,0388121341298179
0,0329955858858331
0,0393236550611438
0,0318219166261118
0,0410002361899296
0,032490484168779
0,0387176399714046
0,0339424760584563
0,0378651341034273
0,0337956799860788
0,0380683620271012
0,0416334602841938
0,0376069407480809
0,0304650560014962
0,0352222579152827
0,0686481825655847
0,0343992763189831
0,042317436435895
0,0364358133850645
0,0372219825813465
0,0368982087417926
0,0317656913234662
0,0397181077510195
0,0389235680952603
0,0390808500238243
0,0365644527238075
0,0388379431066561
0,0348276076517399
0,0326395593476762
0,023602986940166
0,0536835888580565
0,0483206205454578
0,0389172717414467
0,0404671370696939
0,0248392312245442
0,0511417955246158
0,0464523982707061
0,0368784967495158
0,0457375876699764
0,0343477152722498
0,0437194641015559
0,0349341575904485
0,0391777565815679
0,0350236195896205
0,047570094564163
0,0339854854329487
0,0424409648603632
0,0340222876578343
0,0399767597495166
0,0398236766950102
0,0451328578934558
0,044134353129032
0,0411417492723551
0,0347115377098894
0,0469720786067029
0,0361348583245155
0,0431759902737173
0,0374180471456056
0,0401568517696532
0,0386040234023549
0,0541587841398138
0,0378006256170418
0,0464899501485538
0,0490353900463498
0,041913380074559
0,0355916256815159
0,0531292817650684
0,0427960420199763
0,0480199100803128
0,0185025288095378
0,0743578280672508
0,0393028649047256
0,0609317682352016
0,042171251549301
0,0426250418736875
0,0416075221270023
0,0417168407490861
0,0362108747110446
0,0414785117211619
0,0536167831756794
0,0371392250214896
0,0483886069200085
0,037347471300189
0,0566214209695885
0,0448879748225338
0,0473461479345594
0,0412129258628213
0,0424750127609049
0,0396108619824804
0,0552532720473035
0,0286150486557148
0,048821885818771
0,0773219030128153
0,0509708154501394
0,0610943035980652
0,0330106355751399
0,0691204887381518
0,0572452379715291
0,0414353691749383
0,0525911794667531
0,0414184097875051
0,0495861828766158
0,0330653036527832
0,0602203195226383
0,0665270873417998
0,0411423444950708
0,0553379521807908
0,038367138788725
0,0514425101982613
0,0663057495330299
0,0482450750677113
0,0502159003700557
0,0495617222592305
0,0470968931831317
0,0406976521786351
0,0893263802662117
0,0375883164888075
0,0782217775449001
0,0576926420407838
0,0682693532804146
0,0579396788341265
0,0606204835514673
0,0529352599788168
0,0725702690324654
0,0611644716285216
0,0549550695488228
0,0444208713182807
0,0826411764531138
0,061130751491493
0,0629459187880426
0,0639162775878111
0,0452119299129955
0,060663432487462
0,10813810181123
0,089216614492205
0,0714802579485911
0,0629845122264545
0,0765643262542175
0,0778122274595335
0,0604348617260038
0,0710557660991203
0,0656967135911926
0,0707444411180892
0,0650167466983743
0,076316050039299
0,0777030002575538
0,0690503945956592
0,079556743728461
0,0616596230107178
0,0737042523333914
0,0921576414010515
0,107700195488212
0,0901986910559437
0,0934468491107995
0,11357161859231
0,0808757553747303
0,0876526776342436
0,0777680859210508
0,0975319564465411
0,0850441288357919
0,0840516719098607
0,0816558332285824
0,0899643223950587
0,112277252994824
0,0778742067373077
0,115465517295579
0,0954024733694052
0,0928084276061603
0,0689133234985499
0,143781803112159
0,156593575818086
0,093294826481156
0,132254961630823
0,0640337721985614
0,185575575069851
0,124491031511795
0,117841297500494
0,118573900651974
0,122126696083955
0,111183392227732
0,139136746067888
0,128895420020274
0,145716447247719
0,137865126131612
0,136857198349089
0,104034655615062
0,207807399419174
0,179067368088942
0,183215748843303
0,153612212149735
0,174937868375917
0,176470521690104
0,17435718578282
0,161213242070687
0,186750711201114
0,145375267072008
0,234464543218685
0,196367628007829
0,198659560076554
0,193745823209105
0,21637200392511
0,211944894771222
0,194513946132043
0,266185673534142
0,211066460659977
0,23245780337488
0,21675670175787
0,234829013372601
0,221601423574331
0,251955189353076
0,267294096165953
0,23831970299231
0,252217676446807
0,243253155110685
0,255420338709293
0,254993964575588
0,265681998345338
0,254842932255656
0,277910091362414
0,280888801915104
0,308203756382967
0,33163658662228
0,263265372378898
0,283674300736553
0,257653417498895
0,282691392748384
0,295641389296
0,255747943683461
0,320975519668465
0,265971293639856
0,279535670629941
0,272800162073193
0,276194567978717
0,27242987527891
0,277805251520114
0,277838124363646
0,271511596272831
0,299696836375501
0,221174479990178
0,349845577488585
0,285501609351156
0,279191381651453
0,274417372382607
0,279459939968328
0,268330875861156
0,280708985335832
0,262546023657863
0,28931461015701
0,273234685359952
0,26785898688129
0,274483301246137
0,25142152070828
0,302955915728233
0,259690355065115
0,268705611130328
0,264622080134224
0,255209264631725
0,258260847209806
0,226637767667319
0,297929314430919
0,267870015315836
0,245474357920477
0,255553729706759
0,246723024057444
0,253180884219971
0,24164900527062
0,244648643168351
0,249610356245021
0,244941426005209
0,24141590804779
0,247867169155531
0,233752434356478
0,241601977891315
0,234028857916042
0,241641374017579
0,232862723600436
0,245618734700048
0,23283550621753
0,244027074602541
0,23573327030297
0,235215049563452
0,236165149444077
0,240586222309074
0,238248610144305
0,234342810879555
0,231077825238754
0,240349785897532
0,227792138468005
0,242173544207805
0,227433920368865
0,23518586293302
0,228516609133923
0,233875415105144
0,223378457786035
0,227503325177804
0,224843034927249
0,232932100335876
0,225516630118867
0,234195257791386
0,217912707839776
0,22443345651351
0,221372361317995
0,211555969565103
0,263666526631792
0,213799280851576
0,226299737866477
0,213348103466343
0,213990658315195
0,207066135143423
0,211387522202076
0,247665377898056
0,20365418145841
0,209202811454541
0,200796908320602
0,201311358061084
0,211182578676073
0,200078212418019
0,196348795748178
0,201646398771719
0,129582768838689
0,305532535492685
0,152066240609361
0,28492834986466
0,201079002319743
0,198744554332134
0,162613463933807
0,227600621931606
0,188666642913005
0,176614483551663
0,185922335134107
0,19272290108854
0,208200699954015
0,173024930925384
0,182919075248581
0,174023692938224
0,171917589660695
0,196872891604436
0,18260645514087
0,164898651969398
0,206595180943598
0,181222877047999
0,175308979729572
0,246739181444303
0,196623735101816
0,176378992789465
0,159202828291456
0,171674185340407
0,14639038781967
0,202576589263086
0,181836744361506
0,162334725477649
0,171996092083135
0,146139264403363
0,161843045925162
0,162669732048089
0,175141303012407
0,145836736521108
0,170035298389021
0,16827928763817
0,13053242757436
0,183258605065853
0,139838374235324
0,206699922708197
0,156775548191565
0,153036686122055
0,133218343477413
0,193586561315415
0,155479931682673
0,156129236636422
0,150921495939284
0,134274821005263
0,15367923961079
0,154271388698554
0,133810657912331
0,163497807914475
0,140686521414422
0,179199169620305
0,167352516093199
0,182090372196158
0,156477913387761
0,13751559251162
0,13537568304655
0,148051262163441
0,135222922551439
0,148327597181569
0,114801095016458
0,173729699947895
0,118979674527944
0,177915948863791
0,159788918121496
0,143725716175615
0,148686292504313
0,15042878507379
0,143041498110249
0,173758834587058
0,167423027972642
0,185949926967633
0,144055013360323
0,183499545162
0,157864039639253
0,166073474615258
0,161735299234798
0,17440254758065
0,169042312834804
0,179474212787778
0,179007700311017
0,184487960914754
0,179093438218488
0,198475949383745
0,174723726492055
0,22673443164391
0,196707164234738
0,190223843636814
0,240756477517447
0,222934134891289
0,246404617645543
0,212439075442467
0,230981929911341
0,227592835997016
0,222935576480023
0,23909377453018
0,220434857528446
0,268023341973653
0,247726666453742
0,239215237663601
0,252303188625743
0,245479606553682
0,25650983700398
0,252638771334273
0,297373721271425
0,227592923040057
0,327776656650892
0,269856377380164
0,276512356052328
0,262540410211065
0,262451265982877
0,280710222392132
0,264007351788427
0,274500969227375
0,264314660465807
0,28905403076666
0,290965473190558
0,270132074489105
0,280532333951576
0,275450072887873
0,280579836250974
0,282550037378908
0,284912328879852
0,28958527497204
0,279454018363075
0,293283866467871
0,273744534074028
0,306954105593634
0,336662215687053
0,288537090306294
0,312503293000737
0,299587360035222
0,315153390461018
0,301710074849764
0,310719641307401
0,32893692584363
0,317496711638747
0,327344710483906
0,319010584973904
0,325181009722415
0,327043765015686
0,335226914049519
0,342316687933596
0,31625570187413
0,346156481407909
0,279579639011427
0,391917629789032
0,346374113886651
0,353288575474713
0,34674647819501
0,339702175941006
0,34282932806298
0,342649437182691
0,347364313775254
0,34423443688783
0,346378508005326
0,345101544202467
0,348000231559899
0,338453386858823
0,349757731163229
0,341520813644882
0,356425916378972
0,35859292384586
0,338287160843955
0,35087597785716
0,339596038468774
0,342252542543893
0,34195559433457
0,370862827619782
0,340451115704559
0,349100776321832
0,339602258740902
0,351826855021123
0,357679041494221
0,343253039862825
0,335169158897702
0,34618566169294
0,331526740423938
0,3518572519684
0,337609486771157
0,367839350355726
0,353392209700053
0,34923341459422
0,352743980425703
0,350941612742109
0,354380531069964
0,358522900281492
0,357423949628709
0,359674200990999
0,365815659445146
0,364348384215982
0,371242013449381
0,363919399724674
0,37337409375281
0,368025820920929
0,377290355930136
0,370751715156265
0,359511023169754
0,365481287888542
0,355731205553483
0,369206921680157
0,356744341061032
0,356117887849839
0,352193241197985
0,355915331362008
0,342792803908882
0,352214293272871
0,358508464480325
0,333512512872679
0,358743799435549
0,327035393196047
0,341428621776271
0,325011371580846
0,331994450943143
0,326520279433062
0,332481664456221
0,322021211197532
0,325432144208706
0,318758855775227
0,319127478987054
0,322099511487075
0,322860126379597
0,319543719251931
0,316685221395717
0,316718401622173
0,318324128213827
0,313116271436214
0,31389502197234
0,312612791532014
0,316251270974714
0,31362472984721
0,333718249954776
0,321077565236983
0,32832691087492
0,30949404747881
0,32192043238087
0,308849281176145
0,316594509753943
0,310900893801766
0,310704644122011
0,31351386979096
0,311230999237068
0,311592731341996
0,31290432893135
0,309917582849582
0,313469497987488
0,31395309847995
0,305627557908412
0,308413863099705
0,307776204792908
0,311166474299565
0,308001591260543
0,31244563757575
0,309561255880369
0,315451902545804
0,306613782012556
0,312628921825093
0,31026748783005
0,307283657433143
0,311213297036041
0,313186862979201
0,313827453623798
0,309797782510754
0,310737276483434
0,308584408973578
0,309447285714997
0,306137360597471
0,304783189613589
0,305408302781616
0,306315238890374
0,302120355354455
0,302877457051364
0,301462484472981
0,296556598219143
0,295346558171542
0,291581126411342
0,289747067930224
0,288307061606415
0,283985472374061
0,280197456713203
0,279305085216744
0,279083954286404
0,276087032017126
0,274494247107742
0,272083637982459
0,273495227935127
0,271606216198316
0,271876302707598
0,270834651869497
0,26460995041193
0,263863704187607
0,265618337733651
0,26381611272365
0,264041854043052
0,265539324253167
0,263031310328946
0,262543505204677
0,265187986686614
0,262249355707621
0,265004905060998
0,266789543903982
0,266294639417307
0,267377007594718
0,268278331482034
0,271028935997334
0,271276670855343
0,271526124185796
0,271200163271185
0,271279520139509
0,27530009104803
0,273461148207166
0,276486905932662
0,276622332373741
0,279935972087211
0,27830539714872
0,281123537155917
0,277267118521143
0,282797497637013
0,28089794783864
0,281524069444868
0,281217876548937
0,277784954907915
0,279757523983619
0,281773091533011
0,278491365269847
0,279089437996694
0,279594937247546
0,276125280102698
0,275861066595087
0,275755678104319
0,274322210359479
0,273246943929157
0,270861342311736
0,273324265445605
0,273234800669549
0,270844006722859
0,268825356216177
0,268051325079338
0,268042720482994
0,267488503107223
0,264764199101155
0,265688781550864
0,262236332561542
0,262063270851888
0,261398145513031
0,26084719713621
0,259770965840291
0,258088310673661
0,256998674828158
0,256250021761913
0,253393155010978
0,254244647438115
0,254074249140464
0,253888167496271
0,253952421235482
0,254080244466421
0,251351759469745
0,251503490348009
0,24922812213203
0,249702866166851
0,24790102794178
0,24671086755698
0,24472551769376
0,242313841891574
0,238726736691945
0,238478928699124
0,237422600600682
0,233216692700658
0,233166650094049
0,233009930213346
0,230820599226807
0,227923536351203
0,226424948921169
0,226788787396074
0,226680977691529
0,225673508161126
0,223512473638812
0,22532304234458
0,222390736525662
0,222976270528616
0,223611516991224
0,218676242180135
0,217657778191478
0,22011390850843
0,217356358240839
0,217004787229695
0,213831953620658
0,20912224315663
0,20750980618459
0,207264226761908
0,203132992457068
0,199654908037278
0,196614430364726
0,19733884592632
0,194072873829322
0,191446587503686
0,193659844340969
0,19383498114098
0,193674889520086
0,196307498431189
0,198867817856264
0,20419127143827
0,208646722012817
0,213529127730442
0,219776734794869
0,228731645552466
0,235975996234667
0,243976674580118
0,254942862563084
0,264811135878296
0,271987822934827
0,283521562918938
0,2948903707156
0,304588976414363
0,313544323877588
0,32579048700193
0,333892534607106
0,341228986466134
0,352540598929955
0,360809308853598
0,37109932323674
0,381679068896493
0,390174098773628
0,398272166333829
0,408423345250056
0,416175880204793
0,422134521002693
0,426670783411173
0,436879044912976
0,444077176779428
0,446333103177572
0,450525866106997
0,45368602806953
0,460564620174871
0,460508248899944
0,464197677695388
0,46426517442856
0,464722657509961
0,468386964805489
0,467019293143065
0,466781624640561
0,466387032755266
0,46413610222399
0,466249017990989
0,468981296911949
0,46952804955499
0,471056847745007
0,46926977551336
0,46905086731583
0,476362325469817
0,479899826239897
0,478423289903577
0,480719729088351
0,483855102719652
0,491448497587852
0,493433751685965
0,495807850486533
0,503468661285958
0,506084835316262
0,515496663091909
0,522698074704307
0,526068127591627
0,532489683507145
0,539815321821878
0,550605363935221
0,556759853381121
0,564992835964149
0,575887148321579
0,579321464954677
0,582996503110112
0,583357257197487
0,589993351250888
0,590768379577245
0,590725150471562
0,589362304671413
0,58640914183387
0,588537039370834
0,584561838078874
0,577414422067719
0,577791049381077
0,580479748440645
0,574692904939747
0,574516173088608
0,583252648250965
0,584498903725199
0,590032183731118
0,597773841281508
0,608720636627993
0,616338604330882
0,62325202541548
0,63180315158979
0,637479340860731
0,650927201932642
0,661834398260208
0,675039081784626
0,682279758038392
0,686008758134563
0,697154826079644
0,704419132179702
0,718473341053044
0,726154093429612
0,736679975113157
0,748781113213061
0,765095956604275
0,777713314409977
0,794274521233156
0,803484936721796
0,823662194969929
0,839057328036986
0,849017087916783
0,865160757586287
0,878462162823244
0,899182818425356
0,911152881147198
0,920080285678697
0,945315024212478
0,944049305249742
0,94921046593512
0,970672237629684
0,984055306720538
0,984570295515115
0,989215126107151
1,00229362558805
1,00120256321797
0,99232071485073
0,993686633861145
0,99684581874983
0,993360112610188
0,994399837704437
0,996009374950723
0,985166981359953
0,99193448432229
0,990640074473354
0,980550422836764
0,977488036745563
0,999615410699361
0,991347652258932
0,986531593850419
1,00090083790033
1,01819892555066
1,027057310135
1,02453729644396
1,04845979590309
1,0564987240538
1,04782239731805
1,06398195082165
1,09683285439172
1,10535038164861
1,11185548973608
1,12987038753707
1,1371200981628
1,15326196341143
1,15733392985917
1,17762052584058
1,18992562125982
1,18419830755915
1,18313306517523
1,18755183222096
1,2103700784872
1,20560578217005
1,21165632360241
1,21850971240474
1,23630655989853
1,26186962267892
1,25677185361774
1,27223383283721
1,28269019099239
1,27276598830557
1,2836926191104
1,31201090270642
1,26841340431966
1,27734929125933
1,3249040205517
1,33457431268369
1,31219624127796
1,34998883679699
1,33014936608969
1,31592629164541
1,29994529021134
1,3130381968056
1,30464642936958
1,25249748142786
1,23767766630079
1,24384158504188
1,20060851167339
1,1462342462594
1,1365403284954
1,09193294610384
1,04279088007128
1,01924136873686
0,982235113944514
0,949583275445442
0,92696446763422
0,894985711356925
0,886260447868474
0,884135064085519
0,864984471522785
0,859324998672327
0,847431146168053
0,845282222176444
0,838108492926949
0,820080038867482
0,819659623765847
0,808980607604591
0,786975294733652
0,784050664889774
0,770385942545336
0,749766007655898
0,744489203531459
0,731798583508179
0,706503155860406
0,693393935299501
0,670959590825813
0,652665270032747
0,631229716937764
0,610260691940141
0,57906150681941
0,559384194444249
0,546082515435147
0,516509844635673
0,490729434547823
0,469200683500044
0,444503082473418
0,421826280764768
0,407318144631722
0,385004005004422
0,365582228184829
0,352978368190064
0,338270999463296
0,323891441464071
0,310408451609096
0,296769685463174
0,289028726988114
0,281849204371197
0,270572713026554
0,268764135168418
0,260732689583264
0,253462503096997
0,250533690337534
0,247151667375379
0,248636079696767
0,247678522705484
0,242542984266277
0,243052350308208
0,24120131602069
0,239606497214282
0,2391469195362
0,241075692983384
0,244613507637985
0,242436875301759
0,245613074197051
0,247148217953414
0,250759016368857
0,247286703474949
0,244104294826645
0,245407996045201
0,249602032120299
0,245034999925632
0,245470334457815
0,245804704434182
0,243502694961287
0,238930541237756
0,236724117664352
0,238060717987212
0,235572204978805
0,229020008682561
0,233014547615426
0,23232263501948
0,23107923164993
0,234936378269375
0,234743323169725
0,236865967172134
0,237589613666738
0,242393938184803
0,243895416176032
0,242299493442869
0,248191120739703
0,244328995036071
0,244704369482227
0,249686671216364
0,249604663639018
0,250180452178056
0,253873888474126
0,25498959578695
0,254313619619233
0,257230901401455
0,258932216514941
0,255421314290187
0,25795846217205
0,258123930931462
0,256611629258188
0,257930613201694
0,261326396665825
0,261413567590561
0,265536779173767
0,264244811814144
0,266329835561419
0,269061396347302
0,273276683515036
0,277093721147545
0,280865681621843
0,293183942992514
0,298336967307422
0,30589322157294
0,31987163245705
0,326040287443117
0,325699698686853
0,334933112320848
0,343428616512104
0,35132388877757
0,351617515517821
0,34610387502102
0,35112295458973
0,352425017573647
0,334165220568145
0,332892890839711
0,332287251201263
0,323555102935521
0,321195377928738
0,31479931215909
0,311967739816745
0,304679436114158
0,309976389132303
0,310941274725989
0,303783858462045
0,308212427781603
0,30932891469551
0,309432611545173
0,305135965758901
0,308565836961147
0,310761683630726
0,308217200396239
0,30448684324487
0,304573859690716
0,298551650304712
0,298310276797411
0,295207661953127
0,285756565853424
0,284379912643094
0,28787259157932
0,284165021434669
0,282029236865354
0,286193922296457
0,276101918746832
0,27571406382069
0,271932507295676
0,265533579334869
0,274231544594028
0,271831313124637
0,268237510881851
0,271938074349593
0,27117019490656
0,263011930933992
0,272203651164783
0,265550807257719
0,259170372239225
0,257985649251848
0,258335017188715
0,257217208214962
0,256536924066344
0,255218716173472
0,245178810473984
0,253138871109052
0,244780122489187
0,252904932119078
0,2520497903479
0,241038958097647
0,246540311969802
0,24037402034381
0,242749724563778
0,244737863341043
0,238744023735058
0,241333779763222
0,238411790875521
0,236659302134493
0,239013222568467
0,228696069874816
0,231520801369366
0,23908876176488
0,242561329425039
0,232835500680774
0,235205130589374
0,231769918120306
0,243323193133113
0,239902786171305
0,237518433672479
0,244101735808111
0,238453881500082
0,240348795499518
0,231422781072747
0,244506045955534
0,256638732065664
0,242919831584011
0,241217581807872
0,247755108668433
0,253727600459227
0,251094305238651
0,256717094852343
0,257803833259117
0,260586406114437
0,265376254376989
0,268768440439806
0,267328332824288
0,262674716997039
0,279439727192638
0,272085336580886
0,272756110690401
0,284685063506633
0,282638527652726
0,289237905056371
0,290579809558794
0,298485407581168
0,296986884868964
0,313345971145935
0,321893072178312
0,333309323436915
0,343087240660419
0,340605629430848
0,35100673139184
0,379640710642708
0,361371528051279
0,381729648612677
0,392606656541347
0,396396035719036
0,416218076057848
0,417805046552931
0,424993407948061
0,420463141807842
0,421402221820712
0,431346700120698
0,422407695543122
0,420737678259347
0,403455804275314
0,410030562516522
0,415662149208424
0,40928375888055
0,406550962956684
0,42473741104767
0,425839308563631
0,421057630590577
0,40731585230012
0,401418955589981
0,394517064687793
0,407311709331503
0,407601354068011
0,417897620119378
0,413939591612359
0,391782410599336
0,393685489535891
0,392007997864118
0,392069668390165
0,397344997564403
0,37981610976434
0,389195640891287
0,368891660026543
0,381233711552131
0,359937226313958
0,373572471972274
0,365873939707296
0,373746724315646
0,362084421341337
0,364169317335413
0,367639431183617
0,381409744355959
0,36281695721491
0,383789706706044
0,354443878111384
0,387842257542763
0,36249338796073
0,360281151301712
0,376018349023468
0,409986193074775
0,374132468312009
0,37841922724435
0,377770648325623
0,396565143633966
0,401689633860421
0,397779381734768
0,392607729334848
0,402193871345253
0,350474614050263
0,369412056636383
0,372198135312595
0,376773933754431
0,412271366998167
0,415482963719519
0,339783307898318
0,385936011411767
0,398544922314117
0,403384911646418
0,422828869454019
0,39182767318786
0,379711628770283
0,416263106485298
0,431743825883939
0,427418756046352
0,405986708733269
0,429394598424506
0,407962431519042
0,454606936197621
0,416711640784254
0,432454541958235
0,439197019612257
0,440773382762455
0,48633456919543
0,482605052335059
0,445254237871236
0,515900497686511
0,519461682664471
0,545883014144101
0,518770132508826
0,531545506692211
0,526265139227129
0,479809283657899
0,477192582020131
0,508814973603596
0,537906702985899
0,573332147931914
0,537549794384019
0,527383252583546
0,550500302940865
0,509381598491595
0,461005268268352
0,487126963284428
0,466239295732396
0,552723268508729
0,513550857874531
0,556585857370188
0,46189474977021
0,526321375046642
0,531052596197426
0,531665817160266
0,517142765755663
0,53776955375233
0,437980448802907
0,54043256611891
0,46793007894719
0,484269294684348
0,417775528909025
0,421364034505346
0,389580840145903
0,590545872666481
0,349686701794126
0,473481274794214
0,460527439231431
0,448766090074321
0,552005591201254
0,580262901634382
0,424956772974793
0,565132955214703
0,432047633244799
0,719200306602004
0,494280464375257
0,567081522242918
0,548775177400077
0,864902332476559
0,485489456718051
0,390674277849874
0,543785139147395
0,565010026285002
0,618335206000736
0,56243285321518
0,297558821802694
0,525845466819996
0,656048923052256
1,0220759386627
0,849503391376034
0,746404278818462
0,492205093188149
0,930623325353216
0,401679544008275
0,907944908460585
