3596
4000,36533379555
650,420452594757
1
2
2
0,0441730795745589
0,0377965716762556
0,0416857869215583
0,0370412395332947
0,0407362871347631
0,0434032858580735
0,0430643082926818
0,0389144886823263
0,0352484115254256
0,0407451935253967
0,045799171010055
0,0411543124911647
0,0421613028602306
0,0398540868191596
0,0451090445423089
0,0375704342430839
0,0365337720718156
0,0424216690257404
0,0464090232358559
0,0412236133438716
0,0370131137515999
0,034935258575242
0,0450000809762616
0,0349831004329035
0,041418295759197
0,0392561191700967
0,0324164856307089
0,0367305467278936
0,0407659516205826
0,0400598525811237
0,0334580531968522
0,037098707980073
0,0421912163503151
0,045277921332776
0,0358885963701193
0,045138786783283
0,0374861883069554
0,0411269986330411
0,044422315767698
0,0387551422388537
0,0430936572944267
0,0456606491622944
0,0407135537106939
0,0362736787185168
0,0402365198243283
0,0405210307445954
0,040234713003188
0,0395157233615406
0,0367506453398812
0,0384588480319856
0,0366293136257669
0,0339625332232607
0,0429684342424973
0,053519924039323
0,0351854337074972
0,0567048986698648
0,0441035564623082
0,0404015713582004
0,0394830764939414
0,0394774178427743
0,049181845620172
0,0528767188340578
0,0436052055065509
0,0450007854728757
0,0377702802251197
0,0436969705957272
0,0283658011125989
0,0367625601851283
0,0321908624064712
0,0489685316350673
0,0285225798538857
0,0460385206215291
0,0582050470006002
0,0397785229267385
0,0473546685200285
0,0489260386753696
0,0415273199769088
0,0364933581877844
0,0274787215856617
0,0464447890512931
0,0506461945737843
0,0391081470633124
0,0402382739020179
0,0264884702247554
0,0375908904756432
0,0612171452692314
0,0352346278424357
0,0310266670395621
0,053799671594336
0,058524364089615
0,040237543681404
0,0376967363087544
0,0375347557881743
0,0339506872765702
0,0296596063279968
0,0349177949796907
0,0332666841334103
0,0381754189444995
0,0395582272576261
0,03214075924764
0,0440500084483371
0,0302375256518862
0,0863494316199535
0,0259176357921732
0,070135681277197
0,0558807532142059
0,0183947962526739
0,0837178349539331
0,0630258260950627
0,052406747970017
0,043425922470171
0,0463876363866408
0,0333507874313597
0,0429219327413337
0,0111745086912768
0,045618296745755
0,0720047178635707
0,0519544223656443
0,0394096146274578
0,0443180340208264
0,00725147561279915
0,0420063379648346
0,0964332864175783
0,0344105773257623
0,0495624479954957
0,0386131819833565
0,0163727274962072
0,065462093881427
0,083963870480314
0,0405465475771452
0,0382594961155298
0,0330384778741467
0,0198311200468014
0,0109914168362952
0,0767764957708552
0,0531679646067479
0,0361011664543287
0,0143017531093322
0,0255451407250227
0,0964907560288036
0,0661994609903219
0,0444523332200175
0,0306086970980918
0,0256782595588433
0,0860676477068316
0,0603516898954696
0,0302000094190661
0,046595860557113
0,055739822092421
0,0357232689308171
0,0388008485956767
0,0234457235697714
0,0476138138513299
0,0446271233211176
-0,0171000664638685
0,0240645183670116
0,117910743387937
0,0288225775117905
0,114109852860515
0,0524320545964357
0,0476946246718747
0,0410154698056807
0,0462947950049938
0,0303825697127726
0,0385838923455866
0,0253650999091038
0,0314217079994632
0,0705062617365885
0,0295578005851127
0,0333265169675212
0,0629588913040807
0,053367619068189
-0,000503107242793047
0,0898722935592093
0,0624691608450965
0,0193157626218882
0,0722279253307813
0,058182772494717
0,0286984251377444
0,0240054700365703
0,0712287329196501
0,0407551920245617
0,0463706772148895
0,0281836734269556
0,0348404271090282
0,0545612655449809
0,0482195990575763
0,0414822493552015
0,0424016057629663
0,00627765566913308
0,0255491029551203
0,0804135297835925
0,0827780648753405
0,0479847009384882
0,0379983364931013
-0,0080734313624582
0,0422595141951364
0,0901498701904146
0,0488470812246178
0,0375278989566257
0,0314156579978429
0,0349582648799564
0,0360597320284422
0,0323614339583488
0,0233371368048181
-0,00415387970950277
0,0800768074739036
0,065414334980868
0,0475463630999356
0,0285553388749116
0,0275613117065666
0,0104768765781887
0,081976722420329
0,0846822267945404
0,0328305391025146
0,0391582824248883
0,0261432466967249
0,0383990413712514
0,0631707266710319
0,0460935750861733
0,0384471739793366
0,0358112255969117
0,0304462227890281
0,033092954940407
0,033896792804692
0,0403299498932049
0,0330109120863997
0,0342159236897054
0,0311076171294129
0,0345036836475922
0,048627623347513
0,038812194004303
0,0391853369218341
0,0406321411040235
0,0188109561849207
0,0350868235248756
0,0651757047795289
0,0414171897252231
0,0373113132046198
0,0391725663784891
0,0417848090040556
0,0315071842537306
0,0386755206604407
0,0339403133368541
0,0348285474696194
0,00853064420663446
0,0716601785483385
0,050603344381766
0,0425371669834153
0,0276909843184886
0,0378502800637029
0,0560126080225362
0,0307133704891079
0,0419602657893188
0,0314117912682649
0,0281714254658975
0,0157247796936977
0,0704264963482163
0,0442600812529496
0,0308992993334269
0,0520311542717526
0,0582882371943855
0,0269827879899084
0,0321457843913595
-0,0108101223597709
0,113545440008231
0,0591172323563025
0,000339458450068481
0,100970803359966
0,0705357687272967
0,046000592660438
0,0355756305581159
-0,0461503927880247
0,126711441653247
0,124603741780775
0,0536418730003503
0,0320746225233861
0,0593051184044167
0,0350859468600832
0,0334101424072242
0,0413608128504893
0,0305552393136447
0,050732210556061
0,0597439636259772
0,11384748932615
0,0259429468692921
0,0353333571758399
0,0823241582773392
0,0431778530471714
0,0426352020353759
0,0304330000800834
0,0269366151237552
0,0387076442511839
0,0580451479459458
0,0481909785235753
0,0488194167048017
0,0228197923646403
0,0698313825818015
0,0479257958042127
0,0417768086463967
0,0336297997333147
0,0550005564442564
0,0366706729785069
0,0406910196909311
0,0289466385015265
0,052881959605029
0,0233016454751648
0,0166916114904961
0,0894915917900576
0,0683865013821421
0,0281888362166141
0,0714978197993848
0,0482312048409371
0,045349428146649
0,0386876940966019
0,0343939752254586
0,0354841482834188
0,037448985679813
0,0168219831333513
0,0642595355062798
0,0521935108795819
0,0346981204421913
0,0404285777585185
0,0325963464460271
0,0360439220250379
0,0371979422460514
0,0350879819109623
0,0354681023047212
0,0310698022533361
0,0223020334100155
0,0383987673176487
0,0782058346907238
0,0114506144037225
0,0357520162389991
0,0932427176782201
0,0520766420463587
0,0442612312887121
0,0412371993122082
0,0374077588070634
0,0337568162571725
0,0404213671156489
0,0360654269613154
0,03369851959272
0,0557370792987502
0,0479599080689146
0,0270888594772583
0,0164970611854721
0,0703562444082823
0,120018925124696
0,0687175252164684
0,0459792264699215
0,0176635417673675
0,0382885378230325
0,093142717845214
0,0448099846645069
0,0889869961822835
0,0353176204969009
0,050094492103043
0,041779861165668
0,050866375070661
0,0431437681425338
0,0456907097051112
0,0431034374522598
0,0437062300055179
0,0404011351299353
0,0471477172429983
0,0371260711189924
0,0217687774652476
0,0830623623264799
0,0662301947598954
0,0458140821341705
0,050020221015673
0,0226958427406423
0,0367795131161723
0,0746466558243135
0,0722211639510258
0,0965598918486407
0,0511083921215422
0,115279562559172
0,0668076962403504
0,060337315760715
0,0455956557796119
0,0524503438805388
0,0602683221770153
0,0636658312281895
0,05431627582003
0,0485957485235187
0,0546402402110411
0,0669656106562052
0,0513162686880438
0,0544732964068138
0,0413217401180796
0,0757525963023198
0,0691425824882183
0,0613312489414575
0,0480861538079284
0,0360074488380486
0,116196796357092
0,116727449054966
0,0854431345444235
0,0660661361273568
0,0778548488844998
0,0551851204275063
0,0706847608808157
0,059872788160355
0,0723468785418552
0,0528409221187033
0,0981855506861797
0,0943506513736761
0,0865142232437774
0,103748902817998
0,0691911355056493
0,0855707878719789
0,0796070275061748
0,0762692951119099
0,118771950256173
0,0869675551431236
0,0649102504733189
0,0839880801571442
0,116566318178441
0,0755900160422974
0,113786187904274
0,0788181537773271
0,0923529804699884
0,0809831853574511
0,0940756512467388
0,0805822047354424
0,100034430224822
0,100072480245048
0,0894283670213892
0,0979303021711822
0,0936378220447509
0,0905797744980695
0,104700266374707
0,104043140183312
0,107039821244165
0,117486926400035
0,098445102468704
0,100226525807082
0,0849443762908742
0,0948035453053514
0,135905227022936
0,106468103583371
0,147731317308564
0,112595995155008
0,103683703080526
0,110865913494187
0,116837856087489
0,10606513013512
0,108444498313002
0,115473520028988
0,122583330725719
0,11528947226698
0,1256201425286
0,130083864434532
0,120407732929088
0,124633354426386
0,127921898671119
0,131821559430196
0,130390018493495
0,133646236467081
0,125962536323141
0,125728786390954
0,160977926791789
0,147240281207598
0,170761097981147
0,151650370475995
0,144698481431557
0,141887939027771
0,146707582242868
0,144616154029554
0,150778490479433
0,159841963353665
0,14983716130617
0,147671345167339
0,159126197640773
0,14896538248143
0,153651867209571
0,166229164646875
0,167332223708627
0,173772309625667
0,168448558819778
0,167147421206602
0,1777877843868
0,163725028788633
0,169088578091119
0,172687018154992
0,187590634196371
0,197347966206043
0,187749950037004
0,183133984272872
0,167673240275899
0,175206339426386
0,189941103196575
0,190911043484299
0,192734691414927
0,186863071150539
0,195511338767009
0,196898673319916
0,207049302109699
0,19987555987294
0,193417373517106
0,195796722166324
0,198897160991295
0,208414338685477
0,212865595141495
0,209917684246103
0,217429396391805
0,220743704980299
0,224526569044637
0,210212006206175
0,230906496923776
0,227721361380514
0,219466847132558
0,211251799766295
0,225364240842985
0,227830180051174
0,227570631382044
0,231043601251122
0,252839046876544
0,227258551153205
0,241160749154979
0,247025632532296
0,239922645631295
0,239848724375796
0,243285755477017
0,249570963593968
0,256799781810346
0,249621750877454
0,254747581556012
0,255729452392312
0,252006984184144
0,256816861405353
0,260233336045555
0,262918014358417
0,266020946327504
0,265906987080921
0,273721065774967
0,275383410545862
0,276922157545028
0,267808247544383
0,263113359278865
0,268085843074099
0,284540094655939
0,292013655890614
0,295171318685196
0,293043769836065
0,294336662910768
0,299140912766288
0,288903541691498
0,300854498917981
0,306100803624481
0,31019970456123
0,300503478398548
0,297931294264705
0,30129229501122
0,303710214128328
0,310151099653476
0,314327378524152
0,30646728083082
0,298862208068025
0,316054163541239
0,328996332007637
0,332619546150227
0,310259450739281
0,32498114607639
0,323852256974698
0,334855927092475
0,323125405324395
0,321960368467074
0,331391655917852
0,353832981880038
0,33964328839623
0,340675438934077
0,344004538093909
0,336835050888086
0,339019384289898
0,348848724888401
0,336340635739167
0,356519751420643
0,364103850036473
0,365798736404881
0,356933498782903
0,360702171381056
0,35926935427689
0,361564139399981
0,370737512000318
0,36768877277987
0,363765368356078
0,376584790513755
0,378237501409249
0,365385724924155
0,369787282050226
0,371698620145907
0,365579304245426
0,377471064866062
0,385327536562143
0,381957650266197
0,397201032413058
0,397822067585744
0,388345921596821
0,396353202437385
0,380275546505664
0,38699070180173
0,404830144264314
0,384270580902676
0,392661691659998
0,418653965576712
0,410288955554333
0,405150083615136
0,405058929409201
0,410545831817863
0,412814170934172
0,408643440093549
0,407829523725926
0,406397360174441
0,412716426471116
0,424879740385687
0,409501331136049
0,403423562107678
0,420723018740184
0,431157058924974
0,419140245979371
0,423635990980748
0,413312029074097
0,435500268737269
0,440613663609068
0,44175433436036
0,436031294860942
0,43997759305376
0,425803131239508
0,44302974834928
0,432361434172478
0,414685790837165
0,4463430066527
0,453043301906445
0,443704640857588
0,445996453414608
0,437770555185572
0,456866733094816
0,450034513724474
0,446005101193287
0,443086515735896
0,447649891787811
0,444021125275469
0,45716120066489
0,452457014484131
0,44557163327642
0,447684216322828
0,454169513183618
0,475645535377924
0,468739048920439
0,460136650522611
0,468871266216553
0,472593547991556
0,467060269199751
0,480413063912564
0,465381606033421
0,471591686136864
0,491962441848398
0,479182484180988
0,463644843888079
0,456542846080375
0,460682701488643
0,470891734108495
0,469125904621365
0,475662744366336
0,466638266328618
0,487727243486233
0,483844913906665
0,487163071391557
0,472347191187083
0,482935069289137
0,471773695165922
0,462371505569477
0,483348296550462
0,488577480030283
0,478765014376636
0,49112775384422
0,486119265373939
0,488274505391213
0,493482254104307
0,482633869471189
0,494812834257545
0,507262670916977
0,495081339912884
0,493616760903403
0,487526120008819
0,49104701177495
0,498629752192006
0,491320707270789
0,499896628783179
0,494422984698918
0,492234375250567
0,498947839186896
0,489284049356903
0,490953282336464
0,49956954021009
0,494697049495206
0,508951397566604
0,495552592855784
0,500059382590285
0,514285475423971
0,492953313917499
0,489317326658059
0,495111298465379
0,500175599789283
0,496832760309775
0,488844627019211
0,503030929823901
0,502238460315876
0,518820018570555
0,499954406239956
0,505250171567643
0,505571131094524
0,501843517705819
0,497767191007914
0,504466820391473
0,50651173531316
0,485375931796601
0,499681664219805
0,496984029740369
0,491367170947552
0,502894723315351
0,497343386659632
0,498877764201584
0,494660885121332
0,494906326278725
0,505975264372235
0,505440730543758
0,502292943222985
0,493391303378026
0,487719610723033
0,505222292646575
0,507575299103727
0,510235289780708
0,499228853648617
0,505899735870541
0,494665969526237
0,501853820099672
0,491252393698061
0,495275063901366
0,505531747646329
0,483233490340631
0,48903319112757
0,497471608495068
0,502923765083535
0,496283920357072
0,495934959688312
0,498322465998488
0,493595417644975
0,492392494422954
0,48979222323375
0,482048444662923
0,501467872235148
0,4997992034991
0,48783109823034
0,494319675658437
0,48977429292984
0,498285014995308
0,492209539115228
0,486674801433471
0,488800871753177
0,485038076710517
0,491984867660826
0,484195981668383
0,48170581145275
0,492697522362152
0,486163679561539
0,493225130265994
0,488543397465465
0,475397754356523
0,479573049573466
0,488177619143698
0,483703862546102
0,481081673857635
0,470633632089024
0,479737606307007
0,471955685980162
0,483877939852173
0,473040193129036
0,472888668725506
0,482425163335874
0,487823591409116
0,475311565219005
0,479468072999385
0,469008114067899
0,470217928909045
0,480523578583289
0,47748761405686
0,478146577026851
0,464887540946207
0,463461979221774
0,469356031668068
0,46170753054828
0,469806472325479
0,465330179448846
0,466093704303236
0,468116574310888
0,456023376320245
0,457644007310026
0,467536244637352
0,460479192246139
0,459164178790005
0,458851271345439
0,455715362778654
0,446203893442536
0,449377734895777
0,450502670449081
0,45203698539328
0,446486038477004
0,450354531459265
0,443360771760352
0,438648296246014
0,438912362828737
0,440407240441689
0,436584752842711
0,434704025755972
0,436899432842081
0,457499209149074
0,44062348103197
0,430140902334488
0,432562235077955
0,43958546357646
0,421666566002928
0,427411942092307
0,435153790248242
0,429347888446629
0,426240375643411
0,428700326437999
0,415588956901603
0,421476707074016
0,417561955887746
0,412171715817986
0,407219581345261
0,413247099055683
0,412158016124394
0,410696641292776
0,403946878005605
0,410091446598213
0,407690659913027
0,418681699648272
0,398766252038292
0,405211540633213
0,410609228803907
0,402874428666956
0,3968381151507
0,404716937326991
0,392700449328383
0,397851017211713
0,395551175144845
0,392091362653561
0,391946646497154
0,393852574391019
0,379105549416751
0,384973282068183
0,379147054653107
0,388682180806549
0,377812379275204
0,380530979896676
0,371877275681622
0,376236764567804
0,382352421649657
0,375292524154008
0,365175731813464
0,372069912774247
0,362891978972923
0,371088443212873
0,363487060970854
0,369201017358428
0,364338017863344
0,357665256103997
0,356581261571649
0,362519893000814
0,345334125616926
0,35320350171945
0,343367827705384
0,347345149430971
0,345319750134549
0,348542791762479
0,346422200323472
0,34405362623173
0,342067037000279
0,346682950700026
0,33497039486138
0,346441403214958
0,339286897542105
0,331937890444448
0,336290738092702
0,329551575706339
0,319920244155473
0,3294931657258
0,323561303064364
0,326285271948021
0,319538822412375
0,318161301387738
0,312179942212701
0,31774693159091
0,315146314574189
0,312610683310225
0,306348522968147
0,314891683257692
0,307327909204745
0,306651145225838
0,308744032244742
0,295161628756883
0,297818694806005
0,30351568853295
0,291868498881698
0,298311545241759
0,294284022089431
0,293919395107234
0,282623553136906
0,284868846091722
0,282997688803642
0,287517552008467
0,279121630191204
0,281558881442002
0,275543901281201
0,279957384167261
0,270884074601823
0,280661289238364
0,268714099229519
0,270316952770121
0,265580833097736
0,261919610662669
0,266527227182445
0,27013654561299
0,257291933222986
0,266350204516687
0,263420500080897
0,267409733241917
0,262135498884497
0,265102680020516
0,250300255578097
0,251503777543608
0,248837421844949
0,249262375803524
0,247152296482611
0,246517493843542
0,249972492058051
0,24731979101407
0,240123079618406
0,243020995158874
0,241017850349208
0,2436698841305
0,224701360638339
0,236387539622733
0,22876546886234
0,236642765197967
0,230985609560395
0,228573456321717
0,227719563313008
0,234655369011712
0,229641106019614
0,227557626716014
0,219313575441637
0,227223365372208
0,218558984264127
0,216956564813665
0,215169691505384
0,218330356471643
0,21128318740045
0,212100170579964
0,211241351804624
0,215960975925272
0,206292426472264
0,21062359397964
0,20507438335331
0,207135874521841
0,203565596751161
0,209690438808099
0,201296665118218
0,204107846746408
0,195492250702779
0,19442708182267
0,194323974520383
0,202362874915302
0,190955251555006
0,195320011155359
0,188595307049161
0,193342229772083
0,184817130333102
0,193107835743452
0,184285557199509
0,186389652098437
0,183921646308105
0,18428196972865
0,178515231674226
0,189962632168079
0,179370912958507
0,179026088626499
0,179061090715994
0,182496536645682
0,17510673630111
0,177737415712723
0,172358312041549
0,174741381291879
0,170776574885193
0,175172970421625
0,171381921831983
0,172368487306312
0,167218081963448
0,164819422989601
0,160481886427946
0,164190847982109
0,164442892035669
0,164930501621721
0,157514901894696
0,162972652842236
0,156578592301377
0,162981837089072
0,159881848876723
0,162644477969069
0,156143485974505
0,158078715548727
0,154139667431232
0,159925798080185
0,153457193381228
0,152986332835216
0,148341664702653
0,153299636577952
0,150705793844623
0,152992145563911
0,148449530363793
0,1503137888663
0,145926983806211
0,145765498417132
0,141196298918713
0,141004295525892
0,139071043047739
0,143377605367067
0,142232150053479
0,145937986019498
0,135661516269194
0,142173788219418
0,137286282118178
0,135461653252585
0,133283623646143
0,140097665932821
0,129885594047511
0,136046060421191
0,127381294775745
0,134648742054027
0,133489041678087
0,133001363523322
0,124203636030577
0,131945078324003
0,125147211936383
0,129714957714091
0,12357584563099
0,131180945727936
0,125197079970192
0,12413442934305
0,121803857922753
0,127407777096461
0,118388969161019
0,125180470757678
0,122288397995897
0,122843328856808
0,119587267574823
0,124060897456546
0,114760063650141
0,121312906039616
0,118682351467724
0,121235750226042
0,113195663442587
0,12222685319544
0,115143345888686
0,115231926779203
0,11680754768841
0,118522351449132
0,112248898891255
0,119596945044922
0,117466910460617
0,118066479304103
0,110692747150354
0,113913938933324
0,114728530285346
0,120838299813997
0,116422823480233
0,122137260661166
0,113036071758333
0,120782878437593
0,116988876066434
0,121905164552161
0,117263696827324
0,122111672156284
0,116763864396892
0,121961302932641
0,118026603101982
0,121413247587447
0,115482249494026
0,124161569873894
0,120808185425068
0,122601777601132
0,1211293016753
0,126572735802192
0,120011284254675
0,124399218188333
0,123224707504987
0,126745476964498
0,123255514379454
0,127294821089289
0,125525610862839
0,130879480011533
0,121721900057567
0,129187259725955
0,128239392482335
0,133210475637122
0,129070517280908
0,141978805940119
0,133446802485215
0,136195192832445
0,130300332861515
0,144997253706418
0,136465226732214
0,140312765834212
0,134997396561919
0,138910212039858
0,141631694675494
0,14675520146192
0,138783524000841
0,143163538653156
0,141638679943601
0,152867539408604
0,143938388349955
0,149778318352527
0,146568667404009
0,155422085085653
0,15000482860074
0,157436183859673
0,146945217646154
0,154209352481323
0,15449565240074
0,164380379743852
0,159514315857928
0,165603154265745
0,158316168202757
0,168095509884633
0,16794583262379
0,172606746832094
0,169283266585793
0,176085651476056
0,169698475660518
0,175156924816287
0,164544273516851
0,176127312001152
0,171884045579884
0,174361587167112
0,171144708074925
0,180616266913316
0,172482097703427
0,177845580401443
0,167375633330659
0,173469308141385
0,167815097403907
0,176360233418266
0,161887099326111
0,173543862318972
0,171886359470534
0,177854289906263
0,170499344417532
0,175027662841317
0,166041790171679
0,175889466430962
0,167740481567423
0,171571634439362
0,163706120022973
0,171669556527438
0,171464001085799
0,176544304326363
0,167790784468739
0,16887875157385
0,168971913973378
0,171622181504916
0,165409687918665
0,168240086615402
0,166061788997913
0,170638163457968
0,163404311696327
0,169582722265736
0,165270381081325
0,170061842591585
0,168473225098447
0,175091358463086
0,161280993922555
0,171715581817251
0,166093088633523
0,165749370321218
0,166998113813737
0,17350719695211
0,163187175739498
0,171173093627752
0,165239974709003
0,163953999424824
0,168992372371369
0,169854083095927
0,160368635637829
0,168201013808629
0,158080860891148
0,169133716374353
0,15990386995378
0,163152826485118
0,158795925119903
0,162026514217128
0,158301995257061
0,160291385255152
0,158524864677336
0,159756706468539
0,152313366599751
0,159890568034231
0,152525993632756
0,156218072964188
0,14713815720544
0,157403914530073
0,147515545370482
0,153176526304174
0,148083803416323
0,150014715893274
0,140046694805396
0,146830413181734
0,142600377560878
0,14271576898867
0,140000800872564
0,142333697721184
0,134120486140198
0,138395641927261
0,128630210418687
0,136396038528948
0,132378472441341
0,127951002489934
0,129595623598859
0,13090164610489
0,125090662464864
0,128452220126273
0,122645901311528
0,127685742573468
0,118323772198433
0,121894900990931
0,117945465996454
0,122932666961954
0,116310638835255
0,121590899171553
0,115039647736053
0,117487143929995
0,112040474794214
0,115899181313776
0,109721193476458
0,111632677184347
0,112826056535772
0,115633557307397
0,105861417014943
0,113871148898495
0,106969027859631
0,111728076288819
0,103391642432421
0,109053627589134
0,107352527424154
0,108580303436057
0,101502358491847
0,107157508495684
0,103111034596625
0,106568451506582
0,0980596570711222
0,105061753298463
0,100068867132917
0,0991927521520219
0,0923251572197586
0,103000272077997
0,0950144577956566
0,101612588806126
0,0983773108879215
0,0995710141049676
0,0936919079684715
0,101167442494088
0,0948204056703338
0,0980130928623289
0,0925853838264826
0,0930972046770044
0,0868136023552186
0,0951100860972252
0,091386150071817
0,0925148837032701
0,0874831583983653
0,0898481874767911
0,0868078171524655
0,0918072710313056
0,0881782602830496
0,0885590359338253
0,0830201383795818
0,0907175001627295
0,0853896144993535
0,0881500182099605
0,0837473211112369
0,0880553425575168
0,0840372180377104
0,0859758603385785
0,082338394241706
0,084625822263558
0,0794032014101242
0,0845195378872869
0,082518140774811
0,0836663347428188
0,0811367520236249
0,0835477464766343
0,0811436292155944
0,0838831522989772
0,0791793858800277
0,0845372039371491
0,0830293135912178
0,0831008271649212
0,0791840402260049
0,0847844863870582
0,0820594012377478
0,0819674250826756
0,0778799003791147
0,0841624497895719
0,0751650738125005
0,0804176843944607
0,0774246317333056
0,080334215598304
0,0767882526816523
0,081754320046986
0,0765527023930405
0,081570806945733
0,0771819498549449
0,0751044552295916
0,0739658564513138
0,0803106688487072
0,07482241852294
0,0798386412108387
0,0728661830187633
0,0776412388430132
0,0702721348879307
0,0758396097900742
0,0742845548583434
0,0759884642432634
0,0728901368529574
0,079518176398719
0,0732424959689321
0,0754620829584934
0,0703377757258258
0,0766917250453054
0,0685958926949953
0,0770427138444
0,0709462393335279
0,076601531118279
0,0719169803814203
0,074007152174557
0,0666907825124225
0,0756926328847804
0,0690297213896563
0,0697922950407917
0,0691424358482099
0,0743904549929949
0,0706292810919873
0,0722949601889618
0,0642047531296652
0,0736450640458093
0,0720998287105926
0,0722785732703489
0,0696283953691999
0,0756593214196956
0,066001024544118
0,0723750952549377
0,067725124642547
0,0730100436126397
0,0692473731416756
0,0736867196146118
0,0671801052119839
0,0735895479334037
0,0700100663247429
0,0738454053230406
0,068113855775892
0,0708532262537933
0,0679794188036706
0,0711916889240628
0,0644184667701305
0,0725109618662813
0,0664453966509718
0,0705492613487081
0,0669069836439469
0,0734561434076571
0,0694896490046847
0,067928400060161
0,0664494155665067
0,0703327168269119
0,0674139131384869
0,0693854990042535
0,0628032317119693
0,0692898903930752
0,0633290246777512
0,070469285500054
0,0634678523255306
0,0676444370124789
0,0623559240062376
0,0668306446066242
0,056694823994302
0,0662631294299073
0,0635617732810503
0,0659783002332304
0,0644358251144232
0,0622112343683738
0,061641408408199
0,0679315174866198
0,0605672797392756
0,0672594873054442
0,0601655911422951
0,0643364906638147
0,0607611702407152
0,0647307917504216
0,0554211580879312
0,0605213037178532
0,0587443082854142
0,0622411341949161
0,0599032001278744
0,0630795213100694
0,0588569973170155
0,0623985065485803
0,0573294712467897
0,0604990350444322
0,0557260150841179
0,063205759653723
0,0564895464864592
0,0628879896630743
0,0580983949921341
0,0632201039061788
0,0598259444202355
0,0610708054360888
0,0575173497729743
0,0626613908642127
0,0562452646177483
0,0577911798892494
0,0528401961481642
0,0601027460631889
0,0569958180710947
0,0565441881096657
0,0555976303163808
0,0588709599144959
0,0544159036055043
0,0616986863004921
0,0543945945071932
0,0583564547971426
0,0490828561697563
0,0567161025362206
0,0519442147842558
0,056455253612668
0,0536967234281479
0,0565098224585582
0,0540850738276572
0,0571747691830682
0,0511343134036801
0,0542006270553995
0,0533794859109
0,0550304446576386
0,0501726308735638
0,0528349232675761
0,0490343997448168
0,0557841867877439
0,0485979874630816
0,0522146209887979
0,048844106754507
0,0508653413597699
0,0440541235651421
0,0513240733405906
0,0447647442318889
0,0493684040660423
0,0416483715725336
0,047326024976022
0,0452626938282143
0,0507047890760109
0,0479496974430187
0,0512774347584743
0,0438201278525393
0,05145085328127
0,0441386392896502
0,0488124870802152
0,0461271869924633
0,049411741370876
0,0416301839715312
0,0478993556019775
0,0418427270041886
0,0475792981899253
0,044708397016999
0,0470553764693617
0,041271133827775
0,0479041269494992
0,0429418785414108
0,0462149612860459
0,0423422093231506
0,0480902867096176
0,0418480989119544
0,0451796565728779
0,0435823393783333
0,0471073403135109
0,0410734957365636
0,0459605418804934
0,045018010261257
0,0449129736430919
0,0419126685728745
0,0444345779210601
0,03757990027225
0,0460933868683555
0,0415112984127993
0,0472762384860849
0,0393898627951366
0,04327868884811
0,0420082250462699
0,0438136112657263
0,0386069471595466
0,0423846160607571
0,0392388098894891
0,0457515392326886
0,038428822692176
0,0434657016477238
0,0392578738003939
0,0437402998981302
0,0376389847507378
0,0427677892046753
0,0376699190776155
0,0412097145054184
0,0374271553502148
0,0399787608991711
0,0362611381932876
0,0408737800855774
0,0388905333018839
0,0435835806634153
0,0363357761051172
0,0402230169203504
0,0319103706832691
0,0418268973453358
0,0381372533269107
0,0403216025158005
0,040108637581178
0,0393373063396203
0,0360707767532561
0,0393838531284222
0,0356206422273011
0,0427256080295428
0,036352137403512
0,0388080070460056
0,0349447242701429
0,0398377093480277
0,0340699545945702
0,0379565905805799
0,0363223087535686
0,0402024869597691
0,0345484388440904
0,0404446446797292
0,0340513219330585
0,0416096054834208
0,0358052819861663
0,0403435127031408
0,0342674659057876
0,0397726031008904
0,0355458557811895
0,0400542308231916
0,0345425299722588
0,0403467340875303
0,0356600186890841
0,0392995073713214
0,037614453916729
0,0418733889126687
0,0358696661443098
0,0364662956337461
0,033550819329635
0,0358577842229509
0,0360300620663619
0,038915717255439
0,0341603433436492
0,0404185754307539
0,0324606199473565
0,0378045061105655
0,032992317480612
0,0353578148699623
0,0351357226838597
0,0340207568890351
0,0336750737876138
0,0358459238302412
0,03459340574531
0,0372791208427894
0,0349639230782839
0,0363340665686385
0,0332479858464642
0,03544021326485
0,0304078933441524
0,0337396454156599
0,0331875285746884
0,034577228583506
0,0300826195569015
0,0367878212254821
0,030683270203115
0,0357425067909715
0,0309508552585449
0,0337659423776984
0,03066041864629
0,0356953960581307
0,0325865155551676
0,0365981321848176
0,0300755210508494
0,0312682072178621
0,0300154469238437
0,0347627981339963
0,0300046226377033
0,03757058968223
0,0310704185624668
0,0367922212928843
0,0288841429058204
0,0351818439612791
0,0298555623683871
0,0365264694122472
0,0323269679155915
0,0345629997812763
0,0303961224150344
0,0356024460873946
0,0287289313855412
0,0342291361318257
0,0291478930621115
0,0329557139740554
0,0289246515288735
0,0331438632235023
0,0326406472124595
0,0339787174480706
0,0303905056676189
0,0367551907305109
0,0315588412801175
0,0335691594855576
0,0322421512040874
0,0330148255044668
0,0294950997714389
0,0342683372094093
0,0267380086594366
0,0326207323770639
0,0291631199641428
0,0328181018090772
0,0285380922712558
0,0329735034989851
0,0276928670408727
0,0286553510136237
0,0270482985462648
0,0311277745955392
0,0283821596054743
0,0291578426872265
0,0261967800382489
0,0300630040521341
0,0293685408868247
0,0296284899449832
0,0288018712993836
0,0283238840338367
0,0263117125988039
0,031235507598016
0,0251091694051197
0,0301154281691658
0,0256125785912258
0,0294205942046636
0,0255615894122744
0,028908534812914
0,0257506380258382
0,0289184104152027
0,0245415310369846
0,0285996284225649
0,0248985335426948
0,026619284421584
0,0215848106357061
0,0291228478200232
0,0246956360891599
0,0304197145270046
0,025944049479516
0,0278328789524819
0,0255609587893181
0,0286892003156425
0,0242560292161113
0,026692721198906
0,026416678572987
0,0266198067821085
0,023905681075997
0,0274190413615871
0,0214615566411966
0,02925362705963
0,0254416242152651
0,0262872095697285
0,024123883668427
0,0301658663646471
0,0248009459086817
0,0279725715100333
0,0249065228037711
0,0282211933917714
0,0252558526032671
0,0261743432901126
0,0218492962327724
0,0273582568291711
0,0219640211186193
0,0299003914397309
0,0226534768328321
0,0277363955716862
0,0204690112796443
0,0273842764856615
0,0241623673493965
0,0265950668606734
0,0208583046992214
0,0234120156651262
0,020818980974275
0,0245437281289463
0,0221703803740425
0,0251002609992716
0,0200121956512811
0,0252632546748259
0,0192607249374061
0,0230940484462706
0,0220989004363492
0,023561177436858
0,0208637605411027
0,0245976063758139
0,0216989695096838
0,0248726110313299
0,0201990701583687
0,0230046346430006
0,0209658321913794
0,0231922718040463
0,0182819876610998
0,0238837837202446
0,0203099359608675
0,0228147370247266
0,0194400521648015
0,0219960730921604
0,0195755551448841
0,0243290115660448
0,0205622132921172
0,0227273392503182
0,0215523630534867
0,023761479407613
0,0220778152283899
0,0243651620524446
0,0186341050068862
0,0255955191864513
0,0213415433537492
0,0237269047655838
0,019070340853687
0,0261824847119339
0,0248237108562528
0,0302505454680657
0,0206206615999835
0,0252114766099927
0,0230047225341268
0,0266286689772238
0,0226662085704352
0,0307524941618613
0,025701807732127
0,0337831724885963
0,0201317502909853
0,0230163467243148
0,0134167003263255
0,0266455860214344
0,0260014479157019
0,0308055186589072
0,0204375404413743
0,0266983057091118
0,0252411493161502
0,0200606798432029
0,0255976100179163
0,0280793622549417
0,0174642519501114
0,0319255949594886
0,0201657386151063
0,032868662633165
0,0211273050810675
0,0306675325526007
0,0240099532391116
0,0274479658568991
0,0259046308472939
0,0250374201856711
0,019117003570126
0,0198789279189775
0,0166935372801537
0,0157778535646192
0,0173787353290847
0,0201559704432354
0,0182323678707342
0,0202035712533178
0,0145560816543228
0,0238980167162664
0,0184926153364552
0,0238895103140683
0,0264796425112276
0,026218590446144
0,0266589181505497
0,0279192275824676
0,0158415371500635
0,0215162315245878
0,0171688425797628
0,0226352461382825
0,0260082204599863
0,0366352414908614
0,0211714123652996
0,020391936848328
0,0186608704214651
0,0348811267331262
0,0216132366441596
0,0258628802370132
0,016657214828094
0,0359518751154466
0,0230851443472817
0,0247457614157522
0,0178500652547052
0,0366316363209917
0,0218062581886685
0,0266132827966347
0,0194881213319998
0,0282367387863285
0,0177612329162902
0,026749669456079
0,0203285100977081
0,0233910679118491
0,0237808027935168
0,0267613417323978
0,0164470496819142
0,0252232748726331
0,0181163629829936
0,0242953965784942
0,0174071312363359
0,0216918483678342
0,017580590038757
0,0216273115639482
0,019454496355106
0,0204102886610118
0,0157174048419596
0,0236361290206183
0,0162114815405641
0,0209271974358403
0,0155310725516372
0,0224283744042315
0,014920128530049
0,0223154136645797
0,0164999590068847
0,0215161115111455
0,0155081423743419
0,019669647359284
0,0157928505859271
0,0189626082117689
0,0144093129844558
0,0215797019944533
0,0133226524505104
0,0192486613386328
0,0149169711281073
0,0201352458009816
0,0149925129248775
0,0225155015916751
0,016306827527821
0,0213409169054358
0,0160576062127517
0,0216383519847031
0,0136616357977656
0,0198373049166782
0,0165174834159515
0,0197037605747262
0,015579991034821
0,0204010930174068
0,0159537258017004
0,0201925752893536
0,0150513735196348
0,0208844909519888
0,0167671262267212
0,0212752937069305
0,0147419164636772
0,0200562642087578
0,015386626410129
0,0206736882762503
0,0191284618870945
0,0214978501613925
0,0157439850832675
0,0199685170179133
0,0169434470151108
0,0201478606305367
0,0174528117936441
0,0205082789837857
0,0180103124104004
0,0181141085147808
0,016510547125993
0,0206051480371228
0,016230153619797
0,0195489916738502
0,0139278594865714
0,0181593025891849
0,0139425786014835
0,0217150887084017
0,0141397273418267
0,0207631765206017
0,0156631949279168
0,0205422084520345
0,0167597662654027
0,0190204712822975
0,0159389606557089
0,0185188105417559
0,0160985264962804
0,0204635519877928
0,0142172496908677
0,0204073901281684
0,013427199504938
0,0185644323328411
0,0157467014699358
0,0209325958170226
0,0154089871382355
0,0198539582855538
0,0144880252629828
0,0196809742705322
0,0148745390081958
0,0203471073590354
0,0162280030050522
0,0198956219932593
0,0149410233540412
0,0212506221982823
0,0162725281549741
0,0192597799778712
0,0139493135251962
0,0205144875002085
0,0153008354766273
0,0197439715907696
0,0174367726040696
0,0210150704799694
0,0171004680637748
0,0199466156371268
0,0147194075175898
0,0199467219347179
0,016437806880882
0,0201815451119862
0,0178511212375301
0,0192699649943183
0,0171081058136875
0,0207918851403699
0,0152408946047413
0,020117677285733
0,0172739853096583
0,0208545638098658
0,0147936820532527
0,0218150203364514
0,0158242652354349
0,0187206986808882
0,0151672615716531
0,0214709932356632
0,0156043864601103
0,0209260585321501
0,0168907033412757
0,0203499209144503
0,0173327358470713
0,0201186909526906
0,0153057460241156
0,0197671111466832
0,0169448454506722
0,0195655374534209
0,0166639453878206
0,020572168900043
0,0163903532564057
0,0206393967810376
0,0135610681268696
0,0187066007237373
0,01573104814039
0,0178949868307061
0,0168984805175698
0,0198306334178718
0,0149858456659581
0,022345151184959
0,0163710920394578
0,0204603788213183
0,0167033995717207
0,0195068039582274
0,0158297570012625
0,0204454716998233
0,0151310130957976
0,0209430883628542
0,0156370360265215
0,0202688401179966
0,016370750627063
0,0221684946975602
0,0158657589115117
0,0187495981316222
0,0173655545758788
0,0181747339799577
0,0169164846704574
0,0222945562242598
0,0187153567923738
0,0199792146157361
0,0164273693554098
0,0218031467836785
0,018927197015167
0,0227672114477271
0,0146760016937387
0,0193631191553782
0,015488718135313
0,0215192229597309
0,0181675803971667
0,0193324085107178
0,0188273971368897
0,0218909301356872
0,0174730951313471
0,0211587563388912
0,0178083118093976
0,0204586777925952
0,0172384426205714
0,0200980033155271
0,0179271465393845
0,0207882242262098
0,0157444693959197
0,0201755204017957
0,0146437612112371
0,0183432606214758
0,0152912636055384
0,0209967042628699
0,0165372458563603
0,0188973841051868
0,0152443491474242
0,0184329200876276
0,0174728003384812
0,0201480221096493
0,0157984134515203
0,0164649293869395
0,013541519436039
0,0186496427182046
0,0161894694848478
0,0190614327492723
0,0166770848993178
0,0185158730247469
0,017518582081849
0,021781769689601
0,0156002184026635
0,017791843335244
0,014651181658677
0,0175608523639001
0,0140613767774933
0,0211738770791783
0,0166712276989211
0,0195934688893179
0,0159102550617188
0,0203280277933538
0,0187087552269124
0,0179741665832426
0,0159194535815309
0,0176534599138473
0,0157605330883719
0,0204009099949512
0,0157951529363545
0,0203540898531518
0,0142663569955182
0,0193705276880829
0,0159632521182527
0,0224488209617485
0,0163851542182957
0,0197179209956617
0,0157626290688815
0,0204506184394332
0,0156562413917583
0,0193379508538635
0,0123828328405338
0,0206165359142411
0,0159082972401316
0,0184907983620587
0,016111597219843
0,0192052419749012
0,0163456481024678
0,0186393418121238
0,0169410696191778
0,019975746622352
0,0154454374240921
0,0188565540204775
0,0165563886579022
0,0181177986383333
0,0121309622232668
0,0192735033217186
0,0138717729313674
0,022684601830784
0,0143742692902168
0,0156757359156743
0,0136658722529247
0,0173711343128066
0,0158649471397028
0,0177219618377781
0,0174000024068768
0,0202572112898235
0,015119739405796
0,0172886639059494
0,0129392971737651
0,0190229478543179
0,0140680155861357
0,018929609615939
0,0129506638865057
0,0202083177840445
0,01308082649672
0,0178051825093564
0,0138425894315876
0,0166220522412632
0,0145111724535962
0,01894990230632
0,0136601173892831
0,0199796510626143
0,0149964541803341
0,0177594247020844
0,0126527237041633
0,0175846140606798
0,0130672510982952
0,018492376381605
0,0159121407861731
0,0181189156586796
0,0190318988686024
0,0172269606719877
0,0147715006379067
0,0172712313622967
0,0155170646958904
0,0183778391698831
0,0141500833534724
0,018085142175062
0,0166949107433599
0,0174892747806418
0,0131874800670031
0,0183151922155105
0,0159687802579559
0,0184722480249742
0,0147740341675521
0,0192192238305781
0,0137846554998153
0,01838696005854
0,0127397000266315
0,0171453051734977
0,0158721475721574
0,0161950697016105
0,010618794383709
0,0162355404106074
0,0135655455933782
0,0190839521689052
0,0156838564007488
0,0193706363898951
0,0123741936787593
0,0183572518246436
0,0115134239812514
0,0160433960523191
0,0099295282145705
0,0166983562579655
0,0117107113451591
0,016466270444869
0,0127390006616979
0,014373141054417
0,012643110594296
0,0157987446654503
0,0121322576972139
0,0159321963341687
0,0122507611217133
0,0170350246001323
0,0127617143430222
0,0157618867211497
0,0140848657405838
0,0141820115396967
0,0119688099051883
0,0154354833636894
0,0122339841372469
0,014892415918997
0,0094654579764969
0,023032877257278
0,0168143994417212
0,0143960174922978
0,0129433535446588
0,0202019133993868
0,0133181285465966
0,0161126836842667
0,0130707441493282
0,0151663814223557
0,0126394469109853
0,0154835955782905
0,0126262119920014
0,0131513755906621
0,0105016716281412
0,0167357539277886
0,0113915627229786
0,0163544740998039
0,0138035580337301
0,0149113287371329
0,0122359975043276
0,0140428798044405
0,0122359234794661
0,0156333836781857
0,0106971262773565
0,0171367607352341
0,0101156096503241
0,0218440226984675
0,0179838526282442
0,0187206279133242
0,0129356526203619
0,0161036991296027
0,0122499472178551
0,0143288172508396
0,0108374484975769
0,0154702758982108
0,011948799963094
0,0134794044787562
0,0100225291593433
0,0153472131246341
0,0126376120624925
0,0141019990658887
0,0126166090717201
0,0148416583168659
0,00892993216269938
0,0150913874777228
0,0105062528220444
0,0147907725005995
0,0120822023155743
0,0143522664033678
0,0121149352814895
0,0156045409450672
0,00985524765673492
0,0121083294766691
0,0287048493417164
0,0209587222183552
0,0111405690130165
0,01617986115082
0,0114605480223697
0,0151333403640331
0,00858593978751133
0,015371867361345
0,0125266887908508
0,0145365593651487
0,012906415631073
0,0127475998368659
0,0132572315048816
0,0143811671665055
0,0107614848520823
0,0154065392046917
0,0112642384260556
0,0157408674601015
0,0121858512615338
0,0122089990490806
0,0142133537297699
0,0235411159522047
0,0179583416057996
0,015019829550572
0,0154127117883505
0,0075966954274256
0,0171946048400243
0,0264369193641261
0,00939293335956243
0,0176169875137196
0,0109504433164845
0,0145987889894971
0,00829015366015676
0,013241916767088
0,00741376505780017
0,0216325542813524
0,0101818770365887
0,0196182680719438
0,0116344511912788
0,0152502436925876
0,0110792427363786
0,0148830992907949
0,0108228821526496
0,0141788588345553
0,0100085711334419
0,012974504471297
0,0105158469522325
0,0124794694283689
0,0105711290186782
0,0123090963958771
0,00652548091345337
0,0211903521870637
0,0114434877079662
0,0137199765947814
0,0119204366670068
0,0112313625316486
0,00549036489169216
0,0330061631483808
0,0104145965922266
0,0181509641175204
0,0109775596262239
0,0139901737141567
0,0107077944349073
0,016569516815998
0,00957247039246421
0,0156274019386189
0,010910256071249
0,0143156553052687
0,0120464155063722
0,0154816773525071
0,0106454638934993
0,0114004436367507
0,00903728245404871
0,013920895495942
0,0122940184411334
0,0140354838793224
0,0120150366814612
0,0107935386432619
0,00768517415775586
0,0375473841535512
0,0159337989560556
0,0273830507019076
0,0174438509342588
0,0178996735020489
0,0115421613875562
0,0170691554985072
0,00927223407845605
0,0170163896714762
0,0115044139246281
0,0170852546108991
0,0119753652917954
0,0157022642572663
0,00842895580524388
0,0167270921774039
0,00667016689097717
0,0180345435879453
0,00594624561118314
0,0153689844143288
0,00881922083989837
0,0157962353291992
0,00789221657162967
0,0191398797448049
0,0186084692806873
0,0183567610208592
0,00396410718827352
0,0173597429868768
0,0441431248969887
0,0139862659704831
0,0203192523047717
0,0117529790947466
0,0122763933023156
0,0137712581153778
0,0085796763934696
0,0160902091064076
0,0123098482939351
0,0121774800566427
0,0124134327911528
0,0168123696619409
0,011338951295662
0,00917079704205123
0,00101893001962355
0,0354283140516204
0,0226796274352932
0,0169930801378885
0,0151831364639919
0,00396553622544729
0,0289494221353445
0,0208343726035195
0,0129053511955181
0,0196696203375883
0,0112092655616092
0,0192916342667617
0,0105773995598352
0,013861379609732
0,0120531894303723
0,0205035660816826
0,0103516788567093
0,0180585304282167
0,00837098616032068
0,0167082669429428
0,0136618583299675
0,0222948660698719
0,0197290766832984
0,0139164847832872
0,0123702444937766
0,0218323315104362
0,0125393176586246
0,0159008930491961
0,0114050863114121
0,0123103934792877
0,0140274166973712
0,0314775580327294
0,0127469843602625
0,0240570318161546
0,0241412028992634
0,015231865715816
0,0121813926656655
0,0243726735567843
0,0185738367628652
0,0175430242117486
-0,00466583927674637
0,0484750875250171
0,0145447294862941
0,0384820746571443
0,0148928579578478
0,0189050051927624
0,0113605681591427
0,0183595569041515
0,00681848507617947
0,0187216748665877
0,0202764693754692
0,0139225511220507
0,0162115457001516
0,0146016629618909
0,0276173759485464
0,0176333882172942
0,0188715884102021
0,0140895508134916
0,0130327459356495
0,0152144662723695
0,0247631579300323
0,0012145164315116
0,0203433029576764
0,0493737992443412
0,0265864999764423
0,0327442007713727
0,00251464360925515
0,0473228903607192
0,0275739340547425
0,0140132220808924
0,0205452241400825
0,0140657493371901
0,0179723836304767
0,00315503888164578
0,0335564227978912
0,0360132323786175
0,0114739629549895
0,025588982148009
0,00727377176058192
0,0253250279905442
0,0330034918532387
0,0193392156002041
0,0197616505930353
0,0222706110272077
0,00996381917313421
0,0234137899340011
0,0520343874893689
0,012016933616609
0,0451903829036039
0,0294433878730642
0,0357033822363191
0,0267522062442292
0,027201150048782
0,0239584239962072
0,0407365096938259
0,025827821131977
0,0148273796308874
0,014159704288689
0,0529269152436844
0,0244235665375672
0,0292804110060463
0,0268261501435941
0,00880482707580627
0,0281591191993411
0,0754442600897516
0,0538486673957602
0,0339532446541231
0,0202216352508491
0,0395524215018857
0,034785153326441
0,0197274181694315
0,0274764028736137
0,0240406207346859
0,0277476461688309
0,0217490807562597
0,0342197221159536
0,0278941825944316
0,0247437045931018
0,0309231958072994
0,0156141273790357
0,0264277773269302
0,0513487540756178
0,0646010150268395
0,0400078318962466
0,0561611846404385
0,0653875665678432
0,0327067564508594
0,0357414803213446
0,0232985441028218
0,0468527837056332
0,0339003543921143
0,033943899883516
0,0286524316120792
0,0433404789856835
0,0582678642081546
0,0235041939503685
0,0598344450898781
0,0406133005699843
0,03803902712335
-0,00153884377169691
0,121176081758319
0,092039250838004
0,0418811757369924
0,0619604824172675
0,00341160945472905
0,133645371729512
0,0635417113920936
0,0539890940725284
0,0520984881741786
0,0527893713264393
0,0433166405751372
0,0660081633718813
0,0540165391389566
0,0712744006297599
0,059964846976123
0,0567900871273335
0,0297968213526082
0,131982435368745
0,105059252138633
0,100721529867836
0,0657606767045719
0,0855496348614598
0,0880571814767799
0,0802572165041733
0,0729666884890535
0,0891676118128486
0,0427853874925422
0,135125607594035
0,0911077011433458
0,0953861397541744
0,0876399823498682
0,117572102661663
0,0923797357426459
0,095853990341968
0,146861249483702
0,0998008960630256
0,112504083255265
0,0977191579904924
0,113603162364191
0,0908243359845733
0,123265974355093
0,136056200515719
0,109729550520939
0,121295788025833
0,110226450255016
0,122781763474267
0,118618815257967
0,12733198240392
0,114561157650786
0,137433443941925
0,131035758794458
0,16520710426707
0,184248094663091
0,122025227622063
0,141114608550159
0,112232191496497
0,145056577025077
0,149950289238016
0,124960523263954
0,171667141512821
0,119764039234804
0,134401341830189
0,124363788386441
0,130488956919536
0,119523173361558
0,130098913358057
0,119719849218568
0,132078578119752
0,144540141713218
0,0716585171236956
0,198223570011366
0,134681969637365
0,124802758204059
0,123598646220107
0,126109725915915
0,118490252323864
0,123499874584569
0,105804520023295
0,14015520083434
0,117775932378269
0,114792167902818
0,115179262104721
0,101939535249933
0,145898709233197
0,113256658600513
0,12098686291487
0,11196082647854
0,11337503871419
0,109480809580321
0,0808015611286361
0,158992996825733
0,121297598230785
0,106134220305668
0,110914443310082
0,10300816604097
0,104782610645749
0,101406737933667
0,102763580898195
0,107010385892412
0,0995259986670021
0,101933184047095
0,105310893033722
0,0958499235429234
0,0993700163511118
0,0943499371756626
0,104754320696308
0,0941806694994968
0,107098357040574
0,0915032616927278
0,100622389823165
0,092553038281793
0,097612341453794
0,0937624730460803
0,101708063576136
0,102097101994106
0,0984438368329256
0,0954315800574357
0,0988976850916961
0,0930525477126407
0,10123816540858
0,0894900016155032
0,0978122690086825
0,0918214884638422
0,0991306941022636
0,0894253793977804
0,0974530437396713
0,0899142658511435
0,1001093888366
0,0896207924775039
0,0967505275838612
0,0856615974432396
0,0955993296207499
0,0822540017260604
0,0858447626499873
0,133774046604745
0,088523198170109
0,0995599953668368
0,0859537040898019
0,0907108170948167
0,0768658161291882
0,0949860549375947
0,125748033679251
0,0850147416088686
0,0912130810241082
0,0795465452018308
0,0825699325665729
0,0970542184613465
0,0826720687093553
0,0823754216953697
0,0811377263783395
0,0250472406467982
0,179903874910473
0,0356422104023547
0,174850109410203
0,0988560063263888
0,0927788238443858
0,0535637124842957
0,12228695584904
0,0823468720078655
0,0785843292131421
0,079306477659906
0,0976719214408853
0,107347928800639
0,071321368600849
0,0821001066119828
0,073844306759003
0,0734469678092339
0,101943899151538
0,0867812139363579
0,0636936093930836
0,111836775199021
0,0832162984856234
0,0821080259423628
0,150281772198542
0,112412314926024
0,0811658879275816
0,0680274906227798
0,0818809891234035
0,0535137108762912
0,120338939100341
0,0880138698716284
0,0781465058866118
0,0786765207982371
0,0579732031984558
0,0747178643786062
0,0714139378765139
0,0875131389810243
0,0582244603885453
0,0959835613211182
0,0770944857734729
0,048432984666917
0,0973540807513754
0,0623615687165404
0,131039725507106
0,0777797433660303
0,0673422725690069
0,0566621267994331
0,118483324515512
0,0702614091693367
0,0765814928667898
0,0661476869115697
0,0511113267332896
0,0779395711995708
0,0688218051581368
0,055977066928977
0,0861174589106854
0,0581683033394711
0,0998801855899857
0,0893899741661544
0,110816677769544
0,0802823127804318
0,0576373695370747
0,0548398043588102
0,065008200014543
0,0563641310444981
0,0620833113774512
0,0415318921393149
0,09097560061462
0,0303167570548949
0,0988053125457576
0,0763503942023376
0,0592099055189053
0,0617846137097624
0,0640494530983985
0,0557346764811103
0,0812874876717132
0,0851867166082215
0,0991052696778799
0,0543292560184237
0,0959480365239966
0,0651093351928388
0,0760467282106042
0,0643111491639859
0,0752412243259777
0,0653183025471315
0,0789868731682869
0,0755284356573456
0,0804696249750339
0,0723825092401057
0,0894055944303432
0,0645468702914278
0,122066064390465
0,0824130876520218
0,0883552939893633
0,117059845556581
0,115248953410076
0,123571458417709
0,0896775932918194
0,104365440475045
0,103616568556243
0,095477563542092
0,10287324583269
0,0874239408356302
0,138736569766118
0,111240515693213
0,108229562551402
0,110350886627948
0,110635340531234
0,113643824629402
0,114514489780072
0,149372372530141
0,0956187139139059
0,190731036457613
0,127922222890096
0,13433338951078
0,119230953549597
0,121346459811826
0,131600508356394
0,115758030559601
0,125020855186966
0,109027049435492
0,138921996175953
0,135830625491752
0,119441993100887
0,130092209316729
0,124061956103746
0,127505894833661
0,127459815851558
0,126989872285897
0,135311777411543
0,122811236403601
0,134510593131833
0,108660643138625
0,154852380422979
0,169873487871191
0,126456135172086
0,146134241561725
0,132522970919517
0,146170538005079
0,131648053050508
0,14226396948564
0,155346800142768
0,139553578565773
0,151328822225488
0,141020267762034
0,145256739778712
0,148264669239213
0,166804311772506
0,161699365582841
0,141642162021507
0,16063470330201
0,100369430222921
0,212395392824337
0,157520562277326
0,170479349997522
0,159489774220085
0,156104144304418
0,153702226754573
0,150110982897773
0,156324019224812
0,157614038356906
0,160207701605491
0,155570657949649
0,158471781569367
0,151120632586752
0,157569108034923
0,150155604870813
0,165012787953334
0,166702593731692
0,149770048800403
0,15458589062731
0,14942708846618
0,151546800459787
0,153851291750542
0,177363978157688
0,151281397719459
0,161420247984176
0,15313856555022
0,158862869187412
0,165108081045518
0,155196989257344
0,14847749380374
0,158132449215646
0,142175256999023
0,159823983123208
0,141957542335163
0,17382617301559
0,163515393880686
0,156664177803577
0,15651172586778
0,153234544367365
0,154764774291801
0,159049422585738
0,155377422155091
0,157547241042231
0,15989789894346
0,162187258698263
0,164914935836601
0,156569891473963
0,170906956713756
0,164720775878767
0,170759198692378
0,167481520835455
0,156265672218041
0,163569282954515
0,150457859148575
0,165631652174686
0,156425446324367
0,156367416457262
0,14928615150709
0,157718379943439
0,142149977762715
0,164606158807295
0,16489546981085
0,13914501482778
0,160745664380202
0,138168756594996
0,15399939633399
0,137505016321561
0,146497906560434
0,135512172319878
0,142121781370488
0,136338567795801
0,139887741811463
0,136705746783924
0,13720525290786
0,136980180547327
0,138772273893814
0,135936484576353
0,134910371497303
0,132813372018651
0,132696022587497
0,133676106089844
0,135263023176946
0,133809770303333
0,138636142140067
0,135255285747676
0,150519101892423
0,141755504838488
0,145426529137752
0,126907673224318
0,14290682868816
0,127568258004897
0,13649381848827
0,132057364892151
0,133148997733708
0,128887626873091
0,13314634394333
0,131765620116613
0,133043937597325
0,13151926212863
0,132628965118854
0,131644009910379
0,128909071474164
0,131560546769398
0,129848670701123
0,131103264733428
0,130628332145988
0,133948604635075
0,133087999293951
0,139121126856918
0,129396919255279
0,133983133771321
0,13115499473484
0,131413891795358
0,131746846623122
0,133894731481422
0,134434424626868
0,127352931918346
0,13033395796045
0,129237719907982
0,131822770863913
0,128327485296842
0,126647435100294
0,127016809032252
0,127179516632794
0,126018659094241
0,126538012262753
0,124905981936053
0,123328949759338
0,125639070273911
0,12151872471368
0,120256988902856
0,120731850163461
0,117722023237936
0,114850804961268
0,117014610822283
0,117156949423465
0,112933091984779
0,115712482505265
0,111561494998713
0,112160793500344
0,112482099607962
0,111636448996667
0,109996818008244
0,110079344942062
0,111187194633414
0,111576283494971
0,110276313600814
0,108957000384016
0,109590612766679
0,109460205271649
0,110245964302524
0,111793108484807
0,107163527368611
0,108332367237601
0,109586290574741
0,110160911683315
0,112965513824665
0,109958358315285
0,113116878362299
0,114380491809251
0,113434243825445
0,114947520897106
0,114903117174111
0,116882011155073
0,114563930861825
0,115405716526776
0,114689324414079
0,117317531926165
0,11600028982983
0,118452860882406
0,115411648690863
0,122050193856674
0,11865580753622
0,118440686592782
0,118148271650388
0,118143559375731
0,118818195180626
0,118802189338281
0,11751591411394
0,11865989747611
0,11647381582594
0,115060504065255
0,11566197482465
0,116629961385833
0,115762621413767
0,11423423344972
0,112759757970995
0,114234486148397
0,115465422067718
0,114322079954926
0,112543471624895
0,114255490421367
0,112434779343788
0,112317588835044
0,111331660321525
0,113264164767552
0,110972935068682
0,110053401700585
0,109166946590602
0,110148494164407
0,108282599705907
0,10774478933914
0,107246528531152
0,109165296650769
0,108446573840384
0,107762414303517
0,105690308719235
0,105576501872505
0,105511601235977
0,104971725028229
0,102905233477526
0,10669112682013
0,104916025039059
0,10519432188994
0,104653289167214
0,102914857008049
0,10105048264448
0,101621576515885
0,100119384626029
0,0980693948248396
0,0993600795815346
0,0987068143412086
0,098251890813423
0,0974143349294984
0,096489469251014
0,0958144107098145
0,0951817996989051
0,093601601994384
0,0946617879941649
0,0955223355869507
0,0927651783711712
0,0953200341193884
0,0936237902095234
0,094035529829255
0,0952626990442028
0,0939007480524494
0,0923305048961602
0,0930494481391466
0,0906921338121277
0,0907931394518771
0,0901811921288943
0,088686489999394
0,0882869559866881
0,0883430453449165
0,0861026844042377
0,0865366051751872
0,0855392145619191
0,0833432897489064
0,0828673238126455
0,0832524087770164
0,0834233796242221
0,084145251777664
0,0828711992094557
0,0866303800761356
0,0884768373815474
0,0913266055869748
0,0923456278038668
0,0960526936044684
0,100073302897664
0,103064938331316
0,10720889464208
0,110218706156303
0,116673210326198
0,122486037167823
0,127167958136296
0,131236099845151
0,13867943648396
0,14464801057497
0,148874828283952
0,155317085617314
0,160882492120483
0,166239345716917
0,169235904535323
0,174682495264204
0,182301558370953
0,18711957462114
0,190110541764663
0,197218095555476
0,201798313422689
0,202919870746979
0,208609724300551
0,212614038493333
0,215451669882577
0,2192817695287
0,221154194520145
0,224824194478378
0,22761362271677
0,228865591182191
0,229053541812115
0,230409710085923
0,231340815396169
0,231279494676448
0,231596000378498
0,234406338693904
0,23284700385566
0,23071754951332
0,229123276698658
0,230331261758948
0,230357327915235
0,228679831265137
0,232024049984679
0,232269488636496
0,230415042986027
0,232171250774825
0,232205564006934
0,235161379589007
0,238490609104605
0,236854591129597
0,242430029724058
0,245114653914626
0,242903257762337
0,247813824641429
0,250888977138647
0,252363885243849
0,257307852632432
0,261310277877775
0,264484371038527
0,266863372153046
0,272536842489263
0,277171956817253
0,280258280110861
0,282148709024428
0,283030099854084
0,287608426008977
0,291047559422767
0,29248816120396
0,291376265223519
0,292389943891414
0,291076215397188
0,291591430192425
0,289901574199031
0,289455884899396
0,287162684160092
0,287573758903237
0,288652561109823
0,286445821391895
0,287872361447893
0,29278927374893
0,294375462500228
0,299094766036167
0,306516906217835
0,308607554191626
0,310726725785203
0,317828613695831
0,323108087610745
0,326320631183296
0,330992552029706
0,335760101981006
0,341734875789604
0,348358435733024
0,35064650315829
0,357354399578042
0,361628640326298
0,368589769036014
0,374057411927428
0,382164270899836
0,388392734132965
0,396184812043471
0,401656627784138
0,408678458631471
0,420088231679436
0,429878484117273
0,438123198832043
0,443985706349319
0,446289906482904
0,457478678556862
0,466405905049407
0,470133383308552
0,475057656168092
0,477439253864405
0,48164182927441
0,488129651098451
0,488536216148747
0,492744070926966
0,495431128240949
0,490931090494887
0,490739323332489
0,489118722475345
0,485239246003346
0,484880300696879
0,484314899911617
0,482273550074288
0,476937929157433
0,473747112242874
0,473907535017127
0,471916565567932
0,47395723889213
0,475074215240097
0,474290389998915
0,473705963589883
0,474166162034698
0,479802259376797
0,481860105686672
0,487001864548741
0,489960382893665
0,495949515442416
0,500842426306687
0,50476642318373
0,508373564627957
0,513216368069627
0,522051047924252
0,52568802129485
0,527268324837364
0,532815243507395
0,53421676860475
0,531708728904155
0,541154256026659
0,548658537279026
0,544075107244974
0,547717396838523
0,550346726903697
0,552258486778466
0,550058079222078
0,547521893999544
0,548265778847088
0,552254971910741
0,551091070741674
0,552643036992822
0,549266131299188
0,553809103323073
0,555871133024879
0,546757137480633
0,543015228463363
0,543136369424197
0,540426478224848
0,536972224092315
0,535061635618037
0,533990343100206
0,523443334805808
0,524979272200436
0,51713534825341
0,502584840601591
0,493126528513202
0,487693189240391
0,470656738542258
0,458398049670643
0,445522314453591
0,422869135870628
0,412072266612767
0,397977380328093
0,380889158952744
0,367214298530803
0,351323296484871
0,340264039944623
0,324738763400901
0,317355334689436
0,311406594195917
0,304776541117692
0,300513688363008
0,296974118753252
0,292349895948752
0,28674301179154
0,283738993113744
0,278391576074197
0,280323656029856
0,275500158950963
0,267691200411984
0,263059197742943
0,259347243226802
0,252893124253279
0,248043232375916
0,242916307349115
0,238083409109848
0,230214627358642
0,225883987900273
0,219259560612053
0,206877462061521
0,19952932500034
0,193726498119867
0,184810624900312
0,177315633316783
0,167108116544739
0,161706584373138
0,153202470466985
0,146961904658378
0,137458932211872
0,129947741692097
0,120267255229274
0,118040291246933
0,111571375165177
0,103733688241816
0,100892507102296
0,0985575235914024
0,0924846555106713
0,0888122626473472
0,0852006250601896
0,0832397071336548
0,0788780586119808
0,0761903821127664
0,0771882231869876
0,0726593637455309
0,0728415476128015
0,0735820160657679
0,072676480965428
0,0714356021661392
0,0688528826658567
0,0706042394511196
0,0733029173291558
0,0735798627504095
0,0697056158039743
0,0700531959745522
0,0719066569705875
0,0742079634399991
0,0729724603927043
0,07209738572044
0,0717206966969174
0,0768254031114001
0,0738536257422757
0,0722026716184359
0,0751911674005916
0,0750554468300437
0,0750829440484836
0,0768452449333819
0,074942216934947
0,0749922615846325
0,0716012691960115
0,072542541665162
0,0751865932495973
0,0714322461948578
0,0679569778517942
0,0753516203732869
0,0723978267729208
0,0723300233020829
0,0750844269202264
0,0774734102809309
0,0748440372270162
0,0756389188357449
0,0766074693811791
0,0746497864598833
0,0737068213110191
0,0787385141581129
0,0801228939330858
0,0779084812546638
0,0787880615679341
0,0820117173318285
0,0792119280934497
0,0817334990115487
0,0808115419980787
0,082566983919122
0,0844255403936309
0,0841331547331899
0,079822974995622
0,0845794511725137
0,0848586977007198
0,0825936863841062
0,0826044644152634
0,0864326757121887
0,0858290354979093
0,0839428948879803
0,0829004467742357
0,0868522454857667
0,0871391799240676
0,0892742642262324
0,0888606856457467
0,0966985533249711
0,0961465076236904
0,0976789494411011
0,101220702457044
0,106212783992567
0,108188077994225
0,109415333015468
0,115302231157672
0,115706002933571
0,115808248671071
0,118032142841509
0,114853895757495
0,117116954324921
0,111722782444351
0,106663335160006
0,110432965511886
0,111619938120174
0,102100148855644
0,106551831379794
0,101749853423636
0,101126123015664
0,0972170999719857
0,100531190246605
0,0985465546656937
0,0973321446539816
0,100070765396368
0,0958956136788795
0,0980353827055508
0,0996466188418692
0,0986501492419718
0,101696043796649
0,0985660184876554
0,0942442867232811
0,0948697427709976
0,0951152560498483
0,0940981321087704
0,0928378495767437
0,0889581674266881
0,0973374443890978
0,09571854709671
0,0930440443692772
0,089719232887763
0,0896866850487288
0,0862657730677344
0,0917209772145271
0,0933957817475347
0,0891120445552478
0,0924884967633306
0,0891555347994555
0,0887022251291558
0,0895472250996168
0,0832053074194029
0,0870483797204643
0,0902387204271307
0,0858393897434748
0,0817127188429564
0,0816559727638827
0,0804887128386858
0,0821505093593718
0,0791530148322299
0,0805987414302609
0,0766670891026096
0,0897736884985303
0,0779419066988908
0,0757129629722716
0,0778357071870534
0,074338200532497
0,0842787351944635
0,0748678259977553
0,0734216845402601
0,0795231401018795
0,0731118887181527
0,0765983014913518
0,0779879170486847
0,0715360208192979
0,0702925218659425
0,0730396469865502
0,0756006702316604
0,0798611837436129
0,0785458868957285
0,0721070768333671
0,072360393958981
0,0757623127885628
0,0825029963135514
0,0812876032785287
0,0757383651637367
0,0791140645167893
0,0793734659995128
0,0768233869460338
0,0737871548238567
0,0791610443333242
0,0812739428930242
0,0822773506434218
0,0749367420199353
0,080462632843402
0,0765841841717976
0,0877047940365441
0,0903344145294513
0,0813778977130051
0,0858396822284802
0,0969960228667157
0,0880853486105497
0,0892064873684723
0,0784809490865552
0,0956082809353532
0,094491382555136
0,0955115319733468
0,093357502680686
0,0977435227171699
0,0979552851732233
0,0994181754297691
0,103786122091637
0,093499427816894
0,112477919134122
0,118288453631137
0,106300714380857
0,123485167661651
0,129606460542597
0,126810040935866
0,128030153097446
0,129981512753877
0,132633654192002
0,141090448856269
0,132309305029578
0,143754712336871
0,155320753904031
0,149934348601866
0,148051770912474
0,140124954245197
0,157145524626202
0,147020845291702
0,148617656583163
0,145292986022871
0,140808443780147
0,138336621053294
0,134577556827843
0,131414521556302
0,153892754032333
0,142119928325102
0,136526171918749
0,14116635235131
0,126549567510668
0,148271909884725
0,152357010904431
0,147287114346136
0,128073512998771
0,130507922228102
0,129673106482723
0,130667268210428
0,118752081487115
0,147636807957592
0,138217697699683
0,126817343519254
0,14403973256137
0,144486089875496
0,134151131641325
0,123563760560243
0,127435074093426
0,130655076028607
0,128809795697685
0,129529120584607
0,12185217899786
0,119499098848534
0,116249598042055
0,122841188960896
0,131823098990199
0,121211652039063
0,13487630253101
0,117911458252566
0,116319791273764
0,132198681046738
0,133976710500111
0,132521172763325
0,131325179555944
0,112167463069776
0,126147828534366
0,136943948547604
0,136295773493619
0,13847002053965
0,14411144862949
0,11792256316522
0,128229418358568
0,137168391814756
0,13147093500728
0,13229125350568
0,126054833017246
0,122377953555894
0,131577087953105
0,142070007485112
0,1416438947313
0,127568993135758
0,132016740703884
0,130596967398834
0,12944010590389
0,14405270977135
0,135835621386162
0,168726185509564
0,143745789229404
0,143918503174331
0,15773464618806
0,129648919900914
0,162665869368848
0,170682557203966
0,149917829394221
0,174536440182844
0,170065078236652
0,166965239213286
0,172066565959512
0,184357176423419
0,206152616143197
0,185027192063624
0,177327974498171
0,182958604751771
0,164594638374418
0,153003711089839
0,125412941607508
0,197340927863558
0,205901568395467
0,199831111676542
0,152844272166175
0,190571013579821
0,188245856048137
0,195263847166974
0,152444777274012
0,17541082613172
0,16940208978369
0,157010391654967
0,172865433783662
0,172880705381154
0,167201479218086
0,210253613983816
0,160749737198751
0,151272000023372
0,187030845326161
0,166117192875217
0,209975954518522
0,204382903806452
0,180285588889698
0,145077562347769
0,184261333623768
0,146148014346178
0,206959537026581
0,12815992459842
0,20984732764169
0,234976440434188
0,145724828366309
0,108133105545237
0,156785068739199
0,186585323213433
0,140917409384748
0,0989950524016584
0,119196151832895
0,0523592876236337
0,219476023709581
0,173079512760656
0,152695930511103
0,12742088991039
0,141126565439194
0,173719046052311
0,16585550734045
0,176816865972697
0,146864359643271
0,198250032221104
0,165426051279421
0,209429113760387
0,107386630662261
0,155275080970865
0,226549098286403
0,271655019176666
0,293230309129132
0,0936484022298897
0,196101441662069
