3596
4000,36533379555
650,420452594757
1
2
2
0,0510609365392229
0,048098452913323
0,0477175836869436
0,0470165219477369
0,0476385548904093
0,0574664834106986
0,0499627206715541
0,0527606461069471
0,0423524518215525
0,051052246752809
0,0525365433761749
0,0508122897615083
0,0457161380324244
0,046967083278355
0,0526387128489213
0,042975352638513
0,0450164988269622
0,0519751728915179
0,0521038076306078
0,0461193777148829
0,0452388414249684
0,0491156487683163
0,0513142039054428
0,0473028676812143
0,0541137943723364
0,0456528391069459
0,042505811459592
0,044263818418298
0,0535655122307618
0,0498069835485385
0,0479294094826283
0,0423702003072442
0,048934952860442
0,0510829647211135
0,0431120975333993
0,0548699270998112
0,0444054209411147
0,0455940792346411
0,0441059315672879
0,0462774222937596
0,0554976285297988
0,046608967052322
0,0471931786924408
0,0465836397948604
0,0489864023925773
0,0595331092723186
0,0473549769413572
0,0421500340318161
0,0479262884760038
0,0500180767816328
0,0549490877639203
0,0438836414970089
0,0492369309691053
0,0611558454411541
0,0515963825360367
0,0698295875856331
0,0571991196740322
0,0439312024250937
0,046511313858335
0,0499015226737923
0,0607784080980996
0,0561783703239848
0,0567761580467056
0,0503804229506973
0,044911248265263
0,0481521653054827
0,0487952917477713
0,0408923804883746
0,046247339688887
0,0543884602455263
0,0369074756103005
0,0589214463802431
0,0613212164169902
0,0557579481637729
0,052291629148087
0,0569575091875614
0,0506933149543537
0,0472447258426347
0,0385992962157892
0,0590598378357149
0,0652165287940966
0,056687870501639
0,047426894499397
0,0373786275077621
0,0450776917674661
0,069852302723086
0,0395930153404081
0,0468294137525771
0,075851411115862
0,0637543852792479
0,0515813484812706
0,0408532644007058
0,0438123854504725
0,0450534306055769
0,047286387402173
0,0401490434507812
0,0380292992709465
0,0456561522153977
0,0390136463008223
0,0457232887999286
0,0394544859267321
0,0660573090473697
0,0792929225169244
0,0410293660001848
0,0846852908249379
0,0590088574631252
0,0352639462367876
0,0770667941241414
0,0755721511684808
0,0554982667685757
0,0503915768258862
0,0450829134929026
0,0470433126071496
0,0445214501313508
0,0256371571708681
0,0598600877404375
0,0864541097030548
0,0603780527370389
0,0520515206857875
0,0494744682495552
0,0142225833284945
0,0662491284693736
0,0943594726079246
0,0585043038274943
0,0582444932333641
0,049642498534042
0,0281075539043819
0,0669641070916197
0,0865679343055337
0,0535050092116785
0,0431831029333434
0,0467087163057267
0,032508690612924
0,0332259721577844
0,0789973459227242
0,0641045686738466
0,047105758228225
0,0301469053829453
0,0526608089713843
0,103015284587529
0,0650891818474651
0,056474459863666
0,0380566135197057
0,0380307640080145
0,0986874623512757
0,0713095050417005
0,0369045978841708
0,068875767497761
0,0636628251183955
0,0428357536228407
0,0357570970726408
0,0372740908496866
0,0596689420914747
0,0509225693953739
-0,00467436942384052
0,057590733915027
0,0928286646310178
0,0714058199530117
0,102981662752111
0,0655528642433494
0,0474569463063587
0,0488225478986517
0,0546935924965171
0,0408831243565404
0,0452925832079973
0,0296943326417407
0,0564057844045816
0,0803104121236075
0,0445881809367691
0,0432880036749947
0,0831169928776435
0,0582153989023121
0,019582638467048
0,10960854863106
0,0670989674294558
0,0325257124097165
0,074260331861117
0,0699186890339036
0,0318988002327689
0,0421544160167708
0,0787820154069406
0,0501529020724734
0,0451501027620052
0,0381554630525835
0,0360623153897142
0,0638887439744657
0,0484033606172356
0,0490288325948169
0,0453365399392862
0,0246875066616215
0,0444166773055001
0,105437805932356
0,090151549199194
0,0642625021384768
0,0411118018789755
0,00748970834646174
0,0696222465349393
0,0887792720084741
0,0573849932302918
0,0453498576042504
0,0384263533490782
0,0414070571566675
0,036819035993845
0,0446596110546066
0,0265100933636419
0,0126858169944469
0,0838860358272855
0,0759125978587678
0,052959763412077
0,0402578287895339
0,0322334039322569
0,0178560975632233
0,0963322563528742
0,0806654037452243
0,0521546565868178
0,0412754128902985
0,0358407051251993
0,0553441080103408
0,0679470920320415
0,0540585008586358
0,0469283416288397
0,0438528319211044
0,0411591997575773
0,0410779225596383
0,0436701744729769
0,045342690651948
0,0422273642141586
0,0394555725636605
0,0411317387382374
0,0394926952854642
0,0579505828502791
0,0524358984862867
0,0450849232016977
0,0451579830525472
0,0270607915901322
0,0600014413188045
0,0711949976758814
0,0536020407385653
0,0477159678449928
0,0463192654088685
0,0420585163712768
0,0438434454255671
0,0432898291624918
0,0498775534727674
0,0330817464827093
0,0323060374979776
0,0768800915248977
0,0620930517112347
0,0475730744982075
0,0317837757302346
0,0526616025730522
0,0630643660205662
0,0449810412193711
0,0443591548380364
0,0463317633865461
0,030373205087106
0,0347991793062167
0,0761642531150739
0,0615508559704973
0,0304222322947905
0,0580521480379788
0,0598132266975885
0,0412253391679043
0,0259417862700954
0,0222921233361884
0,115676914123108
0,0569560342956662
0,0280626214317343
0,111580989001391
0,071559127388141
0,056556975164408
0,0307026082581534
-0,0281785334780214
0,136867146813677
0,137912402753422
0,0581978980120979
0,0450867157755926
0,0665794855897009
0,0404350326704314
0,0440788362116175
0,0497388270152747
0,0422042992920968
0,0745898161730097
0,0886339090879623
0,11617979764342
0,0342995627842762
0,0672155836946557
0,0782836194168661
0,0569418287074271
0,0480865784786129
0,0423390559576231
0,0273223418436008
0,0542275825250784
0,0623426208156308
0,0725456870532127
0,0526916532661634
0,0408359557008356
0,0675048959303291
0,06709132522521
0,0392007867595259
0,0491767112901952
0,0673637628677586
0,0506725373850265
0,0437265892212752
0,0393428993698569
0,0574906826869242
0,0265910679287701
0,0190965702055607
0,102728746008979
0,0638276109643841
0,0443334738271508
0,0838200048669087
0,0607388257691323
0,0455161250380019
0,0453812774470154
0,0436564422002128
0,0447981992394074
0,038569440633353
0,0257975116825476
0,0684829028405991
0,0569773055659169
0,0424205802543182
0,0471593226554028
0,0402782020637709
0,0427881385001759
0,0495363130292881
0,0432755262554692
0,046972405604542
0,0435991535065646
0,0235858826039185
0,0584674909185962
0,0834334496177464
0,0263923378952132
0,0664474416990289
0,0891970018303664
0,0636396245594462
0,0446150505449272
0,0449404034454139
0,0500441597337564
0,0457398888610622
0,0537959190023975
0,0375431364979841
0,0425105971858623
0,0732292730509084
0,0514261701040382
0,0343723139867127
0,0319323597524561
0,0847358558476459
0,118867538672394
0,0819760871192637
0,0558126173092914
0,0174089100345499
0,065336286271862
0,0822559021668027
0,0652866408422792
0,0942750501676962
0,0576335242558192
0,0550278070363645
0,0493724413172123
0,0590176802862675
0,0473749953232764
0,0554383581348127
0,0489766466013976
0,0540598313625513
0,0513295194946078
0,0636979274788117
0,0401524900967579
0,0399648642075069
0,0981888469418534
0,0717059136814845
0,0601371300276142
0,0608618053698501
0,0315701629169402
0,0656516331327527
0,0777154927543077
0,10703052629475
0,0923313342215492
0,0832281985865971
0,119425748250823
0,0767431867287942
0,0692808492913417
0,0603463097726564
0,0681251384718549
0,0716251275866375
0,0674309933658044
0,0645461294682048
0,055224897233217
0,0682037557549229
0,0733277543340812
0,0669999676075755
0,0614551139989629
0,0547055911505421
0,0912185463183794
0,0796812304112883
0,0761798309430437
0,0513414820260749
0,0587510778807643
0,120078945501722
0,140572613780283
0,0898680880370023
0,0910078228479759
0,0817972986519472
0,0675554839538012
0,0798840260919106
0,0785493968730857
0,0836611710383895
0,0686718082987634
0,112443486727049
0,108490382074033
0,105937886308872
0,112025369644476
0,0851294950801126
0,110690491793126
0,0865728245186651
0,095708097669278
0,129393519600544
0,105299229460652
0,0682236023079415
0,124143580876145
0,114630631530368
0,103043060463422
0,128334362785005
0,101750065915791
0,111123469339768
0,0952434155638196
0,100426696697473
0,100498527943855
0,123249314765663
0,113566145081395
0,110458592369922
0,115088132373574
0,116170653029388
0,11128633786423
0,132780482566571
0,12381663624687
0,118942336561841
0,138883904508932
0,119919117422823
0,124462172722466
0,0973470845029331
0,136061642213768
0,142197634974037
0,144924747270352
0,156449588418897
0,135756995152034
0,122592663523742
0,132619171086225
0,124854328159192
0,129280835967436
0,123675947211063
0,136227563622213
0,136002407201665
0,14155136454306
0,141713624238914
0,144413109921683
0,150341457796272
0,147321140084546
0,150087709892971
0,158263710878977
0,153427610764452
0,164689844556133
0,143154987372009
0,170653318657862
0,182983952398563
0,189381967592013
0,181631982221853
0,166405627343638
0,18239819174124
0,16730441757423
0,158108293517192
0,167112107860503
0,183972751424848
0,182695146566784
0,175415249270638
0,188640420462889
0,193188008754689
0,178215784480187
0,195202535253701
0,196739163886497
0,198188977851601
0,203693398703813
0,20400845750508
0,181674689123098
0,198824883601509
0,201744146798833
0,207654503012862
0,199727423518529
0,228497264212043
0,2126895180503
0,21783841269386
0,211891892577709
0,203132674944178
0,218727714678877
0,215982439989024
0,225102082849151
0,231253365702484
0,230748867405178
0,225988857969302
0,228216189657618
0,222087565775243
0,228861942402095
0,226145464477825
0,242171667604185
0,234517883089278
0,253587781215293
0,245964734297302
0,271590856277781
0,250202149684453
0,262239562913939
0,250343482113674
0,255800112902156
0,261492309917617
0,26455710238931
0,261207450526278
0,269484260486283
0,262841725978026
0,26046690985615
0,275438430515103
0,27803653762798
0,277885562420174
0,273756435832923
0,268423931373281
0,270235990807277
0,286962819269042
0,30023534364293
0,284087181106375
0,315453074109878
0,287355529554113
0,295216392602407
0,285706518780588
0,29266622907971
0,287430317587421
0,299470365777552
0,300450963898833
0,304505257548104
0,30039646006443
0,300393962579823
0,299553922128434
0,331532263902871
0,313228553243168
0,336220687806801
0,320697743951691
0,33390622601944
0,318846946007118
0,328181876320978
0,337788257808288
0,337765105067505
0,328486357642423
0,344238055863964
0,346954532765725
0,355788799368744
0,336977453461655
0,352720443990597
0,34740362565008
0,353231697684287
0,351558813902061
0,36262605912448
0,35863845993265
0,351107670282778
0,354911378507003
0,352720604172025
0,360826962588065
0,373039805590962
0,376810061606259
0,369463257520384
0,379403075376995
0,376849870609123
0,357954792001897
0,384507667855293
0,357801855288912
0,364764610525928
0,377203771158215
0,376143920469231
0,372663097549047
0,388213147062711
0,399606541863153
0,410941152348097
0,407159942910335
0,400271495511297
0,404916816078706
0,41822134116723
0,42242714262489
0,417751009852912
0,402556215951765
0,42218275312836
0,423041640253027
0,432073882709379
0,409817096929943
0,428420880078872
0,428096542208608
0,437342400124653
0,408888615746261
0,426344147127892
0,440386357791641
0,439217238977954
0,432647977114936
0,438296608325595
0,434413487090858
0,433677886378058
0,448914982366575
0,453787127612581
0,432622196965598
0,454988870159676
0,428178553785434
0,453924482602752
0,447035704045748
0,456130084090592
0,456288997591702
0,460318828589868
0,454029709297849
0,465300011430072
0,451823543502283
0,468883929553522
0,466615294283675
0,481069114133331
0,463953680971826
0,455282429151353
0,465933963022299
0,474863645897902
0,46112893728844
0,482370291498761
0,486756145193846
0,480821678894666
0,473009448469709
0,485995980353425
0,480787646237066
0,489153966892709
0,485436520247527
0,483760016925733
0,482292578779593
0,51222877455543
0,490740853888285
0,488259629120856
0,463768181503169
0,502937532077246
0,488824969263548
0,501235972326147
0,509223785188409
0,489227816512232
0,499541905993789
0,48073400241005
0,465260120582593
0,486256372393218
0,488709747732273
0,507921027873137
0,504341913248808
0,525176222629364
0,501374614305887
0,519041324026057
0,501300259259958
0,520298017534586
0,504555513592939
0,524505513065532
0,499561507159672
0,547782348183253
0,518328530084456
0,516436153350415
0,514070718300048
0,51934604962377
0,514870053653012
0,561704722536867
0,511843749138672
0,525122258977698
0,521056366973267
0,539533301942945
0,525903813894888
0,518361305767485
0,512230690687423
0,527472782457038
0,528201473681797
0,54688787028717
0,544544243466344
0,547363953920906
0,519664194511751
0,540033912343264
0,509055260572772
0,552548406806809
0,512475830419461
0,545130238178605
0,539053812848013
0,546624195545825
0,527354771407907
0,552977564670082
0,531230184045951
0,542840240592327
0,531514413644608
0,542816250522622
0,529332414815785
0,557586318172333
0,544063315480854
0,53725611429211
0,533478288880238
0,541183910477399
0,526379175297933
0,555546190773758
0,521935314891459
0,541496272311557
0,542294212606555
0,548222953089841
0,535947471712407
0,548416412336518
0,526753416418812
0,549513077079773
0,535179815480419
0,546706923657855
0,547917098146193
0,554309729564463
0,532509421125209
0,519880305684256
0,554085329720567
0,542805043880763
0,532127990374651
0,548590553974353
0,536319544667022
0,554466075433093
0,538428683311853
0,539679208349706
0,541792574833149
0,554835011562303
0,531340005798412
0,545567418417044
0,525727950340476
0,539824685734334
0,538128341777647
0,528440373950577
0,527632807418827
0,547570947262377
0,537516980661626
0,558224310345855
0,531016755637377
0,5536800671792
0,540971865030924
0,542227833566656
0,531276195050965
0,541916360731309
0,529645229514415
0,542676662374424
0,518573818220509
0,542402823041281
0,52733401181506
0,535127501617087
0,514993126523621
0,534728947784412
0,506806523168542
0,523190713607349
0,516862117923599
0,545821587271203
0,532797022271611
0,541988548939627
0,535759232803925
0,524387096661622
0,517155928288459
0,526152649509972
0,518647621083953
0,522160785598158
0,514486581187377
0,530220786920141
0,517080628940218
0,52417806478018
0,506091733800011
0,528925777076605
0,514603793648813
0,512085018179745
0,516972708344747
0,520115004371306
0,509554563001306
0,523457152522274
0,501685199010324
0,514936323840796
0,507696496954643
0,512782066098312
0,49748613820573
0,521571260444464
0,510684352153144
0,502413951339321
0,510142645236958
0,516870185854672
0,497539270284504
0,502289773827491
0,495146131710713
0,507544183297616
0,485190137938411
0,499835574399006
0,496155405480697
0,499608009583671
0,498669942983026
0,492055020334203
0,486822314960113
0,503609192458807
0,487245475409381
0,495769965449028
0,493162648263548
0,495752348477886
0,478180131365008
0,477134219765047
0,488043965585357
0,480615233762158
0,477697738936684
0,476975356226006
0,473227060661574
0,477755228305512
0,460077132709028
0,474924127083265
0,465382278191598
0,479596694306742
0,467432562794433
0,467424713469557
0,475662439466245
0,468269384895023
0,469007646273233
0,46432385903202
0,4609461503799
0,459987224822315
0,458193501863117
0,453986424469773
0,460303867530621
0,456452198798609
0,444881256523334
0,452990924775237
0,459488677619007
0,438656613385133
0,439514382725135
0,450164496512951
0,435502833926156
0,442205419123055
0,444100938042396
0,449979455311196
0,450619397224962
0,423904018040744
0,427141691273679
0,438768752225735
0,431149159418962
0,436215936827242
0,426777946471546
0,425034911742017
0,418585075466871
0,422126307031282
0,420270702431733
0,42714838724
0,416984397767631
0,419830281759778
0,410332565654455
0,422149374984936
0,409167003946179
0,424773443920099
0,410717968307796
0,415561239879044
0,401634490608531
0,406080189521078
0,406085300222515
0,405204933880769
0,396425857758369
0,398217483432113
0,396193069702358
0,389720720351233
0,387957440694285
0,385546494637874
0,3853582399351
0,385123158152118
0,38375896413816
0,381400032499358
0,382726047263865
0,389951358227321
0,379312082895197
0,378449621412865
0,370384912683959
0,3624954519079
0,36878702774869
0,365068751347124
0,370044879166498
0,369491506104533
0,359381908177786
0,366534127569002
0,357245564599657
0,359702834284577
0,354995045811491
0,355198234721129
0,35507858392815
0,350121839381967
0,349163519700606
0,346387876410522
0,349318438361585
0,337855023945157
0,345722279604097
0,341098529041114
0,332284267101746
0,335221494364458
0,328888359607707
0,330706946935164
0,323637645620589
0,328038817199241
0,331502833346595
0,322518521152042
0,32278815003662
0,32231310175519
0,313166718948889
0,318029118711859
0,309575092062178
0,309404741478181
0,318198911861109
0,316352543002427
0,311387474717839
0,30630226859499
0,303010867242424
0,311571970104744
0,301981131983089
0,307123187071415
0,288692076201259
0,295064359028641
0,300570912358099
0,286087981398706
0,289412789883106
0,285845001480563
0,284998388913453
0,286301402836104
0,28869169071965
0,284102047439139
0,283448804919555
0,279091684031393
0,277486129790774
0,271660381766448
0,280816091148252
0,278777181915676
0,267309693186399
0,266925240067511
0,261902208595095
0,264517795672482
0,264535937830587
0,264502460150914
0,259599377209032
0,256677413251717
0,265104662561994
0,260036707870333
0,255386639234106
0,256701492424149
0,251336123021609
0,249329320612545
0,248200401851452
0,25042460881832
0,24042735519542
0,236362644451972
0,234857932192475
0,238975610727884
0,235306799112314
0,235513670035262
0,241939913371335
0,227276557040145
0,2301062604965
0,231974534045741
0,233612594466882
0,224282572520422
0,225716870738129
0,22903009377246
0,230987489876481
0,222204028284558
0,21876201502487
0,217143326820302
0,222412641963861
0,222416245831512
0,214020067346104
0,218390439890447
0,215684325589418
0,210978790885409
0,205767550076118
0,206360577130369
0,207355134708554
0,203446261515332
0,207779559592631
0,207463566205961
0,203145111795335
0,206167623110565
0,208531557394453
0,196922912778983
0,191592166681681
0,190156558764372
0,191468963919241
0,191404681464315
0,196687772220715
0,187957210252368
0,191308283636346
0,188229255587613
0,188488956246665
0,185187245865037
0,186232716522921
0,178468072006544
0,178268762436269
0,180901079026217
0,180784594095421
0,176558317157408
0,181611412201572
0,175327006209039
0,177111358567706
0,173211931476032
0,175900131176576
0,16935912513668
0,165018337947591
0,171063687452063
0,172067557086695
0,171228203976948
0,167789126111365
0,165311970662696
0,167008925046521
0,164804584420268
0,1609531822302
0,164358425043552
0,160838064149564
0,158994181869366
0,161595629926322
0,157241774115547
0,158135957514874
0,151799401178357
0,152533211240507
0,153088599454978
0,157406436835081
0,155936689376606
0,152363631870505
0,15145402252657
0,149432205152791
0,1497766449431
0,148283174376622
0,148379790969771
0,150791459113745
0,149739516897871
0,146282065796959
0,146373883079972
0,147102562177814
0,142057595893108
0,142513312598492
0,142183256349289
0,137133813718175
0,13934818390363
0,141417942910222
0,137065099608615
0,137868470278791
0,137251422840823
0,139091492667599
0,138882990128084
0,134407109466203
0,131278494996834
0,137117427996221
0,132554278968179
0,130160532346847
0,130024928085612
0,132380643340199
0,130289866450609
0,132887517269249
0,121524298960629
0,126354600093639
0,123828345892681
0,125280772561897
0,12355748185075
0,125765248312798
0,122492110100369
0,120376443978341
0,119956591974821
0,120839768099475
0,117882960031055
0,118904024246166
0,121649556393889
0,122783646908614
0,119745988063849
0,119954688824059
0,118532308250102
0,120013978035895
0,119928092893458
0,118847877303301
0,114967529009295
0,123747742067244
0,117889681866294
0,117134720859714
0,117601539121818
0,11634678981902
0,115680438478927
0,120223029074267
0,120313057611919
0,116167950708104
0,116419668707083
0,113645666459542
0,112276080742558
0,122169862887526
0,121569080938807
0,120718007275117
0,116057223248327
0,11983697699957
0,116737474218402
0,121501166364525
0,118399199172695
0,121070020243845
0,120638776102051
0,121846894824124
0,121446553808289
0,123053673951555
0,125465725178112
0,12520947438651
0,120374215205048
0,124992690137571
0,128099382440095
0,127680857124601
0,126085065655743
0,128152670668849
0,124992155645498
0,129074645032906
0,130965364956543
0,12698534500924
0,129980533978509
0,130258283389837
0,127886798484126
0,137398352946239
0,137652037119459
0,139877951297736
0,134503019124053
0,141467917499586
0,137915507131217
0,140507663281297
0,135691855839917
0,141950208327783
0,141405636529972
0,143504761485136
0,144475363232081
0,146977309909324
0,144303813461155
0,151653388155396
0,151553303815984
0,154422375394552
0,152578409919378
0,156219704645044
0,157839254166415
0,158787146446646
0,15606120651911
0,163535175808134
0,165556293841652
0,169835062956421
0,163729973471101
0,172462876655428
0,171514698710798
0,178121317802592
0,174748655666479
0,176152716921916
0,172413695706192
0,181158291983754
0,18098519928382
0,183307029432401
0,183144460217935
0,186206025101243
0,181755478274005
0,184078231153172
0,182151871802211
0,184769259739454
0,18698581542274
0,185888546013437
0,184981810858916
0,191297908760235
0,186920547041342
0,194313543970187
0,182773402931126
0,184503570589278
0,182880548757554
0,189320471172745
0,18133980543837
0,180907547199279
0,181976187483041
0,181072916551438
0,181830940543036
0,188539405380074
0,179858699740094
0,184398124032289
0,17692465087093
0,18154155180614
0,176211475136259
0,17873081185127
0,178538130582133
0,178909853537839
0,178292976121851
0,177152143506396
0,175178862735714
0,181751439096341
0,174574993252978
0,176476418491589
0,177586214519365
0,174222260729514
0,171207521123298
0,177303706859169
0,169437404482925
0,173373369477888
0,172375951376829
0,17640551919757
0,169665781806223
0,16954447950285
0,167193137292263
0,168965441551204
0,172278838685515
0,176814485972485
0,170277953165928
0,173070162464921
0,173184972482396
0,1699437754711
0,167750805614026
0,17061238156042
0,15988944382383
0,165802677198579
0,160838498651668
0,166829104547144
0,161643226943495
0,160466745865767
0,16109264593225
0,160661861791163
0,15875388089002
0,159933223429926
0,152163020859829
0,155342669107357
0,149653585976604
0,153686930479651
0,151459649236581
0,152652906491936
0,147201831897985
0,150434195228912
0,148713540561552
0,149880170869219
0,141591016706299
0,140419623260614
0,14079535370068
0,142629835682113
0,139600382281207
0,138595266869275
0,137827578695497
0,138058647968651
0,131265525163537
0,133403909483346
0,128769040186064
0,13073256910411
0,12967393120222
0,122941834877946
0,124350826291743
0,124760827315829
0,123124439494047
0,121541773563671
0,120932501170077
0,122855692097404
0,114945522543527
0,121301258941504
0,118075295043616
0,120172083736002
0,114529836668448
0,117374401243393
0,113319058416639
0,114428508406973
0,110491091843452
0,116216313182893
0,110695510976652
0,109094964603649
0,110138401268342
0,111064931886337
0,104421452864813
0,107936000084391
0,104732527346377
0,109655813702703
0,107339159801101
0,106510767743987
0,105067536849705
0,104798578882811
0,102414866532296
0,103059454942284
0,106270704961673
0,10770532095446
0,102456915218561
0,105715607882316
0,100890147922904
0,0993224392763577
0,094744158029458
0,103938632111557
0,0984240407709381
0,0976151214409429
0,0970744739423648
0,101967981440232
0,0956196943950236
0,0975344870319782
0,0944882438213911
0,097272730616214
0,0945412639090677
0,0901681983859623
0,0893465896013484
0,093921667999205
0,0892759449090474
0,0915441888106989
0,0914485824033859
0,0886097913242466
0,0899439774340301
0,0921194425965724
0,0891293775957992
0,0890002662347324
0,0851045051774506
0,088205119726631
0,0851094142104799
0,087140161815074
0,0840160537971034
0,086032915547601
0,0889392773780423
0,0878860185829387
0,0796336007268954
0,0832466931185795
0,0825951595675618
0,0829664121792764
0,0827734418242662
0,0832989287100439
0,0835351169664719
0,0833070612233388
0,0858702117311228
0,083743383238733
0,0810602831313647
0,0863927222279446
0,0837691216162375
0,0800705954563514
0,0802936221471091
0,0863149605715887
0,0843958072381038
0,0809330426627213
0,0772203980335763
0,0828061272889834
0,0788940940457285
0,0809252853048589
0,0791559881891357
0,0794837098349514
0,0797047275768481
0,0810750092307363
0,0799000178766151
0,0816798635299944
0,079481540789267
0,0771035382909244
0,0739826306378328
0,0799190183867352
0,076514252109202
0,0754129545225981
0,0759798531186041
0,0785705982525212
0,0742508773765925
0,0764913069024899
0,0760280840800784
0,0779361119019645
0,0738766706831565
0,0755470580550018
0,0730500714058654
0,0743219861145492
0,0718416423641096
0,0769199871579583
0,0709485765729425
0,0755115920356591
0,0733256743848155
0,078185292228385
0,0730494214035014
0,0748139519506443
0,0691214578320544
0,0713216114584987
0,0718416089674855
0,072630447555055
0,0732032913967259
0,0735117725237179
0,0697595682702792
0,071636291812875
0,0667005737295994
0,0735962896983327
0,07343213122633
0,0736629174764578
0,0689043475083374
0,0738737546475624
0,0701406906111383
0,0724419466296475
0,0700706220856442
0,0722778855955605
0,0704489628307874
0,0708229007736828
0,0668893447628498
0,0713567260900362
0,0697849746874736
0,0701509801499395
0,0720738676430261
0,0704563503253253
0,068557962096086
0,0727698335240527
0,0660552491513452
0,0715214041780902
0,0709869654855711
0,0720714031930161
0,0702278950173806
0,0740016280874614
0,0690899963717664
0,0677886604548983
0,0665830999923679
0,0682575348095121
0,0684710392521439
0,0675129365108261
0,064784211531232
0,070593700792199
0,0649972091421153
0,0675146084780568
0,0650490977294303
0,0681509851501695
0,0663551545116303
0,0686543903541215
0,0599466356455806
0,0668433966576957
0,0621275634767332
0,066387773756522
0,0663816132611604
0,0659545694254035
0,0639069887652629
0,0679533374089587
0,0624692539058927
0,0670639989658361
0,0599637062151739
0,0621934773048102
0,0611074254580038
0,0621944021558365
0,0587853457468089
0,0599735393241237
0,0603997778116486
0,0624965894198655
0,0623407404601831
0,0612990565796891
0,0596644676848741
0,062641868154221
0,0602629239925254
0,0605430195903045
0,0555564928618234
0,0627813839774189
0,0553660060177625
0,060349956772545
0,062148969333862
0,0649701003255829
0,0608215471655824
0,0597714321947549
0,0567857891815608
0,0613110966956837
0,0582843997256465
0,0600727742420931
0,0592036093897722
0,0585542741025502
0,0587994659376829
0,0587647751208862
0,057064247560813
0,0596682013830223
0,0554673217711983
0,0613268948137571
0,054886692368529
0,0594417592149222
0,0550783436963961
0,0596811588002695
0,053058993834711
0,0554892803218564
0,0529785295909268
0,0578444735899657
0,0565570241405833
0,0576047984491213
0,0530878441913489
0,0564454363748182
0,0547588580013837
0,0540312417192423
0,0527479080123695
0,0544877886699485
0,052901400021853
0,0558575278831744
0,0509460009710417
0,0502864321632982
0,0520078331345702
0,0524915954460569
0,0464301891876451
0,0526850325808392
0,0445740175666093
0,051558332187452
0,0460301155883156
0,0486469265212197
0,0450473541771722
0,0494625863802608
0,0491187695906711
0,0519183746461978
0,0453630945679882
0,0496890689787839
0,0457548079021426
0,0482398386810864
0,0486777762556852
0,0493446721854121
0,0446755260695414
0,0474550050274663
0,0437890549338273
0,0483255529255459
0,046941628537619
0,048258509256762
0,042783712789567
0,0488234315332876
0,0503484980978977
0,0481827140912453
0,0434184724553561
0,0477293983716989
0,0426338532684822
0,0457142041083877
0,0461385266353574
0,047878824047045
0,0454491150744402
0,0456051950881581
0,0465926517385191
0,0447843011013716
0,0434058789065752
0,0467351196874085
0,0429745900969915
0,0470398576943423
0,0425105282095779
0,048710620481477
0,043472582650335
0,0464683792672617
0,0454751899161332
0,0467517952972851
0,0431168181130331
0,0443331024373878
0,0447188241480828
0,0459589798011839
0,0393037716852121
0,0461761024176674
0,0430345257511642
0,044859333119307
0,0410101501033583
0,0441719700309432
0,0397306644896992
0,0421646508769849
0,0374841776505483
0,0413343427904883
0,0396917656453972
0,0423241337124727
0,0390693161978051
0,0429313184885903
0,0379109761088419
0,0425913079800846
0,0396494974827988
0,0422302550593506
0,0385470523588481
0,0421743756193857
0,0414382160245989
0,0411393866842011
0,0394936281498335
0,0410921267828745
0,0392550272845317
0,0422562439651951
0,0382597837077318
0,0416052787700005
0,0412630525607998
0,0396428229286921
0,0377887743475935
0,0397952807549689
0,0392101688593976
0,0410226280696152
0,0347062500502781
0,0395548700776492
0,0377791888942034
0,0424738570432754
0,0379590737886987
0,042918684961218
0,0383781288778526
0,0406137805756196
0,035771545962933
0,0403718746818863
0,0373443175729892
0,04061226815378
0,0375273501900663
0,0406662971991658
0,0403856517295368
0,0420941859141229
0,0386193965361232
0,0409836422291035
0,0388270872031635
0,0381629763386594
0,0407352203352082
0,0404620169043548
0,0356063141247706
0,0410059778422929
0,0361190607942132
0,0405781504125432
0,0373608866682412
0,0375219370177291
0,0379870825757797
0,0350224073044674
0,0341833243628277
0,0374320091984666
0,0368519832032685
0,0377143282061376
0,0358737345583592
0,038098591469384
0,0359306756096618
0,038569627147562
0,035996797197512
0,0363751572228821
0,0369549292673268
0,0375702034786629
0,0322733796491358
0,0356067315381134
0,0346422842120825
0,0362249849533917
0,0352529269942241
0,0346683804610407
0,0346755019060618
0,0378003869557203
0,0322169615136997
0,0361871740552056
0,0325774862428695
0,0340694683374092
0,0318799257538017
0,0367036021208224
0,0336030413310336
0,0376127087467565
0,0337792159018599
0,0375143769965465
0,034253849781644
0,038039030831304
0,0323331554092662
0,0360880864772791
0,0327805176135926
0,0366755710872393
0,0340881087711125
0,037174985826299
0,0334884569907281
0,0360185460436859
0,0316412046991166
0,0332325386237635
0,0351427428067895
0,0341043033352986
0,0348124022865542
0,0377017014744395
0,0336033903253617
0,0368892079019602
0,0360988952799849
0,0362785901507362
0,0349140227070299
0,0355489369566286
0,031352998159691
0,0351644423796048
0,0327199576683165
0,0347193548807796
0,032076663799356
0,0334818072014717
0,0317538272412864
0,0351641081587841
0,0288913766240938
0,0308394593564753
0,0296517276298533
0,0350335086434422
0,0329670189812564
0,0319072961819106
0,0294458999792552
0,0326299854678841
0,0314095734836467
0,030609534484157
0,031744696365456
0,0324150615963346
0,030506705105867
0,0327617868208082
0,0307161656874863
0,0320430711957017
0,0299546272330297
0,0298717734941205
0,029359031941478
0,0283160223917166
0,0289411657609477
0,0308550510753318
0,026176040957695
0,0303541732540183
0,0260520440872144
0,0293968271133857
0,025981969530259
0,030955041657112
0,0288849211503785
0,0332469338981864
0,0301239236656758
0,0304210728059922
0,0313028627795584
0,0315202685384565
0,028823770046814
0,0300819272216578
0,028778860941383
0,0281966459607638
0,0280183790437745
0,0294576242355063
0,0275498953149648
0,031950298153789
0,0272931765766102
0,0300920945207712
0,0296274774974539
0,0331878482466185
0,0259991781754535
0,0283806636458394
0,0287056599187128
0,0291383815564295
0,0267845392170174
0,0275429118909741
0,0264520214075711
0,0276504571402558
0,0251583419324122
0,0289065903875827
0,0263423819125542
0,0280352482199283
0,0275810124238466
0,026994580730945
0,0273465910701588
0,0278826383104497
0,026407771654023
0,0264575992096793
0,0255442726917379
0,0287885613707039
0,0265937908526773
0,0258886836122148
0,02219076465593
0,0239602142275517
0,0243674865278666
0,0246325024755957
0,0263342505791321
0,0272503272883096
0,0248006599976794
0,026061206275898
0,0258201871240912
0,0265740987710833
0,0242372507787141
0,024851070701628
0,0254001453858664
0,0262314882367769
0,0226791731659612
0,024002776776316
0,0235637706221351
0,0257424369351034
0,0237759305972916
0,0240687345778368
0,0234057313329249
0,0255181306704559
0,0238869835327197
0,0247627015627975
0,0242738707345276
0,0253509832704074
0,0266186205053286
0,0244378621639663
0,0238177479504578
0,0278566523384113
0,0256901332595349
0,0265203911241308
0,0258352398088789
0,0269203296156867
0,0272826709103632
0,0300369363029051
0,0270919749012662
0,0284699252590661
0,025317299508095
0,0281590273277829
0,0255934465425131
0,0305044703086477
0,0326840316850592
0,0339023826721938
0,0289701047377063
0,0265644489845246
0,0207459322702093
0,0273564950801218
0,0324809187311861
0,0328105665973426
0,0288553672656711
0,0255202052101819
0,03340941963437
0,023746032700993
0,0311783568071061
0,0290653190645194
0,0239576598957392
0,0324882105508499
0,0240029162144629
0,029574965580772
0,0266490711304883
0,0256742610868094
0,0321070400197874
0,0293260067004273
0,0323630838967937
0,0259338421977887
0,0251296004612536
0,0174026725471103
0,0262746475647312
0,0189191770943491
0,0292416177781357
0,0189144217153232
0,026886043225849
0,0139477653719645
0,028897779368196
0,0165717906994637
0,0288611888816821
0,0165589354578843
0,0339417575159581
0,0175079807682442
0,0382661658220493
0,0203538214655911
0,0319500873239958
0,0137589574916317
0,0307903684952969
0,0124067449622738
0,0395410530362507
0,0227418774153603
0,0383898791240214
0,0137183029110392
0,0308703478882839
0,019314957504004
0,0370701289736355
0,0222623403378656
0,0293073015117364
0,0288963840731341
0,0314646743435385
0,0291672695887459
0,0225939929898059
0,0404790966245911
0,0192029976663013
0,03403364413979
0,0150769229367454
0,0421850944089509
0,012341876237993
0,0395280724628947
0,0145218820865574
0,0357471841724406
0,0191460474610827
0,0323998132066887
0,0166288977318301
0,0301872665848906
0,0201259232194458
0,0269563384449922
0,0220281066513955
0,0272007343195165
0,0218060682056197
0,0253345299568403
0,0197461622265802
0,0276117541188367
0,0172504570639007
0,0261275447844285
0,0180304280817516
0,0251215045892479
0,0164772110622711
0,0236718894223318
0,0178071331970024
0,0276216039210563
0,0179559416988191
0,0247858444982339
0,0170776791951759
0,0221796336876037
0,0169132810253537
0,0228217759695008
0,0170336917503692
0,0246265954284415
0,0176025536910384
0,0221690303538811
0,0163878815578826
0,02464048523491
0,0183597686303599
0,0228628235847142
0,0184570505841824
0,0231523690071799
0,0197988586166703
0,0244844654718374
0,0164160349329676
0,0233976533588763
0,0193574172818991
0,0244348680809696
0,0169121945365139
0,024005868408988
0,0184154347801916
0,0224499946968423
0,0173697684292035
0,0233970382464525
0,0179329374706832
0,0249543607568858
0,0180856535865308
0,0251301595765299
0,0194092217551796
0,0225884144985739
0,0182765214662731
0,0232978059717303
0,0177667599461891
0,024226396803476
0,019804475077118
0,0236193023609742
0,0185371148448299
0,0219616481928214
0,017125830902495
0,0229330793498427
0,019652533056748
0,0233274804599516
0,0191488095353422
0,0222604351736642
0,0163472324625423
0,0222691091320392
0,0171762581771382
0,0232596752417787
0,017042992482699
0,0230512143609539
0,0175267019451975
0,0233753463608538
0,0179171950037152
0,0226214588127692
0,0192380858593699
0,0252237089914504
0,0179619223086068
0,0230465637400152
0,017015727335864
0,0238736414583373
0,0157009388693192
0,0212593099862876
0,0174665831513843
0,0226560021184236
0,0190209813565378
0,020918069828096
0,0154419774421981
0,0218663165938163
0,0182420238715417
0,0220442145581908
0,0181594207795696
0,022247096885763
0,0170427566384144
0,0215161683415067
0,0193357758818145
0,0216331912616416
0,0166107099319138
0,0236080736889651
0,016340745194921
0,020688223227529
0,0200792401052537
0,0244833463542894
0,0188329320430351
0,0238761576199041
0,0188739389929285
0,0247914249139684
0,0178511747398195
0,0233333976482602
0,0194054781717073
0,0234662701407036
0,0189707256740522
0,0227054088536629
0,0174657628885719
0,0231913894996977
0,0204059475064633
0,0233099505157351
0,017081776710776
0,0250859117358494
0,0172555402183708
0,0224201502929308
0,0186160687377488
0,0222854926738413
0,0178825663174795
0,0233363412828767
0,018073633602076
0,0233865440247697
0,0198715947824533
0,0225980799763172
0,0179404700979754
0,0237839069460332
0,0186060352633125
0,0216614008903055
0,0179220254965679
0,0230938997335022
0,0202399731528312
0,0223894144623592
0,0170526670657377
0,0204980967571873
0,019497910331494
0,0223330177474908
0,0175391805912535
0,0217236653009334
0,0175361750843697
0,0229642495766276
0,0172750793090511
0,0224188201426311
0,0192909337854148
0,0227038847094397
0,0186527355066306
0,023473340264529
0,017668301113962
0,0230268856076778
0,0181142256631961
0,023926084262892
0,0191870027918707
0,0224250409767563
0,0182979550737625
0,0245427206799039
0,0190700518854609
0,0210844504234122
0,0190334490148705
0,0241021727460321
0,0209515037875232
0,0228453175420151
0,0179667198429978
0,0234855692784043
0,02122171387422
0,0249941329125088
0,0197153305971081
0,0222501795524086
0,0186069982173476
0,0249557547085029
0,020673130615123
0,0226829288723292
0,0197704020553192
0,0225120308164904
0,0211579776707797
0,0239968003599299
0,0208800002869669
0,0247102238440833
0,01828161500358
0,0241763426118896
0,0206976359067507
0,0239298659140358
0,0181761027591826
0,0216671423788149
0,0197895391250679
0,022775833188629
0,0160933607463077
0,0237193168738239
0,0188885210065429
0,0218570743940757
0,0183317131882878
0,021343418980964
0,0185381535651614
0,0216179977077625
0,0174906801747099
0,021340476705488
0,0188431819442511
0,0204798863720073
0,0193832698441419
0,0216467754158545
0,0191440951064806
0,021327440571375
0,0193867815146785
0,0246083077877916
0,0197246184764896
0,021838792093228
0,0170876147425498
0,0200365271013394
0,0183170074360939
0,0233539965574228
0,0177745584816508
0,0221419632846913
0,020190486610303
0,023057355231451
0,0187371394257762
0,0224561627987817
0,0194693098405733
0,0213540481655564
0,0187184842311682
0,0215394721438538
0,0186299130513468
0,0227620882740066
0,0163218070828482
0,0222838052447334
0,0180612855869448
0,0231397898630345
0,0186809443819683
0,022462047505451
0,0185445762410803
0,02350167731061
0,0181019574479402
0,0227924814164225
0,0165033257076068
0,0245668045240801
0,0192604919648571
0,0223719697090031
0,0175240975733057
0,0217676849502825
0,0174690671685665
0,0229791425464799
0,0183698633537734
0,0222088696044664
0,0182250102003765
0,021659303582469
0,0178583932824991
0,022960455798844
0,0172820241457254
0,0213188014296319
0,0157186714596725
0,0228965590087893
0,0171349740658568
0,019843155813812
0,0148180031486799
0,0201607217759288
0,0168889259702573
0,0201496456156719
0,0211829799867252
0,0251101013141732
0,0179850111763836
0,0220245728225612
0,0164261873217946
0,0200627961551531
0,0173483464917167
0,0216532837729274
0,0153733284832341
0,0229102746862433
0,0161331301815882
0,0201774132301924
0,0172362076710769
0,0190987068837709
0,019925342466298
0,0228691852383304
0,0157110296395287
0,0228762329130227
0,0171493837300807
0,021068406805902
0,0157195045986507
0,0209652143208587
0,0166363704608899
0,0230993467241502
0,0175996079396132
0,0228297083108284
0,0206543185419836
0,0222609150159864
0,0187878644640629
0,0216544063136983
0,0165614480733447
0,0204700371561383
0,0163501422794748
0,0202246152239818
0,0169090467189917
0,0207968350230888
0,0175606875819057
0,0221709566565349
0,0177637911696364
0,0224000769475818
0,0168168852020834
0,0208717404637954
0,0161867658206597
0,0203558208522901
0,0139794766792723
0,0184781094757982
0,0167357429517413
0,0195959839264758
0,0128102474940894
0,0209479991709325
0,0164070854849815
0,0218659922161761
0,0181585386804424
0,0231491478282294
0,0143670713029013
0,0211325819865004
0,014554005501165
0,0183502975978394
0,0127485600997486
0,0217180806061062
0,016594089018937
0,0200623036322566
0,0161728061725535
0,0180330731431342
0,0166298321259141
0,0187412400414161
0,014876836693817
0,0167012042554626
0,014722940277695
0,0177747205999608
0,0145888676520649
0,0171034918026745
0,0168219484439253
0,016335097827535
0,0148645195959741
0,0192884542871527
0,0127751451484834
0,0168389501493545
0,014456520852916
0,0238824641346055
0,0201233167008468
0,0172754823678586
0,0161439929430269
0,0211433007807768
0,0166022872253974
0,0193589058851837
0,0142896285237094
0,017311491865932
0,014942370298337
0,0182290657273488
0,0148474487010534
0,018415241784938
0,0150062475106144
0,0176478108224326
0,0139512050731938
0,0202682718044835
0,0163474631736826
0,0167802805904448
0,014443698534932
0,0190808362808013
0,0149488852646055
0,0178439245436613
0,0129786180910608
0,0185946449285468
0,0136587255842569
0,025184562220952
0,020337331039768
0,0194545536686101
0,0138529139964809
0,0160144410236835
0,0134948063869115
0,0184726822709289
0,0137406954430431
0,0181741809854119
0,0142736840342684
0,0152469558008975
0,0121282379678987
0,017012599752083
0,0150447836371743
0,0159479310139227
0,0148435284759804
0,0165396142602683
0,0131914685292401
0,0192052330793359
0,0137259513906818
0,0171560072686019
0,0152423988762838
0,0171993265728738
0,0149651893849569
0,0207147320889354
0,0116578495892098
0,0181029568574432
0,0294689911066467
0,0243250428826006
0,0139566590510324
0,0172757232315718
0,0150435292007499
0,017185063177943
0,0116947510732146
0,0165333007883402
0,0155424404220327
0,0161644007247067
0,0153394843605119
0,015797058481508
0,0133226137968165
0,0181121280777455
0,0128464826244477
0,0153975858990663
0,013904181204799
0,0185516685079612
0,0141556835890495
0,0139529324577751
0,0163324383681752
0,0289098076334338
0,0214006516006813
0,0214735017692297
0,0162627572179536
0,0122262636263526
0,0237871375586311
0,0253377032370588
0,0161874814246276
0,0200619384617233
0,0163799733962902
0,0169565973846281
0,0130025071058532
0,0146815554331293
0,013786621417704
0,0226309937380464
0,0143191182270874
0,0214734400151185
0,0147268171695997
0,0186402444270932
0,0134252207665129
0,0163522577428098
0,0135406209374058
0,0167976403231324
0,0121522515051307
0,0152117796551549
0,0128457544489856
0,0147729494343292
0,0135120204812819
0,0151562340831429
0,010420217781059
0,0226386612493428
0,0140848741887544
0,0165044858799064
0,0155764996388627
0,013099974565928
0,0124221692071199
0,033436634905478
0,0167317820792193
0,0203701569237424
0,0110912532519045
0,0176928923776442
0,0141412253184364
0,0185810627816236
0,0130845075128369
0,0175554027171551
0,0139193475046657
0,0176188070955185
0,0145673094795586
0,0167856457796416
0,0142966784341878
0,0172421324939407
0,0128639639391387
0,016142840728841
0,0123735369875294
0,0151270198082881
0,0148789967882024
0,0141718158369956
0,0146191321710397
0,0377341712793483
0,0232433773080655
0,0284304896052625
0,0212514524339963
0,0180317253529004
0,0127882092972235
0,0183345142414012
0,0154664482123251
0,017672104096593
0,0152382843851008
0,0189364911346199
0,0140561395969617
0,0164748401397077
0,0141682398934011
0,0171849487329327
0,0106654460081598
0,0197025559646079
0,0116184771639816
0,0165688306873459
0,0120749744982747
0,0165676454665145
0,0119222338625214
0,0234498834917705
0,0197383829518024
0,0200979350716768
0,00509623244154266
0,0299226801571065
0,0404745298550363
0,0217999648351328
0,018592078367719
0,0149692012674643
0,0140280323517544
0,0170173206791979
0,00962142075621036
0,0203273439060742
0,0146954112935972
0,0176550542962231
0,0141024676178368
0,0189104012347753
0,0132456159107646
0,0116008526502401
0,00752707369604474
0,0399742072563137
0,0254318831516869
0,0223193318017313
0,012246118496954
0,0125420773092481
0,0311036224993015
0,0239178342921423
0,0186347639447839
0,0224886560238284
0,0144741130504455
0,0173417537940713
0,012443492694562
0,0153669795136747
0,0157585525006098
0,0225514543963237
0,01275014900995
0,019656559730305
0,00890348370910538
0,0194977281231013
0,0145930012816032
0,0272798956707337
0,023516382224017
0,0160164049805117
0,0150367525040535
0,0228078042542934
0,0146986709524464
0,0188169288353746
0,0140821595333965
0,0126988846317916
0,0223433879842725
0,0342943062992315
0,0160939162091915
0,0280835644677283
0,0253936474563298
0,0161627836757196
0,016785281568614
0,0277244516586151
0,0254894519639215
0,0141529474178489
0,00971104297364759
0,0426844705971702
0,0257367260771279
0,037061505648827
0,0178693178758927
0,0204899382364016
0,0156297170429733
0,0191864401213825
0,0114601913189184
0,0279438326793392
0,0168365998633577
0,0202109140669506
0,010855972315262
0,0245080370530475
0,0279860498220921
0,0234438835579192
0,0180715226537276
0,0182091875712113
0,0132918800197903
0,0253795172016059
0,0218412180570403
0,00905544655545104
0,024791658831254
0,0575366518683664
0,0376322907508014
0,0277267918829885
0,00780847538394107
0,0518193148831891
0,027230355574698
0,0182387208999795
0,0182916045038547
0,0212718593611607
0,0146494924525495
0,013354747691855
0,0374665446203393
0,0360426310796146
0,0160294635140275
0,0262810511594338
0,00752530951548167
0,033180037436627
0,03417461022035
0,0228852396379434
0,0197449307367763
0,026042582037443
0,00807720236011465
0,0480722434638075
0,0423700627818271
0,0278553082554016
0,0407688725456887
0,0391392114230208
0,0334674957570697
0,033434452934398
0,0233030576149553
0,0306706608593129
0,041775455719052
0,0286919652004377
0,0134710626983099
0,0265262738492373
0,0505104842656295
0,0278910648704401
0,0294511801272357
0,0275049429249518
0,0116999713413446
0,0417006920180184
0,0726719628069879
0,0615304111772829
0,0313445243401369
0,0252739750703157
0,0478437318731769
0,0355505914700501
0,0243478243607066
0,025375678622082
0,0241315469304035
0,0281924193716676
0,0190023146838693
0,0369071678750766
0,0285678458646598
0,030150726307159
0,0289857207070328
0,0206882015305903
0,0288284046820363
0,0652735269757183
0,0651529749861649
0,0416924259495706
0,0677789790337976
0,0652678332488468
0,0384534490140197
0,0368222876283154
0,0261845769025646
0,0469880212125222
0,0363608727469599
0,0338996950870291
0,0263926320642933
0,055149419071056
0,0510742436791433
0,0323884366379155
0,0573056046182673
0,0399122744188336
0,0357936073302863
0,00324702542349116
0,160895047837909
0,0790526223119718
0,051444108640039
0,0531728178203432
0,0171586318400886
0,120484879074543
0,0546654786890623
0,0461773277885939
0,0438596990240178
0,0403326026925112
0,03670259840731
0,0528153626794004
0,0473880790446175
0,0612790167400648
0,0495628946976252
0,0434244869066538
0,0329382878797304
0,119742482949586
0,0990666531966498
0,0792832775782705
0,0482307645081411
0,0702291525881571
0,0711234278214559
0,0577612477457955
0,0552844365421655
0,0606981459868071
0,0340777829219378
0,109284342390235
0,0705128718670864
0,0682864739777443
0,0602717944018075
0,0921836354797144
0,0598178940703517
0,090984051983382
0,109251654508699
0,0771843293987751
0,0761031255800803
0,0708865092190716
0,0763274941255117
0,0562719307670844
0,0903062520370212
0,0979101144689567
0,0778407678583273
0,082759733654099
0,0715716076687132
0,0813663053666134
0,0792634290070798
0,0886721881936101
0,0721270899147251
0,116717630398413
0,0822269731441696
0,202333290004724
0,132060913538214
0,0871730802713822
0,0932777063413464
0,0778259965213402
0,108295978329936
0,108741148767212
0,102735027293044
0,126768484769835
0,0802787516946058
0,0914176342377293
0,0848252205693333
0,0873101034842053
0,0795865278614838
0,0929054731728162
0,072164688810236
0,106822525406214
0,094550831093407
0,0813475978173675
0,149876569385384
0,0980627270268777
0,0824414405481884
0,0824609697964597
0,0829829079894156
0,081692675131228
0,0783153917022376
0,0770175721939686
0,101830246340707
0,0782506436665671
0,0792163611207485
0,0765827566175892
0,0793782485259663
0,11073941140397
0,0762076986490485
0,0842218873140983
0,0716101412162031
0,0799184082996877
0,0711575609154605
0,0527342618549362
0,116638531412225
0,0848388122263196
0,0705635403087748
0,0746751251149809
0,0670218488746537
0,0727321645923696
0,0619538237857865
0,0673270953194035
0,0679676052901922
0,064706186696898
0,0670061025756616
0,0655984374461094
0,0606166005114264
0,0629232717834507
0,0641585801827067
0,0651763218256622
0,059724072133952
0,0682195992956986
0,0615826674331831
0,0636453477731328
0,0551080417643985
0,0641322338246474
0,0639409023187901
0,0684401717019764
0,0655704089989581
0,0593289971967295
0,060454642727735
0,0601606955959623
0,0599088131313411
0,0617986616783761
0,0551029618910326
0,0628479235443933
0,0543334537392386
0,0609947389157861
0,0550587860918938
0,057496220549505
0,0558146113323755
0,0591302644570585
0,0550059672759875
0,0617083510559374
0,0488332369537492
0,058211814801832
0,047391165381942
0,0745156205058538
0,0944107956004934
0,0548543625978541
0,0614881968308931
0,0538091541811684
0,0564867613953715
0,0415425591234443
0,0722123787777698
0,0904552815991351
0,0531674891519362
0,0568577043882099
0,0432356731175676
0,0588605322660943
0,0649439555623545
0,0487505682183541
0,0540783061059924
0,042467356697435
0,0301022780519003
0,141872000632645
0,0481880733585512
0,144850292776038
0,0722203785734033
0,0539263745713682
0,0338536241911664
0,0905042596869487
0,0479405062946729
0,0527907750021295
0,0424565547346281
0,0846911197779501
0,0729996697118505
0,0434601331375858
0,0522113928939654
0,0434350433177775
0,0527286198805715
0,075700188060644
0,0562810763520283
0,0472349003038868
0,0881691443141749
0,0606276253531543
0,0779562755217576
0,120243204890152
0,0887075005742246
0,0564069528748583
0,0452724644218372
0,0542565042473448
0,0309738422944467
0,107874484326073
0,0593608077858539
0,062970207416745
0,0511406007522193
0,0381247787489797
0,0499548177843838
0,0552101665596181
0,0676823085595497
0,0393470730879735
0,0892133618731724
0,0495399023272293
0,0442153247607118
0,0699191351472841
0,0591449354527592
0,110551784734783
0,0615422366245318
0,0461643561239436
0,0507370565747924
0,0996699428500789
0,0575242752715132
0,0649667923069973
0,0482020752074107
0,0407818017823846
0,0673008395401243
0,0521997526387885
0,0557416010415915
0,070421025051715
0,0564485648605567
0,0950351401003724
0,0908815262594422
0,106990376818583
0,0689307224090574
0,0448988315096031
0,0468474862114669
0,053010328527316
0,0496697306799843
0,0460438062392011
0,048811762556543
0,0734498129884398
0,0266809044681457
0,0994721670251481
0,0647825905615356
0,0513827748884564
0,0540605970695157
0,0539577068261835
0,0530520143947174
0,0762488068301125
0,0847673457642747
0,0885988762929026
0,0555091303099358
0,0926814613161828
0,0576170285963981
0,0672502840670477
0,0543656686374784
0,0666946758901205
0,0596669103827845
0,0766090950104176
0,0670621720488156
0,0746093996465301
0,0676564136385878
0,080069225280969
0,0687099750212279
0,11771461307192
0,0713482132752495
0,096667589935645
0,102795006657507
0,130218586983741
0,113218999689414
0,0883029064908101
0,0959178763953073
0,0958904006035313
0,0940106863183143
0,0998555114439239
0,0838266206901563
0,140471943931246
0,104140436911926
0,108458066142109
0,106816617691326
0,111826201492695
0,108264353790151
0,128390896529419
0,13635082197179
0,122353903914472
0,184649796092617
0,134237740063233
0,129533636756408
0,115189796261593
0,12201464170468
0,125018242994036
0,111852242594644
0,122100024652924
0,10535846800933
0,137418756215815
0,130401898337762
0,116850208745003
0,11996130032493
0,117879957250693
0,120789232236164
0,121426203329422
0,122502967125736
0,126563701017331
0,116738461522022
0,130758965676332
0,105290556713991
0,170013633093241
0,156385702316912
0,125312787548161
0,136878315435592
0,127929246888837
0,136975028175375
0,126426300545369
0,140921459085802
0,148725583911127
0,130956122721751
0,141712886787345
0,132060042946949
0,141180163761646
0,139922967050292
0,163577690478083
0,144305332165679
0,13894712449992
0,145692151947938
0,116547588009397
0,199236030926899
0,150099511405245
0,162393640277807
0,149525443591129
0,145822524834456
0,143587269871933
0,141148620278477
0,142056055883166
0,144575553065765
0,143853375633829
0,144384136800438
0,145696967657398
0,137121846705034
0,145881488978731
0,138359588007797
0,154809502361358
0,148923391514985
0,135615110114921
0,137672889137461
0,136233488322408
0,13078258770783
0,143985938765723
0,157493259138532
0,133076907571579
0,145186199198319
0,140018948930232
0,143585054127971
0,150904482155018
0,133832923303556
0,132910486219069
0,138200841395813
0,12822654464872
0,137631717339616
0,131826895280305
0,165001762224115
0,141383857621959
0,140964246146158
0,139641567858161
0,137276056143746
0,138394611089774
0,141484959567883
0,136845890650332
0,146740220899461
0,145721610796224
0,148028794923417
0,149507739287352
0,143355765433583
0,160398956798298
0,157247090114249
0,162414227514752
0,154360436070934
0,148149264692467
0,153981956875395
0,144785695421539
0,159486443232106
0,149079891232308
0,150576724664928
0,145678632791555
0,152642253220088
0,1385547940697
0,172353022304267
0,157151938665179
0,142453262447799
0,156692521290081
0,135393610641667
0,153362060990617
0,13933677851172
0,144617734517149
0,137977948691792
0,145665429258838
0,134859224700987
0,139285012355331
0,136588189916409
0,138702286348964
0,136364965283038
0,138301631009026
0,136581221760844
0,136820820056393
0,134991205096764
0,133189229174871
0,135506438163143
0,133343776717518
0,133231351445847
0,133892888396131
0,136793602081437
0,153643076563623
0,145056305248768
0,144930008015559
0,129651677851885
0,142200899387741
0,123807970754609
0,13655955097974
0,129362549570104
0,133318499069542
0,124869683972695
0,129138212347478
0,128692149583141
0,131730591390128
0,127086461615579
0,12826219923257
0,128752424446945
0,125657839131683
0,123963010928068
0,125744184028168
0,127118343773278
0,124155064815677
0,123604325751746
0,127383763551468
0,12849287403339
0,119649582175345
0,126735422689714
0,122611841821231
0,122762771241886
0,121247297599355
0,123351269488996
0,124919200438235
0,11681457004765
0,122297429537171
0,117860819983375
0,121811065994492
0,119136136574163
0,118863175221065
0,116708094075028
0,117264946367544
0,115452211267488
0,11903714465803
0,116720023911279
0,113733871111515
0,114024300956123
0,113360140238595
0,110278166044502
0,112455978456118
0,109900850001632
0,106834341893463
0,105882100343078
0,108829799130689
0,106658142083144
0,107332992266501
0,102687937997891
0,104305351441683
0,10400183150105
0,103750201290929
0,102806004654113
0,101050362619342
0,0994625524226994
0,0999229784199486
0,0996263721712824
0,100176121272672
0,100953383459862
0,0998404218067306
0,0990757872873643
0,100433451759308
0,0982177655635327
0,101293749813073
0,101401744888489
0,100396963795863
0,102856927708832
0,103076623516818
0,103377270167732
0,104088350635289
0,103228970982122
0,103864056336495
0,103540243312705
0,104402308174525
0,104583562758157
0,105672063081854
0,104462807683539
0,107024570077987
0,105435640355626
0,106880912063187
0,10685723238092
0,11026000460979
0,108086499298783
0,109489612084184
0,106379136411999
0,107849333483704
0,109117670345291
0,108600166079468
0,106222643128164
0,108582571464169
0,108572286194618
0,10709841016095
0,10687077515311
0,108240321290986
0,108545207464793
0,108145573922159
0,104273353935966
0,107510812646803
0,109671240734304
0,106868784049777
0,105099537638663
0,107358127694062
0,106039244256871
0,10721918020105
0,104915560210481
0,106253931055143
0,103850205092685
0,103939316097438
0,103685168492327
0,104049268113373
0,102570092207713
0,101870649086816
0,101436241798319
0,100820197484096
0,101321468346817
0,101048841055198
0,0984767359473087
0,0990067955625379
0,0988854891055077
0,100264748225215
0,0971002789004021
0,0978866130352486
0,0954146471316075
0,0964210594201338
0,0942924845406374
0,0936625183540767
0,0936942941791446
0,0934146864228391
0,0919778320999383
0,0910547366554504
0,0917549608262637
0,0918703211666456
0,0924171548753216
0,0913658903978098
0,0923059776721283
0,0924038879403628
0,0920392607787044
0,0916886084018579
0,0921385493073642
0,0927005098659056
0,0913377192544348
0,0938944381311695
0,0926624961403378
0,0931386621769264
0,0934880263592348
0,0928905060456986
0,0912467766734645
0,0921663505113366
0,0896255463313663
0,0897671666396752
0,0870306086119156
0,084845415975838
0,0857738421510199
0,0860691411294823
0,083232088193702
0,0821849111844596
0,0817984566883245
0,0822960589972004
0,0806503894515241
0,0806046092316826
0,0800956307847729
0,0800422205638759
0,0786372570972674
0,0812680331810243
0,0825703401306521
0,0842071129293644
0,0862485967060452
0,0905951296081413
0,0924025101071961
0,093901688463353
0,0979350639115563
0,100977086734866
0,107414215290692
0,111869645435186
0,114956349875411
0,120648479716474
0,12757283206475
0,13420126009443
0,138240795560895
0,146400216085341
0,152436715818988
0,160272382976698
0,168972119643846
0,177774675954076
0,186365724382961
0,194694292415924
0,202100796961373
0,213141390684141
0,221325926712049
0,227490874677409
0,236500896406653
0,243269163229154
0,251139814967496
0,258189079858052
0,261316372509563
0,264939752158481
0,269227214537199
0,272607141878151
0,273713437651994
0,274636263330252
0,272002514047191
0,272626107548272
0,271711822318782
0,26902745236827
0,26646770845916
0,26395584180778
0,259328800356257
0,256357350146892
0,253618001739106
0,250856829701686
0,248315588262071
0,246412987377321
0,242318692685475
0,240695726309428
0,239904179116449
0,238523418242252
0,238587324293511
0,236910699288703
0,239902896216838
0,240333951332024
0,240105531856997
0,242430436716187
0,244866620255151
0,24649650038071
0,250648290524574
0,252527130295059
0,256909917488351
0,260756714596705
0,263401754263781
0,267108756419935
0,268850381422662
0,271929555762064
0,273207422566496
0,274857106286125
0,279063974331909
0,280020739383255
0,281445082920817
0,282703988003394
0,282827302685788
0,286526522181477
0,287621685160035
0,290175995452942
0,290749432364078
0,289653966709197
0,29215227564027
0,295381401213198
0,294387919580117
0,296871897065446
0,299419479205535
0,302252675551092
0,302983125234012
0,306177651040085
0,308873907655169
0,309752460685844
0,313655105514443
0,31421762110507
0,314786184270134
0,319197949025334
0,322304077919371
0,325322794876979
0,330078957370851
0,333279331099949
0,340287390663843
0,347855392562978
0,353407301794304
0,364580107820141
0,372856526030514
0,383761076974817
0,391498840242272
0,400960907903757
0,410095367281818
0,422437035291693
0,434302709457059
0,444257114306502
0,451005931683121
0,456976581266674
0,458381039359244
0,463839988918356
0,463205729577126
0,460804522908569
0,456481913632365
0,453932209732322
0,452756910013231
0,446613644688711
0,441188103005339
0,437420618550855
0,432009799295463
0,427580662571244
0,427912929041654
0,424502363918902
0,423517771727107
0,425699265304234
0,421471753901254
0,424470508503976
0,429811556682385
0,431509625980975
0,435349738411171
0,44670629211374
0,451537239187569
0,456467775479429
0,460620966153068
0,469652790352118
0,472164093820259
0,472979483670935
0,484653874883768
0,490033119820505
0,494430340688428
0,503423002718141
0,505305931476829
0,510465984814777
0,516261407959314
0,525980969473183
0,530681616160045
0,536685255472229
0,544258274018229
0,543474798115907
0,551918586194883
0,55968575284059
0,563082643483124
0,569304263806582
0,568966551373818
0,575508833983087
0,580059956613233
0,582961227849806
0,582864552643347
0,585280141362646
0,591783957488733
0,597215155455322
0,599131765299495
0,604013721378884
0,606641435532279
0,606872292356232
0,613459931001473
0,613894240020838
0,61046874674675
0,606935302978387
0,603939515811355
0,59536176127773
0,586157417955779
0,580333386027702
0,573009075529455
0,560592061073447
0,543053752860508
0,535221642647839
0,523070656622606
0,506687981062384
0,490950894901918
0,478024332754352
0,465590304847388
0,449352679208116
0,440462931066107
0,427638507196619
0,414209374548873
0,40868294963459
0,39368058096414
0,387285452554802
0,381121401845202
0,3749305020747
0,367720981909505
0,359953241650049
0,353051901312033
0,349818850829649
0,341503728481732
0,331427057905817
0,32880332654898
0,319988021044981
0,312731767731664
0,301216254485612
0,290674608076706
0,281110882006471
0,271982296215961
0,262180034485453
0,250166048903653
0,235956284834661
0,228014131581762
0,214676867852019
0,199765702444904
0,190331332131822
0,181506856044416
0,169802911160799
0,158023451479769
0,147898072843076
0,141448596226811
0,131493253817816
0,127374183088714
0,117853254847646
0,110870544674534
0,104590802410362
0,100361725962706
0,0935502131601547
0,0894333942840254
0,0865957716948715
0,0820849339103143
0,0813037932740337
0,0777638546971281
0,0738501223002612
0,0735792004675861
0,0709987786315958
0,0686193660023154
0,0688498551998704
0,0653032191835395
0,0641620637774231
0,06576216171207
0,0646960526932412
0,0644295220578175
0,0625965879023658
0,0609284506969582
0,0637076709447347
0,0643390187983209
0,0615107247404672
0,0631530258857795
0,0661349954349754
0,0685532262648886
0,0643098610620615
0,0659793530471532
0,0675062863162992
0,0716955762619789
0,0710701612513676
0,0719797365740981
0,0741724549162894
0,0778978061992962
0,076394313101609
0,0804895734571039
0,0799417971021096
0,081937107914804
0,0813649961119181
0,08108214097618
0,0819307647246271
0,0845751120698118
0,0821006432702936
0,0856475592572698
0,0866139458600662
0,0864582524370086
0,0862430521314501
0,0877309982269911
0,085410599494881
0,0883820838887242
0,0878712494020373
0,0877745711343731
0,0868237301216599
0,0913116261183508
0,0911309866835166
0,0864668232332813
0,08773519493146
0,0885772884018921
0,085147337315794
0,0890342699664298
0,0835079479290317
0,0856666721873876
0,0867266107445368
0,0838138778225981
0,0786954083398942
0,0819475974968156
0,084298120506544
0,0813190618859701
0,0786617775547597
0,0823812743751427
0,0814693821585619
0,0819619095684952
0,0786708599317564
0,0818872697055674
0,0813859390699171
0,083797517206533
0,0780968780831567
0,0835715556245569
0,0827569087610474
0,081664685565616
0,0835222204720416
0,0893973997822608
0,088881304278796
0,0873287396995427
0,0903120174230853
0,0942087131064225
0,091570659239804
0,0923824942972434
0,0896054045774275
0,0913968906244426
0,0873011860077625
0,0833220172054432
0,0840387938032069
0,0846155090012574
0,0781714574823243
0,0797116853648497
0,075872531702552
0,0792157375851785
0,0751530963492358
0,0763822597913354
0,0750772503166715
0,0771580365760418
0,0754115772700916
0,0748687042274694
0,0758887500938011
0,0753456558866326
0,0794187502122465
0,0799820761478139
0,0759855889532161
0,0773911085328005
0,0769543213699857
0,0786753358053009
0,0800898879216798
0,0803617826677606
0,0780532358757225
0,0825060628421661
0,0814465924340059
0,0811427113181119
0,080379516525851
0,0876297784679232
0,0803900419268058
0,0844359537262463
0,0843075420168821
0,0828045061214938
0,0855190241528202
0,0861980226341864
0,0816164666566459
0,0857323265005609
0,0845292028216522
0,081855009166402
0,0849368287434038
0,0854923589169154
0,0823324718277262
0,084113674306564
0,0826133477695726
0,082289522741659
0,0749205981829739
0,0799365153373959
0,0762841123288978
0,087255494328508
0,0741152643698087
0,075929260992414
0,0762518055230465
0,0706166025686823
0,0809060192755946
0,0730404441617387
0,073228722702937
0,0835999061657573
0,0699769852812934
0,0679505900865797
0,0695638058250376
0,0675239107878766
0,0640748795439235
0,0668092443625636
0,0668076562685976
0,0734216474275121
0,076288584906908
0,0680533230376548
0,0700244978837377
0,0675824526714575
0,065491707335007
0,0665954822527679
0,0611882539713613
0,0643171479009132
0,0695578583463692
0,0702228031613192
0,0560211697247102
0,0711683264451385
0,077360902116236
0,0696959385415493
0,0675171697506215
0,0725641796278531
0,0689800195903681
0,0784095077584269
0,0741061296333007
0,0738627618463396
0,0733926119249021
0,0835996122443979
0,0790715874689842
0,0815136863836332
0,0655296161177415
0,0874100452858207
0,0744008354825142
0,0787818201596531
0,0824105479506289
0,0805498349572598
0,0878472409587028
0,0831200417847266
0,0833344895921208
0,0845932963568148
0,0986555867048237
0,100596965444362
0,095839129239699
0,106000898492416
0,0991908585421647
0,100765413718536
0,102091044607826
0,105848975207069
0,115144762743779
0,116090854952919
0,107657071337782
0,117795083886157
0,117515424209596
0,123985221533696
0,123653902143451
0,120163560705531
0,12154487894189
0,115615633243544
0,120994157028628
0,119491612073667
0,115661401966866
0,113543325246507
0,10901432944766
0,117247879957641
0,120418517819928
0,12097622021483
0,11893563079155
0,12422208824017
0,118588752149076
0,122415050451785
0,123599686558097
0,118988911026201
0,127668203584113
0,13245386899755
0,125345654180351
0,130017623865565
0,111025062366097
0,128278881180682
0,133566553441808
0,127515682396925
0,119521245533699
0,128849882801079
0,122595536437089
0,102975934237416
0,115519961672355
0,130388743341972
0,114131007807198
0,122780792541174
0,125494337808847
0,108724190849731
0,104939668103888
0,106738508469227
0,106650540771917
0,104246527790622
0,113722182255155
0,115352028292911
0,101509907130048
0,108513461125731
0,10833515166399
0,118280634089137
0,122856650120584
0,106233809146788
0,108118411901105
0,116571099445006
0,104199658548835
0,105426360452698
0,135216253977226
0,130170081422742
0,0994908325534317
0,0921171624862903
0,114076256357599
0,130136039673475
0,127702785038315
0,108274658099711
0,118662255631249
0,118229638780081
0,127077772298863
0,103077967483584
0,114683755068463
0,118716854679315
0,105967945146525
0,126858035169875
0,120708006592286
0,140304083097761
0,123957850223013
0,127112638458615
0,1407024668018
0,145698490018634
0,144146261821662
0,119260638671134
0,144348265877454
0,169055756145583
0,1302664469191
0,162220882552839
0,175363678519342
0,1534934827509
0,147836849682524
0,162486206389311
0,134977812920748
0,156337546167897
0,151595509786591
0,152852912912635
0,112478471407668
0,164549073292258
0,163037453603789
0,171579733081493
0,133227572678856
0,157539363830298
0,145079662122933
0,173309631385582
0,132860134571091
0,152263919778272
0,192793050621073
0,157644643361344
0,127680000767224
0,135553648238717
0,143886180634763
0,182769822831572
0,118275484412116
0,129923358743653
0,209864086738463
0,131853199027293
0,183005181324133
0,133907412166758
0,122310999121161
0,165790997249286
0,13873217904053
0,136969926300752
0,162636398985036
0,144076426478467
0,180197958365175
0,142869275193773
0,193485902089894
0,130072753593509
0,125518801397564
0,160515675419041
0,151657862484798
0,0638501250228661
0,0665109059886187
0,0403609552435962
0,153956720936695
0,188232364623704
0,154178047488871
0,138169978001651
0,0840880017757716
0,183804232660183
0,137587154262264
0,181402263836561
0,106400611783702
0,10442803079308
0,0295145359260173
0,181818462549755
0,206495229088571
-0,0191224747542872
0,115259816619229
0,182830742458293
0,229352669494246
0,309112897986183
0,317465414250393
