3596
4000,36533379555
650,420452594757
1
2
2
0,0589593865929863
0,0635923052182863
0,0578088953671731
0,0603917732307689
0,0506621453458992
0,062213933763933
0,053692758173185
0,0586804818788765
0,0516805311559731
0,070799562184747
0,0670303081543262
0,0641464930683898
0,0553889192376828
0,0610206230789898
0,0571211386847715
0,0618293275382637
0,0602546176751043
0,0678404992545774
0,0661608568521756
0,0613939446612253
0,0520949452494125
0,0607321709394716
0,0552174653235076
0,0576242102007479
0,0604440810243746
0,0609449522004477
0,0507082272184477
0,0605002948907737
0,0621247676604372
0,0639718540996003
0,0570202724926888
0,0570696094262289
0,0557220412481683
0,063816192900092
0,0556352585545396
0,0638325628202887
0,0534776829406936
0,061738654154195
0,05773581533044
0,0651222109690486
0,0610777410261572
0,0678791474733012
0,0586322346745687
0,0643451417092025
0,0614204943906584
0,0625919613688409
0,0568894077931903
0,0586943710487006
0,0562879762784211
0,0655070187094696
0,0607074417867698
0,0637423929470939
0,0558898856862234
0,080701016702075
0,0624357496768332
0,0749857429028601
0,0608251431599244
0,0605173757919675
0,0547230328153495
0,0678461191461181
0,0692475348759754
0,0787872803069192
0,0630917870979001
0,0640465766048208
0,05403589363631
0,0619653485213941
0,0524057687898797
0,0475876764311821
0,0567047878628775
0,0607001167869251
0,0537958734966775
0,0776829648723208
0,0780645112457937
0,0660600828253171
0,0625641257897877
0,0694424016878992
0,0582948097017159
0,0557697059501336
0,0493828936427576
0,0671298816006873
0,0746602310688296
0,0672716613916337
0,0564519818045089
0,0542788237117272
0,0511601320629704
0,0730714090746278
0,0601643563125342
0,0493190578967981
0,08877461680894
0,0759959603003951
0,062308101185665
0,0561748977465616
0,0551163525872075
0,0567485837502445
0,0601159804536698
0,0535234201226514
0,0550111219086637
0,0515859636208045
0,0558784038771547
0,0578313483900466
0,0591164500193366
0,0741913037953005
0,087823344846899
0,0689778532013716
0,0657014195540222
0,0881000789041906
0,0385618841115278
0,0989068702827547
0,0834186835597011
0,067105513703033
0,0627988289900055
0,0541434250772017
0,0581978579048443
0,0564701524106208
0,0493982032305927
0,0573973801906594
0,0974565899175971
0,0722297698292187
0,0631091054525683
0,0581905965903095
0,0368558133957268
0,0699912729709326
0,0996098261293768
0,0690011982133454
0,0633369680101929
0,0601857306846029
0,0400548667964618
0,0818666048299648
0,0952692708626322
0,060317729137826
0,0561640964361876
0,0618727990003582
0,0385342849781372
0,0485549138864348
0,0928159351732718
0,0792361291635417
0,0488011215141859
0,0517382076090097
0,0508381508762262
0,115003851250204
0,0802211552259687
0,0628977155818003
0,044572026234462
0,0517810200692815
0,096882865540076
0,0785904277253149
0,0482605271488555
0,0724634161673753
0,0750945820511455
0,0521625119945874
0,0462120609195437
0,0523081982854797
0,069776260550126
0,0581505884697254
0,0181462896656436
0,0539803291501157
0,121503748107282
0,0898479882475867
0,10549931368568
0,0867266268182655
0,0455588712486158
0,0685838041371931
0,0541860214924358
0,0544475825315977
0,0408370417252533
0,0544901331433122
0,0580149498128695
0,0782674360577439
0,0481019169188563
0,0637858481091416
0,0917319017187763
0,0745397281076648
0,0393300407690313
0,105802059175689
0,0890154037441001
0,0464226370463066
0,0851140557487067
0,0763091753370639
0,0460100087329392
0,0564249236439148
0,0770076327935645
0,0630167469146644
0,0520457626051808
0,0526490391361071
0,049995031502503
0,0772504265604452
0,0621516657651636
0,0641704847451294
0,0510350762166959
0,0409157376715087
0,0429255986232286
0,113592050270664
0,093658666495097
0,0788655770104665
0,044065296522477
0,0335261638888168
0,0550328121514823
0,111806911360169
0,0596394226143116
0,0494813743264477
0,0431761056752699
0,0504803529383304
0,0469887605558595
0,0526362387700023
0,0380312579713697
0,0365414030085203
0,074793881012168
0,0973151085956082
0,0551225882171531
0,0537185864893151
0,0350901618209331
0,0521697791142713
0,088964470513714
0,0995182831860621
0,0605055348607238
0,0537311876885695
0,043676888798986
0,0701624157946029
0,0709388200650994
0,0609615407072894
0,0511929988384312
0,0576340830428875
0,04834334704825
0,0537898980721469
0,0462914273294542
0,0525677917066847
0,0454073745567381
0,056144602407829
0,053895075983541
0,053370493948592
0,0636732864605628
0,066731512455478
0,0566001580718455
0,0561717594229324
0,0362400735870386
0,0636520511445122
0,0771386974894772
0,0625878642463741
0,0557801527212012
0,0627053010494827
0,0450912617168451
0,0521539287729756
0,045644994036984
0,0605046568515872
0,0337176260741257
0,0515019932758267
0,0762472116843573
0,0820534571892571
0,0437579366304463
0,0556618412626984
0,0500169206250695
0,0800700203008433
0,0513684972780833
0,0600455287155734
0,0483196277835133
0,0501202678651137
0,037246963370936
0,0889830906299859
0,0636841791831168
0,0503404661622303
0,0633612147591099
0,0691558696347144
0,0543349244065563
0,043722963253338
0,0336201240230531
0,118950901281192
0,0748629193067024
0,038814795510223
0,113924448468381
0,103074847242823
0,0626662808627834
0,0512784885839107
-0,00279229115469684
0,113824934630189
0,154043382048203
0,0702425025496278
0,0515044471998039
0,0679965124795555
0,0551501393487079
0,0456139185657269
0,0583976980320015
0,0615320245399949
0,077544075447391
0,138098109223421
0,102519718654076
0,0698035879171378
0,0563228966538591
0,0944948756399066
0,0631318992090712
0,0633148173625674
0,0502361882713753
0,0555455340677554
0,0497092510404146
0,0769521010927578
0,073952416286644
0,0651520200190829
0,0600903081179544
0,0828602002073881
0,0732144790205173
0,052509194861276
0,0656412372038124
0,0684058814016496
0,0668503494100838
0,0504509680620417
0,057941451524761
0,0648224699672485
0,0403908651045658
0,0453128512418218
0,116088592360112
0,0780584489383091
0,0581788123655847
0,0918837594435416
0,0792940740455414
0,059821738661716
0,0628495080662801
0,0529795884654055
0,0533742927007242
0,0485654434318372
0,050232203266525
0,0766417514057015
0,0717626324414685
0,0560392732895253
0,0575571078125518
0,051980431007201
0,0555495451433342
0,063552834175068
0,0516586990334357
0,0585002940518245
0,0544866189112724
0,0466405249289463
0,073485877707276
0,0911982260030142
0,0560097019286877
0,071251407031858
0,107779381671248
0,0771377730567672
0,0620392551536538
0,0668030287744121
0,0587311184629637
0,0607868902800006
0,0601621527477212
0,0591011203199624
0,0640746789544207
0,0907144948284865
0,0612731588891115
0,0558354788827554
0,0531270723479361
0,130006539033113
0,130230951550331
0,10028366262088
0,0647736801493456
0,0516403320675417
0,07622366137953
0,108569612852663
0,0889342896951586
0,104536421302454
0,079888388362028
0,0655768407299692
0,0783273204666007
0,0684635612696932
0,0748104238284635
0,0711892622777244
0,0755338615183044
0,0718605856551343
0,0740903713133985
0,0834290289360746
0,0671394380109776
0,0637531430780918
0,120774192071803
0,0995521678440105
0,0814834093513236
0,0770162078805743
0,0679077873319054
0,0891340429211889
0,125759661768007
0,120199515520291
0,135748856650735
0,134907991682989
0,139316303391052
0,117327937821139
0,0912195564617067
0,0927121948682836
0,0941060798855323
0,109082139076515
0,097990092094556
0,101865709344011
0,0916638751968421
0,109158673648989
0,109197777843768
0,109580963404665
0,0950816086990102
0,100840524478169
0,12550420775896
0,130148773148858
0,110720512312266
0,107335247163538
0,0958397184847693
0,180647118703637
0,173060974161259
0,134412973933946
0,133250118763965
0,126767718901057
0,11569964567059
0,125892358251684
0,13374864146809
0,131040924112812
0,128192058016501
0,165051572777254
0,167031573530603
0,162888273161138
0,163285298478097
0,151398294680436
0,156766508894354
0,150099329637756
0,162147831345062
0,194332915836228
0,162844882889031
0,147397462806247
0,189843056456408
0,180909155348038
0,192330329816265
0,183891205835367
0,172277443035804
0,176175707987918
0,166110560857861
0,169673566744634
0,16888976104742
0,185767501068899
0,191488275299052
0,180578438669409
0,190602932445267
0,187409480261637
0,191652950159308
0,212274459454272
0,20019533218797
0,214105709914795
0,204749088003405
0,204313044327296
0,201072657378201
0,184843634672289
0,219840143420246
0,238360897925426
0,23461795304507
0,247950384814828
0,228888126040884
0,214246157240003
0,227662343817892
0,21681103053244
0,225063673601749
0,232365991298371
0,24916003066588
0,23345813812751
0,238103190458952
0,251058165446282
0,253554337650545
0,247456770324441
0,253477310244735
0,263828154031782
0,251061786437714
0,269650274820905
0,267765083900883
0,263492314522345
0,286234118280294
0,300358559334343
0,334321862186959
0,3096950669064
0,306675644769716
0,283868243635846
0,299199795273855
0,28235684493835
0,309994988771101
0,310452797346512
0,300165752269168
0,297861660462484
0,325522863403159
0,311765363643952
0,32028564633685
0,330174499238753
0,338855358981653
0,346808400104481
0,349532522539894
0,340634785205453
0,339534602218735
0,329810395643221
0,346161040014972
0,359421248422492
0,34911308992012
0,371888034333063
0,385973261800486
0,374818367643086
0,375583790924632
0,358146495413851
0,384831147594962
0,380331599408286
0,383876523906857
0,372793873988539
0,388179534490447
0,391969206273371
0,412722321265051
0,399258378800959
0,426916490937451
0,409472507462653
0,426467572249789
0,413662551579674
0,42006355486195
0,422611555812533
0,44870645422901
0,444135063143492
0,441794524541797
0,43084027141586
0,474370696847295
0,464086203727795
0,475301857118593
0,461886503753412
0,47228783366263
0,469195194544093
0,455417570323293
0,460105244595966
0,478303595030431
0,478468547212438
0,481419926529529
0,489305540922313
0,495179968323125
0,49888783837435
0,50936467210577
0,525301955238763
0,550783550040548
0,519405324488497
0,526920305936967
0,525169358168518
0,518003740043069
0,519967539032129
0,535993694563755
0,547779405035864
0,549024720262046
0,541212916848158
0,559031773824952
0,552609455428673
0,582605779303721
0,570768195241004
0,581672456724064
0,55435303527503
0,565724303552038
0,566472559044081
0,585128174371727
0,586146218788246
0,598334182740859
0,587900295396525
0,616187868815354
0,605509662300138
0,6228779443363
0,614249271131222
0,656654981925117
0,630223236337995
0,616023719385674
0,608599918959675
0,664745438852391
0,651365167491601
0,649863214559497
0,655367639899323
0,665567124009043
0,643751896127834
0,679098744330881
0,664311423769828
0,700894814805759
0,672201889437475
0,681749767686323
0,658878764946723
0,685439301042785
0,676939860956298
0,668634825133847
0,713746305617634
0,754997174775373
0,717885013312725
0,742577211182724
0,723758042628498
0,749070390114498
0,697837382860472
0,759445998928607
0,743044747665373
0,767562397499943
0,768164882922403
0,78391943693809
0,762267683596402
0,757946863958752
0,753431563005253
0,806355742956772
0,749695379386497
0,820197711179099
0,785837879568548
0,803418882400548
0,801379093274173
0,786630841835787
0,776815162218051
0,785690523629851
0,770971767324874
0,821587519680202
0,776432096187106
0,831905185864056
0,764525093071151
0,811822969816407
0,790424789968174
0,822088476487861
0,776104965382394
0,906216807172285
0,832418686500573
0,884864826521938
0,847075619189298
0,893322051784908
0,84065201809476
0,90688984575323
0,864726184983985
0,882889313023656
0,873767516130028
0,890225758139618
0,90362409810222
0,925988298602211
0,886695611686019
0,890451675430991
0,856311839358167
0,956089255840291
0,881054697947799
0,956410725112169
0,860724054588389
0,91162817275941
0,894485683246165
0,948787601468885
0,872800018387544
0,924033547821754
0,938024424736547
1,00788876089091
0,888867141882577
0,945115704711803
0,94770806480978
0,996322258347973
0,949424792004211
0,989748830768593
0,967825192972681
1,04034314982439
0,915098191291857
0,934468551117746
0,927818227626665
0,983607831883084
0,940573268708869
0,993529846967214
0,970640842795428
1,01930099522189
0,935369412008477
1,09169165339966
0,993741317989516
0,993510812125981
0,940039227591125
1,07230944988544
1,00241585120664
1,062404239848
0,986896433940545
1,03430490629491
0,995860535507874
1,06158693661885
1,01247400898636
1,07194649435139
1,00479156366878
1,10203545029027
0,971513893484303
1,05985172882127
1,03248199776789
1,08352810733025
0,976222132308938
1,11116401036963
1,05142194591909
1,11249476823132
1,06046164433533
1,08422255962825
1,02144776924623
1,08680518167832
1,01603969834558
1,06454354183806
1,03978856712269
1,05267972453485
1,05242713305612
1,17703338220682
1,12385822985899
1,15489915693327
1,03492489510196
1,10561256981229
1,08085473013583
1,12620698950704
1,11013855641177
1,11767136576242
1,05125862354114
1,08629537062996
1,05232369331804
1,09671691909521
1,09235968639695
1,13427264226151
1,03893654060154
1,10637526984578
1,04864271981197
1,13450188528824
1,04932105294741
1,16601896791652
1,08820979945342
1,15847481871579
1,06689935364831
1,09564714875927
1,13083043533662
1,15256051801854
1,07572013151584
1,10924047475718
1,08514787052209
1,1419214115015
1,1066583911923
1,15324152945334
1,12118989660335
1,1247813630978
1,16851648808417
1,08896670377362
1,09783595756429
1,16152094085928
1,12644452046778
1,16086606059869
1,0539925169542
1,12427291529113
1,08931990004814
1,1388520324934
1,08729182815956
1,14628759749863
1,1276044314133
1,09601097365258
1,12246435152579
1,21435619478935
1,09170930575975
1,20766478997285
1,10355377209382
1,16028652539129
1,10474834872245
1,17992932818915
1,10678571231639
1,08807838708621
1,0563331241816
1,0433528851145
1,03168920577419
1,11020596344504
1,14210543932461
1,14449976155349
1,07252725042612
1,20187362418762
1,16639635744668
1,10686506233317
1,05904426084511
1,12646353471285
1,07320763329294
1,08021532087981
1,02856354149412
1,13949440973008
1,07352281380071
1,16158420208934
1,09211369645968
1,18296087869492
1,06665965485412
1,1865282570995
1,04241837921935
1,17753893916343
1,03040352449573
1,11197965125164
1,06303217836788
1,09899748421751
1,02448957052171
1,18069838600799
1,04241195118501
1,14684951016433
1,05143987138788
1,09270898932562
1,05072675438252
1,07289580266454
1,07648957577167
1,06985405748779
1,06972287606957
1,09061805549711
1,07338827342529
1,11903664797403
1,0716842502106
1,12355655880977
1,03835013152444
1,08267373495192
1,04844805180067
1,13918028718969
1,00382259540939
1,07760176172624
1,03813836867995
1,07697942497409
1,05486340215337
1,09397661930675
1,04566862930661
1,05105439960433
1,03535811925156
1,07243880593013
1,0219264048576
1,09355015665056
1,02731398682592
1,10324088145627
0,998150933890493
1,09902681390879
0,997010225540649
1,03138773130601
0,977343418363683
1,02024043363872
0,996945999461255
1,05612901060856
1,01656843027537
1,10842485354391
0,990000353745551
1,02760496579311
1,0044142139075
1,02581995908016
0,983116033506538
1,0051382951571
0,990286935754317
1,03094386352719
0,931133196453836
1,01683601226017
1,00017258256447
1,03783207303365
1,00012386135514
0,993085198941057
0,968237011932214
1,02492233374627
0,94783219812355
1,02518203564289
0,961230578314589
0,95262593729806
0,931813428392606
0,967842527783735
0,949264748261566
0,952940300672164
0,952070130969828
0,983081123565056
0,923115471122079
0,980262786213557
0,941508911444285
0,991140976952465
0,910020156495893
0,987323781175771
0,915250401194332
0,938734609606813
0,918539474832607
0,924414126687568
0,920858814742119
0,957859430710418
0,912965654064417
0,904481660654752
0,914631366240258
0,919998834208985
0,891537929076062
0,894623049865448
0,89898198486667
0,893603390904378
0,900111138740297
0,886235471489488
0,874947671706836
0,917692278461912
0,850497705019373
0,914790613436709
0,837480949323714
0,871298706736555
0,846987122071914
0,901802055855335
0,843135231831956
0,857622896561332
0,819980206795232
0,850588656713677
0,843728073557824
0,83045315179387
0,832110108447946
0,84311202001244
0,814467967876589
0,834377997774153
0,795312815146007
0,813947645109148
0,783002761111256
0,821133549930964
0,816660258858315
0,799019541334447
0,775864161147251
0,817373757438712
0,770680446110691
0,792690382614875
0,75628853092703
0,803617736385872
0,773551221704023
0,748770118528725
0,748359552497068
0,756879361869351
0,747676569366392
0,759875192020096
0,734032590225393
0,767683455566052
0,737774385722218
0,757714034460406
0,728538416935717
0,748878905679991
0,725815110419271
0,714493822572436
0,696616365348365
0,718980461931109
0,691808729312398
0,714747662822424
0,697266134148723
0,69540468061676
0,691428104388547
0,698527605502965
0,684897975011758
0,671129038679691
0,66034750391219
0,669642003429105
0,669448566795075
0,678242598220315
0,661205959421164
0,671306034372258
0,645147717622202
0,651209681370115
0,648267143699189
0,643241401159666
0,640310440170913
0,65267045348146
0,635636940511503
0,646624496285859
0,6231785738664
0,635330950097687
0,622419826257542
0,616707058811722
0,610985089365886
0,604820740790587
0,599093090960057
0,610104577724971
0,595018442281626
0,603380541469401
0,585346032243209
0,586800520508029
0,575887662870079
0,585085037368762
0,577083578483275
0,577963848229545
0,562501594404425
0,570157743784129
0,573081784320049
0,562968727998022
0,553536999195364
0,554155726499567
0,537726676586715
0,56430883894007
0,538437720962005
0,540682101574928
0,532651357455459
0,536977370217688
0,53185031430997
0,523799449292565
0,524799478504229
0,518180423748876
0,512987291953404
0,530150300670393
0,515886896173994
0,522292222890885
0,513134066883039
0,503858165854149
0,498231744506577
0,50449375805187
0,497567568700807
0,4940245342184
0,496653312395362
0,490750296807105
0,478311349991036
0,483510370572522
0,471255476422089
0,480084706180328
0,468621625015786
0,466167880161109
0,470431048880322
0,469026902939015
0,4589490309875
0,465264780856158
0,452910194171149
0,453904313266822
0,44974977589313
0,448096975948939
0,440116138713198
0,446493491197921
0,449265020901483
0,438526095058359
0,445942014976063
0,432380720239627
0,42244499402639
0,424894694136894
0,423575669215858
0,420208837589211
0,420552000051032
0,429184640707537
0,406467128728143
0,412035721041163
0,40092605386563
0,409843293320111
0,403460133613081
0,407218441116919
0,40314475228821
0,404852289050549
0,392729053094666
0,397391408421678
0,39899988035661
0,393768884964115
0,384838562697436
0,388064979087757
0,377890380769429
0,384532538379363
0,376911771233718
0,380850708952059
0,377975730124311
0,374232122325953
0,361597197654951
0,364152324572995
0,363848502065195
0,364627940157634
0,360199989523897
0,365430480674624
0,356284313753608
0,360638749195017
0,352792279068173
0,351954047148439
0,341642494150192
0,350342774532935
0,341558862638324
0,345881427309669
0,342630504433597
0,345284924590466
0,336167578610046
0,335685495848902
0,330456593634532
0,33325719559087
0,322861762736861
0,335300391132402
0,328044578293073
0,321012470225752
0,325050888233267
0,322566615302519
0,311193782914197
0,316725179143667
0,310739055919461
0,314590466667736
0,312061362444097
0,307506706805839
0,299540668009366
0,306629061516942
0,305019104991608
0,307031581828223
0,296249713425044
0,300125731970483
0,294505413927688
0,298910451737403
0,295278641157444
0,296570945863969
0,289240267120911
0,291920843675803
0,286453736669216
0,284933195139194
0,28366831361213
0,287262117628247
0,283519621041538
0,284221243846074
0,285531889432365
0,285690355418131
0,279584705751019
0,281498121629589
0,282706082745697
0,277895035046789
0,282602054260027
0,279202999729139
0,275429517051093
0,277310666485969
0,277031860266356
0,28387078789376
0,275909912412809
0,283002236188293
0,278618739864382
0,280010777662194
0,280507067037107
0,284507569886499
0,284394114547288
0,283939130344374
0,286142379776333
0,283724278496413
0,281314104343117
0,284346065453177
0,281812551277117
0,285476313072733
0,292929561635866
0,287697940430601
0,286340801357438
0,29066370189547
0,292878798461515
0,293901868556521
0,294864021514861
0,299885847499221
0,300399497992445
0,300372585542766
0,298443528922592
0,299577013944492
0,297268376158401
0,310366128860575
0,309522697656731
0,30330275737952
0,313138472633808
0,312670702060661
0,322948493693526
0,314154855943674
0,316354149604141
0,323402136915887
0,326522529226908
0,329014822683231
0,321322689247995
0,330347143423887
0,331588778580011
0,339054156399364
0,332739825525111
0,3389453177909
0,347151243366161
0,343977005642476
0,349863364388411
0,347470661400368
0,3529360037911
0,360589600401511
0,365459665612574
0,36526102260809
0,375480035407672
0,368150882469969
0,377122510042799
0,372725595802135
0,379646201631398
0,394548814799449
0,380838487848382
0,384736891579263
0,395412138107924
0,39888412408072
0,400528415439971
0,411738831524732
0,406436193091065
0,40453505965566
0,404000367353212
0,402192180138436
0,403638204379752
0,405810871789403
0,40621769029301
0,41823895574513
0,414942994670588
0,416770233194649
0,421034649032832
0,412421454845578
0,411084664237753
0,413799275562974
0,417097814905489
0,407831051745195
0,411696706298016
0,411554915723991
0,415135879407939
0,410000227867485
0,413342970105211
0,406809246060009
0,408168702701874
0,40540373391137
0,40423491782386
0,413745861176429
0,401463843308767
0,408158704256695
0,409874436289453
0,4100293610255
0,407278459285751
0,404492181170549
0,405803396215557
0,405714475923408
0,397718736824103
0,409966515463798
0,402657602784458
0,406022300667798
0,40143580596071
0,413264259966802
0,405282935976484
0,406924685194379
0,417528676799226
0,409577854507676
0,403479547565945
0,410039855730153
0,409832909558816
0,40571741674747
0,411819104898778
0,406108837210238
0,402166478464196
0,406484759112718
0,401819081855562
0,402554989416585
0,408953574261445
0,404469397803717
0,393729022126033
0,391401837112863
0,401812394697907
0,390485872620765
0,390273040094785
0,391529142660622
0,384848407283972
0,3866592889297
0,386786925726695
0,383570371721095
0,381342925774064
0,384872147681058
0,377133427856102
0,377289343254732
0,373006550897198
0,369259228327288
0,368841875913992
0,366127170529932
0,360943363817372
0,364364835312385
0,356898887270621
0,350401839144109
0,347119352989743
0,348903996734921
0,343773436823607
0,350109512079881
0,342658724139236
0,337838808670251
0,32776481575321
0,327722871767736
0,334477156664363
0,327225365292461
0,318294594326711
0,317448186092628
0,31729380821005
0,313193631142003
0,311325080507783
0,303469770745756
0,306616370652558
0,302232877677298
0,301510845722981
0,295885409139761
0,28777047964909
0,291099317433604
0,287191095816741
0,286102368097482
0,282972975101915
0,287809564888991
0,280008393179051
0,278739786527039
0,272987822138254
0,277342022374911
0,276476246921235
0,268416996348059
0,269170398966415
0,263327292023178
0,261806487028441
0,262638232784002
0,260990441895562
0,259758574212795
0,256488409622487
0,257206074427406
0,257862417002538
0,257541231726156
0,252698993051926
0,250701579567257
0,251544036408064
0,249704713046779
0,248551527969372
0,244713330250616
0,244198681933391
0,242523296535199
0,238333325634452
0,23940314503861
0,242106233286209
0,235930463327057
0,235421987748491
0,23443082167224
0,234037330086569
0,233137736781134
0,227255753429048
0,22900077820522
0,228305344281785
0,227513709628665
0,227427237458816
0,227329197235127
0,221301690957177
0,220505056655288
0,219879113353696
0,223590140635283
0,217755566209313
0,215103991334822
0,221889035886189
0,217633542984322
0,215420680959786
0,212332950562083
0,212958847466391
0,215141025779563
0,208934980988492
0,207656610938196
0,206460936429585
0,206424337524528
0,20516283907658
0,207548826767107
0,20454778810844
0,207781675160544
0,206146441557875
0,208079534314443
0,199683083792233
0,201261444480148
0,202935806890712
0,202362916393897
0,204922321795122
0,205346058368574
0,20292610750652
0,201257018359748
0,198535537924915
0,199421166774199
0,19667660505974
0,194896928415403
0,198135247858394
0,19740408675209
0,193769247642785
0,196607833374319
0,194194131927248
0,193151798467758
0,192073566577407
0,194800943201843
0,190994648784167
0,188303973901582
0,186569562337427
0,192025781794182
0,190474147368229
0,186418315633618
0,190331254265903
0,181707535899938
0,181131642676279
0,187130143073158
0,187477365216529
0,186551646072054
0,184134287972144
0,185852042579314
0,182071795631547
0,176256441127507
0,182277982729025
0,176723085356111
0,184724709082781
0,181880389455247
0,184981735792744
0,184724251244554
0,176913517162747
0,175789127126159
0,17815617103015
0,17677255100018
0,17964839580071
0,176385386120536
0,176977675872907
0,178945404678235
0,175887632697896
0,172543612381153
0,17667215885554
0,178177727990989
0,176448691569429
0,174556991071391
0,177229790863927
0,176853235696892
0,177223424213821
0,171906339265741
0,170444623023423
0,174622136915201
0,178541320280906
0,17021263800898
0,172254827764342
0,172670137594153
0,172337841491217
0,174343836404579
0,172139591312907
0,170921332957691
0,169425907319269
0,170186483624607
0,173645593161948
0,16961125951641
0,167777670329044
0,168174148913294
0,170175550356831
0,167603599889227
0,165789370443496
0,166989090831417
0,168912912572219
0,165066214810389
0,163899704437287
0,164075949507256
0,163489996607098
0,16362157565179
0,16472071005174
0,162258822560628
0,163186112632242
0,160869851287964
0,162332784812243
0,15824365186045
0,160893534845619
0,159165332442784
0,157907155564812
0,157716334896522
0,157272882880611
0,156601423888317
0,157767186794923
0,154365477873946
0,156459523763025
0,152086530705555
0,155539891905967
0,154316528367445
0,153334176379967
0,150497757984826
0,15024523488644
0,153207115370618
0,150108641962566
0,153886381313795
0,150977132170363
0,15053759945831
0,150891937714458
0,147839457540564
0,149433018252055
0,144660249582126
0,147449011467311
0,146130570468218
0,149673489738496
0,146363914635862
0,14755772430647
0,142238355631915
0,145004626144438
0,143425353929668
0,143104820127636
0,139981475148027
0,140085741275698
0,141416063771492
0,140252811436593
0,143096230225189
0,140195915607808
0,140772869261692
0,14181342958348
0,13757721560662
0,139785078605123
0,134348515448484
0,137471836362116
0,13510380791234
0,136620523716277
0,130826089731098
0,132648706818701
0,132143298937743
0,134572114959649
0,132548832797731
0,134033775490769
0,130051080820294
0,127351570995731
0,127528796845817
0,127950649624154
0,127201420174639
0,125348576585163
0,125631775292482
0,127030335839095
0,125187785320854
0,122732286353114
0,122377243858954
0,124940627669843
0,120206163175457
0,123530777239947
0,117794282654598
0,121035133739437
0,1135640766503
0,11784858098399
0,116126852816395
0,119591556578219
0,11804851051965
0,117326936867487
0,11436479561179
0,117681239266582
0,113574778740264
0,116169777042704
0,116899764839257
0,11736833248934
0,112738771263137
0,110590009200094
0,109158719940107
0,115314483241857
0,113305209264222
0,111084496583679
0,107768894124761
0,114019775030063
0,113073381642232
0,108945797630089
0,106677964862643
0,109748371873474
0,107143625380429
0,109693086386017
0,110880845337108
0,109905890093759
0,107545545345391
0,107777513261209
0,109584771651122
0,107306341125937
0,104324381197087
0,105128979684238
0,105893385078753
0,107538862074994
0,102557448493849
0,105765707231385
0,104771546879485
0,102964916780669
0,103430978098414
0,10479974128574
0,0983825953844007
0,099658473909792
0,101202535962471
0,101042324704252
0,0979453386943031
0,104717809870159
0,0998004922839571
0,10030004909746
0,0977126183589264
0,100093034010741
0,0964735520930314
0,0964427111188567
0,0960750383369861
0,0985883939355299
0,0968300142580446
0,0978871551021431
0,0950989474959614
0,0990153275668428
0,0954451266694109
0,0958767168795477
0,0908494821085315
0,0960674042109237
0,0927714518363982
0,0952335436454333
0,0954743807976122
0,0939922888897338
0,0922439593784422
0,0948584758904233
0,0937029887411097
0,0930297943139825
0,0908944752389735
0,0921071057602252
0,0938638801934233
0,0924413484571296
0,0906434409942346
0,0903773732774697
0,0903680544076095
0,0946203098381587
0,0901520108860892
0,0902106324818279
0,0875760827835223
0,0916270311315845
0,0916491332626013
0,0935903311805943
0,0880253920526302
0,0907557654541638
0,0898872868456564
0,091227743458975
0,0894371894781883
0,0935392204395201
0,0886184622806845
0,0874797611946294
0,0899637173606608
0,0941488964690668
0,0883787012076089
0,0877468285738604
0,0892680450493968
0,0885535031079962
0,0890829793094461
0,0886914161694736
0,0866509066384405
0,0908830958251816
0,0873516104073614
0,0845035559525706
0,0837589455488745
0,086227983822592
0,0860441755425414
0,0850101468845341
0,084204875030847
0,0830823842164082
0,0855643480640119
0,0860221140375296
0,0840311442230384
0,0835061479227636
0,0839364368960098
0,0848025886341724
0,0812032612714032
0,082817245884314
0,0843629422890586
0,0826767057151185
0,0801801775652078
0,0809799304970323
0,0809381760569833
0,084686708750742
0,0814367002373133
0,0809382436377062
0,0804947382943509
0,0817807150548994
0,0801242945587186
0,0815770328984931
0,0780987984532686
0,0786236019154372
0,0772294806075212
0,0823680341369243
0,0781375785034568
0,0825891567942731
0,0793214542291983
0,0806542367267379
0,077878118854074
0,0805249215758484
0,0800056934220516
0,0815046003857378
0,0778137011241236
0,0803152198834888
0,0777362975422893
0,0787111220062278
0,0778209147381321
0,0800221177211794
0,0771885397873037
0,0755522651550367
0,0769089604107711
0,078069024466412
0,0769024633396463
0,0768782047875724
0,0752213027929479
0,0775856845666574
0,0750760936180894
0,0759493353509939
0,0771608368615286
0,0756134697917205
0,0738515776003036
0,073829561561951
0,073378469937942
0,0766185939198926
0,0738807384588504
0,0729548196430572
0,0709128467601016
0,074044246619936
0,0699444684238577
0,0711667194602547
0,067666150334933
0,0727522931597295
0,0716537311667452
0,0696234720606306
0,0708332359394302
0,0730573187096311
0,0705525429116939
0,0673299913629846
0,068065746072286
0,0697689442241495
0,0672683959690394
0,0658600422738981
0,0662143143256576
0,0701349982898063
0,066715092737139
0,0662789762335285
0,0672661310051008
0,0651629545572348
0,0652721798445351
0,0674104187614232
0,0617244072878196
0,0652316515011886
0,0639461510658398
0,0633459349601581
0,0620693932300071
0,0650880433343886
0,0639683372998455
0,0659176369987527
0,064085795766216
0,0628442914377761
0,0635599172958603
0,0648066141904403
0,0624031954441077
0,0640469182237754
0,0625930469149665
0,0621906216486913
0,0621771972129912
0,0610721642285307
0,061262579792134
0,0654741175275536
0,0610886162679524
0,061662243239443
0,061468519662218
0,0642138194580888
0,0612952042854482
0,0618808098834009
0,0592365885339613
0,0609630549086848
0,0612737335991553
0,0588186128384879
0,0583009101214503
0,0582523910332105
0,0557729187274991
0,0599311252070829
0,0583946838783007
0,0591317066838153
0,0580346097377666
0,057332383861515
0,0568376415557403
0,0571013694248637
0,0559193130943195
0,0566834978267598
0,055760421332818
0,0574909638403767
0,0571248993252163
0,0556926426871061
0,052600091140798
0,0559900443465712
0,0563651026858563
0,0559208287927108
0,055180804709389
0,0543409541066932
0,0533615802986409
0,051716241441201
0,0538604422896749
0,0566624071440038
0,0533825607998293
0,0511374866425857
0,0518800502811342
0,0529029624538587
0,0513351559859318
0,0522924670125287
0,0516724631413012
0,0533595850637493
0,0503533683535633
0,0535540645537233
0,0525367695786915
0,0508392644484565
0,0526379316776916
0,0514627498621432
0,0516443503000666
0,0517628590008633
0,0540781502183599
0,0512994474785308
0,0506452675936986
0,0533953698547665
0,0526437329341094
0,0499961070652812
0,0522735708417239
0,0540050620848388
0,0533014891537898
0,0547238700764605
0,054245151192365
0,0550152245578698
0,0529679641046692
0,0547868418622019
0,0535306991185281
0,0541101307211567
0,0541280702619967
0,0556656170280924
0,0530162032254481
0,0548494386644726
0,0517196940107581
0,0504850018203949
0,0578116444714393
0,0580063666134529
0,0520661254523117
0,0463035151317561
0,0559505724341845
0,0477215857427206
0,0518590237337537
0,0531952451762585
0,047836687002387
0,0540115823556095
0,0548806928069169
0,052912324131251
0,0534577297028073
0,050975920479129
0,0553401926724544
0,0555892730569514
0,0564739957704011
0,047888537799887
0,0523193280911401
0,0448521704189281
0,0498093673370687
0,0425591762161511
0,0557730288701542
0,0443770243368159
0,0547844705183574
0,0377599424057943
0,0568547908047676
0,0399293329362755
0,0553622004062296
0,039486788242156
0,0619517469506432
0,0353439282701187
0,0646366440596856
0,0374380901035619
0,0615109670610536
0,0322429103160386
0,0647454103805536
0,0300461133515997
0,0698949493425731
0,0348595331338667
0,0716533582249712
0,0263725909816524
0,067095559457105
0,0265625284833963
0,0717671462034169
0,0296771676124151
0,068348585873385
0,0339005833668338
0,0651662715534476
0,0351600164125112
0,0593405007305908
0,0503176262135188
0,0512994006700434
0,0526214908205696
0,0446446282126965
0,0622667348658615
0,0356177295887148
0,0640122303575664
0,0334466888696774
0,0628319795782648
0,0379969193687035
0,0588407161686452
0,0378423986565026
0,0536604445617899
0,0426601353133812
0,0511843941748702
0,0438014929718939
0,0469545593441201
0,0477344550616491
0,0474248440738403
0,0416101203214992
0,0469044346935543
0,0403490128533391
0,0499996432224209
0,0414598005703131
0,0474767530679804
0,0394668722119021
0,0460379587017293
0,0411651982259234
0,0489939234344002
0,0416948993834635
0,0472376780609087
0,0394775203417343
0,0439473604821758
0,0399444855939083
0,046057422303808
0,0409966434407333
0,0469085311142936
0,0404597541933047
0,0444775869816752
0,0377337517826924
0,0454616022376641
0,0424155715795026
0,0458056667503189
0,043097153618257
0,0474451251909069
0,0402882602343236
0,0449665846772165
0,038159369202925
0,0452757135480749
0,0417852468112815
0,0457042602588742
0,041356826877743
0,0472942959746889
0,0422575801018543
0,0468142743084138
0,0414813206223156
0,0457654243838765
0,0405617899996656
0,0461029133104321
0,0404439172047463
0,0462555505430002
0,0430337576055249
0,0450458467635162
0,0416956684176469
0,0454689263010927
0,0401083683830463
0,0463674533845022
0,041237739370617
0,0460762341414002
0,042020454876637
0,0444041651543161
0,0409584424737725
0,0441689347845476
0,0399157817656733
0,0443504194210408
0,0407950403063209
0,0453988092897544
0,0398056071648606
0,0455493433332774
0,0421316578467095
0,0467421537664095
0,0418619668897307
0,0464821184161331
0,0411879331803752
0,0468659577438526
0,0419716022463128
0,0437443334207571
0,0413936350412643
0,0459954366320015
0,0409162787292011
0,0449147594390379
0,0412583298465018
0,0453637381256931
0,0394426107749762
0,0442042124387235
0,040731817864626
0,0453826847735494
0,0429070139822155
0,045452010762325
0,0399646731610361
0,0453039465786466
0,0410727235159319
0,0458522951735317
0,0410557194351809
0,0447933910859704
0,0419439450877976
0,0461786336376493
0,041141248245802
0,0438891299288458
0,0404668212818693
0,0471004823248804
0,0413758622493535
0,0447398239769177
0,0427742110129621
0,0472271067237749
0,0432215699023355
0,0467732970094858
0,0419808866842927
0,0462016883780449
0,0431405457265907
0,0463400341790721
0,0426143734605142
0,0478611080045127
0,0428691292890942
0,0459663916567505
0,0415539144534263
0,0463997590350411
0,042793677418439
0,0477079344260959
0,043326658749962
0,0486537091354624
0,0426256172259072
0,0453031287574116
0,0429937737930453
0,0481204978788115
0,0421435307601821
0,0477287837029358
0,0410576640049463
0,0459899674886335
0,0446226228518027
0,046305966803881
0,0427706402299753
0,0469917959237978
0,044517710350006
0,045865589940413
0,0421291676526222
0,0469619684770332
0,0435963146682173
0,0463151310692583
0,0430499730995815
0,0453278843115975
0,0431015791689841
0,0486531649073726
0,0432037312096533
0,0460339964276106
0,0440877562455222
0,0483982880030405
0,0424962961692702
0,0462308698229283
0,0441410616112352
0,0487626525066945
0,0445844323533325
0,0487708531839381
0,042712216847231
0,047893761379742
0,0441862156284334
0,0488146553569088
0,0454573344213046
0,0471412254412373
0,0431063659051973
0,0483867358716751
0,0460738955602099
0,0453094306293645
0,0446551387903444
0,0503474485464111
0,0456933202753808
0,0495263603780121
0,0455376237573922
0,0488179281547428
0,0467135104077708
0,0501402922661014
0,0443242264860123
0,050101265621884
0,0441855252677097
0,0495503113131595
0,0455844139052616
0,0480388688950581
0,0449629701784923
0,0476162964762448
0,0446414171986525
0,0487819743857719
0,0463725569401086
0,0473713513554074
0,0432943418613533
0,0472931770839661
0,0440761208410856
0,0474193314456022
0,0449803072164271
0,047550150334552
0,0427849243694626
0,0458546883523714
0,0419554031618675
0,0475796170651069
0,0413983764661175
0,0451502027328464
0,0425985275330946
0,0468257055699966
0,0431003222495101
0,0454108772847225
0,0412819894650001
0,0447674053678919
0,0429186578196881
0,0449643634158727
0,0429826165211842
0,0448894451509629
0,0419826714848586
0,0463573750465769
0,0462720806886077
0,0478881540929349
0,0417998687881147
0,0439647908669199
0,0400290949606633
0,044408762301355
0,0420045748032398
0,0453795045401963
0,0420015855626194
0,0461976562561504
0,0400073413778488
0,0446598261881542
0,0433537744504985
0,0467801589751819
0,0433572308577943
0,0444316352640858
0,0403456387527547
0,0457949780725168
0,0423698165532586
0,0447826139797833
0,0403388538565983
0,0435897578022997
0,042964613619023
0,0458552849235409
0,0416509229574616
0,044524165511623
0,0403569273641557
0,0464192448451586
0,0419429047518313
0,0445193020632208
0,0395836247878881
0,046720582603253
0,0423385232499672
0,0440602625859426
0,0410791441455222
0,0440265400180767
0,0404685342325251
0,0447560710818922
0,0391403530072145
0,0431669080061492
0,038530824924174
0,0431942833390321
0,0413630831048663
0,0424922400714829
0,0386945962562466
0,0425275474860233
0,0392771414681029
0,0462161681132899
0,039395458630669
0,0437756472270914
0,0402373298913047
0,0439166880914785
0,0396520762442382
0,0439377066024991
0,0425790708075293
0,0463561868164648
0,0421673834750559
0,0435822164200549
0,0378669931935549
0,0425820110105291
0,0409426380269772
0,0419357887982212
0,0379612149145442
0,0451749580907106
0,0399308839999749
0,0431486847958071
0,0401601702358112
0,0405219941815144
0,0402678227572217
0,0431591028677993
0,0376946847456027
0,0450250900681116
0,0402332243811386
0,0424162088267155
0,0367466994936561
0,0430210453090915
0,0382599365633234
0,0434264905417181
0,0393527791853609
0,0431954910362078
0,0438684393880238
0,044306827115376
0,0376710341437272
0,0423506058031917
0,0393212731489662
0,0408837792047113
0,0381201227469161
0,0419810741298889
0,0385522666299464
0,0409295809220718
0,0356753752892169
0,0416572721221651
0,0392506000586292
0,0414058518115887
0,0363867762721321
0,0409372671551803
0,0389523798904707
0,0430190938659042
0,0379001062824991
0,0411699940310957
0,0351156506080082
0,0401221366414148
0,0328836408288767
0,0393145682625723
0,0366925721941396
0,043707043300102
0,0382570716803349
0,0415898493787944
0,0345391719218555
0,0406152089506783
0,0346821920494568
0,0383375296670843
0,0336077947081742
0,0395615874457031
0,0337656322876659
0,0367123465524976
0,0341596215832647
0,0376858979541715
0,0336329304635673
0,0371235363493768
0,0345392101194233
0,0378825200226244
0,0334185493941296
0,0389593139933917
0,0357678268705612
0,0387340134573869
0,0330921402035086
0,0348398779757035
0,0340716348472129
0,0366275320450112
0,0327398904434654
0,0350497478754401
0,0367620068957199
0,0439054731912275
0,0394454451173207
0,0334426919009458
0,0353990606937521
0,0407915171237452
0,0347183058666258
0,0366475403135354
0,0347668537585911
0,0358064717095978
0,0347843614129265
0,0379346952565571
0,0347628614471241
0,0348573381256732
0,0344236800864526
0,0359671923450417
0,0334405051893012
0,0360346824074698
0,032547545307298
0,0347600227166043
0,0329792763927926
0,0341067925260156
0,0319231830165389
0,03407657937286
0,0313443000124114
0,0364822194657106
0,0338827847004719
0,0436182644614476
0,0394522718103576
0,0372475706282918
0,0317304957492891
0,0328929331179982
0,032660631439002
0,0356888947362322
0,0318083164035755
0,0366772166379301
0,0324907854844481
0,0353937774791987
0,0299475590263145
0,0343570720058476
0,0348873504721496
0,0347391381012458
0,0335165660965144
0,0331857916021704
0,0286378502880542
0,0347490539583748
0,0328832195687538
0,0345055062172097
0,0329043517045828
0,0324329190888192
0,0338107066341933
0,0368497814192824
0,0274682467201376
0,0393311115035622
0,0427719129057789
0,0447458610015319
0,0290071639253936
0,0372908789265936
0,030789585047852
0,0362274502479072
0,0277050857249508
0,0345221814477274
0,0297484613674477
0,0329979963807053
0,0301206915918482
0,0349573872094536
0,0308057752528359
0,0354300694796665
0,0291697151362249
0,034358010248388
0,0305643823527715
0,0331928502041893
0,030442888033847
0,0311202605784839
0,0352846222196168
0,0463025819356893
0,0364807698713142
0,0392711787958092
0,0296392676211687
0,0337245803194122
0,0389203653685136
0,0448107263592053
0,0331221494116146
0,0353631889217765
0,0334228720496013
0,031641923028069
0,0305445710422762
0,030127414708203
0,0338196408386822
0,0393156517066944
0,0343712432506671
0,0360868680336565
0,0322167046221535
0,0311171999053041
0,0295180522651737
0,0312652826352803
0,0293657733488225
0,0341767941300445
0,0284762332259262
0,0307687112834315
0,0274134448441873
0,031684076724828
0,030363452054779
0,0315909641235755
0,0310048803327917
0,035417496265085
0,0324098358300293
0,0329115106049385
0,0323676041457313
0,0300646487689915
0,0336268521232978
0,0448968043798831
0,0346692240128576
0,0337966557329347
0,0293192360327573
0,0323887565095925
0,0316080727242483
0,0359010461873431
0,0297672647367807
0,0329576914697069
0,0297370523603748
0,0336517786658061
0,0290376098523599
0,0331325866303318
0,0280688834364838
0,0329465404427294
0,0283444831768128
0,033066289263258
0,0280825619022253
0,0328398509836151
0,0295881536779552
0,0327515023804083
0,0345095388428401
0,0556567915759357
0,0448897310849336
0,0452948400627186
0,0391996526675383
0,0335717674971082
0,0328613060607909
0,0326594769633867
0,0337049587785479
0,0323279370894065
0,0331442676984374
0,0340746278072928
0,0341536791915086
0,0306781052765469
0,0302068546728464
0,0323506686990813
0,030206307125258
0,0349463469160341
0,0298884576455493
0,0330827672471125
0,0320953700222868
0,0312769919074806
0,0294831781408269
0,0388623258793979
0,0400581668114795
0,0346334456086716
0,0275395203914848
0,0534683721172479
0,0525585075803192
0,0446570807609077
0,0325563074982373
0,0362898128565032
0,0294253395007802
0,0341067323124864
0,0291172647285982
0,0377176902483305
0,0321674013738586
0,0362872163061537
0,0291988025179835
0,0376470762138778
0,0302830302000958
0,0304850631594534
0,0289773613089058
0,0565608647324324
0,0429545315927245
0,0411877121382384
0,0292709293492622
0,040887195631973
0,0449437591586342
0,042647119939923
0,0342547371819035
0,039791812275805
0,032120155716304
0,0360900923840599
0,0301679024472647
0,0344843804055562
0,0343037695801825
0,0382842506993769
0,0320866228140736
0,0360121927842334
0,0318301558255685
0,0383474905031348
0,0351788796047113
0,0477670389649016
0,0398292117053109
0,0362956789321642
0,0364223970454985
0,0410004743475258
0,0349595441216992
0,0353857065609592
0,0352241217519084
0,0342664365634356
0,0425689051031027
0,0518830751892013
0,0375193209589161
0,0504676997347352
0,0453519232424709
0,0382002115400383
0,0348753370693999
0,0477368926321112
0,0455910814164932
0,0327410772405271
0,0429833914179723
0,0564880410499966
0,059402132640568
0,0529698214933332
0,0409097410528897
0,0360967539519812
0,0378759643672048
0,034490648699229
0,0367532902527293
0,0465390340381251
0,0419442911565961
0,0406180937134726
0,0322713379878583
0,0513368064270535
0,0478432641392558
0,0468225802800599
0,0394181733586432
0,0386861040396338
0,0378376148439279
0,052407148594695
0,0393538640622443
0,040217608391731
0,0457104663555904
0,0832469377225604
0,0628363821406971
0,0487808171349875
0,0367122392364573
0,0723154216527918
0,0492060190971922
0,0419713752500788
0,0405239751312703
0,046691876153937
0,036659579789745
0,0462010066002974
0,0614394316460101
0,0573618627807374
0,0427770639087209
0,0472360051227622
0,0369209817822863
0,0591486070895936
0,0567886159149081
0,0464081139591285
0,044113049090494
0,0461671360993222
0,0374795836421179
0,0851106678685411
0,0604843659781457
0,0676206347158619
0,0622294243786491
0,0758779594639617
0,0589197689564662
0,0640609188399748
0,049434808186571
0,0657152441451316
0,0690077163117159
0,0605443836404791
0,0384168803748784
0,0673577350036037
0,0739454806895788
0,0640138773196738
0,0575658947741579
0,059920645706221
0,0425718464237036
0,0802739499507801
0,109012387548029
0,0982296570941456
0,064422136827868
0,0650417566028726
0,0827054410266861
0,0722523589075793
0,059908970424881
0,0627076798830815
0,0609108746199272
0,065329795972588
0,0563934478069923
0,0755011125096
0,0646926622696721
0,0723397155819937
0,065548972903972
0,0683425450822212
0,0699971447360811
0,126736672263397
0,102055533919956
0,0905322760965182
0,108202521992122
0,109693634790489
0,0834685130203322
0,0802344887020945
0,0751640019361894
0,0955604497398796
0,0848312434666123
0,0815920641166218
0,0734778467749917
0,110430047438404
0,0977003309980134
0,0974885580123144
0,102166669366765
0,0996736189865247
0,0870964702103001
0,0774236067247607
0,221704674582909
0,139958845722282
0,115950710933046
0,113960053083434
0,105868265712135
0,181421462021319
0,125856381813513
0,112992266075239
0,114836368062254
0,11606529624371
0,114879064411498
0,131082457649805
0,132713859457548
0,148792093992508
0,13438515834759
0,133631546342794
0,134404047062223
0,213290331779003
0,210307536152689
0,177428862137822
0,153975658800128
0,176003780241564
0,179657008801661
0,168834642416493
0,174474220844972
0,172466947383997
0,169576006779608
0,230582180392552
0,20260482110508
0,193378715107575
0,201968641491003
0,233722768375514
0,204235412908432
0,253669812143677
0,248314811471467
0,235159874373019
0,222574999911112
0,235440453672027
0,229502751826497
0,226539492307396
0,258519859168551
0,268788363821788
0,247555125327745
0,252266433358398
0,245659161888326
0,257100131524
0,256156311628586
0,264088483802499
0,262240955453386
0,305514565511826
0,286243195496827
0,45282907864425
0,308039445362116
0,278952665883689
0,274366943575875
0,277050077585989
0,303148886053527
0,299133720807449
0,300398532346702
0,312969508879932
0,274497835642484
0,285667936926878
0,277662900362641
0,276472931597921
0,273124333918742
0,285963957739941
0,271152079092546
0,301060738090226
0,279260169452106
0,309694630993387
0,34862475854741
0,292582099959973
0,274882311090203
0,280157289594861
0,272880053961174
0,282029476568695
0,26080319405662
0,279767890672177
0,292477310587926
0,278281081130959
0,26671983366157
0,264532732844712
0,281173428672783
0,307047396064982
0,268888849823368
0,271700716368164
0,258692214347242
0,268763301928564
0,244513722109495
0,259128428135158
0,309667642559353
0,27370806238921
0,256732995974041
0,25940261849477
0,251439103521885
0,250589573822698
0,248073314236231
0,258831970077513
0,248774013927426
0,245083535372367
0,245907901378979
0,248594316660795
0,245143221597055
0,244532742201369
0,246829778084205
0,248779872998153
0,242415347911214
0,249642892356899
0,237204191369614
0,245824152461417
0,236754447564316
0,248050653729748
0,236959912925337
0,249401807070843
0,243608758362448
0,241274256086037
0,240877115598472
0,242465884448883
0,239045744282179
0,245653818415141
0,234594274311655
0,233971310527717
0,230961993437863
0,235014888933913
0,232061943055677
0,232155928677536
0,228280557597568
0,234786165540178
0,224155508583921
0,228198962381082
0,216874663997283
0,230084784323287
0,213667336715808
0,26765996656715
0,253370175318
0,223284760321666
0,218305280918776
0,215566904277213
0,211211378423689
0,202466576747213
0,239748499067317
0,239136561536955
0,202171000859554
0,205126011189163
0,192592004336608
0,212803088327392
0,207442418077837
0,192951174018522
0,192985811267511
0,184969933440111
0,183939932894161
0,27222206082067
0,22015483459125
0,278801135320701
0,20687956643409
0,183955216313497
0,181496679494267
0,2212318858464
0,175824895808818
0,182683479308149
0,165466827526031
0,224647264872922
0,195293850281836
0,170943227628014
0,171647691730233
0,162743525036593
0,186939920624519
0,202306042378619
0,177887616592157
0,178596913365555
0,200885721008357
0,179299508662753
0,203032517595666
0,23682019924172
0,199682255967378
0,163451586501459
0,159000959990323
0,160691855274175
0,14467082626825
0,225275785119788
0,166712522566659
0,172153000685872
0,149776796110108
0,141382903216666
0,147798332318309
0,16239587954633
0,161791088411782
0,152482315798748
0,186413317437482
0,147746849489636
0,150439512359195
0,16557194768804
0,167760402723101
0,213839365422973
0,155284352355999
0,137391676390996
0,167851005586396
0,192471968346247
0,15013632742261
0,161682751928448
0,135456916849491
0,136810313997238
0,157632906443133
0,137765338749715
0,149750457459976
0,163917254133925
0,158173409568479
0,197580088423343
0,201806575048207
0,199656331420276
0,153555457210966
0,134167592009883
0,135393476346355
0,14200653054248
0,142162297780193
0,132035921643446
0,157376721816599
0,155787609198173
0,12759330130899
0,196130844296713
0,154115356207234
0,14383313445174
0,14789883839757
0,145725530466932
0,148897969943719
0,171889844079329
0,192781942343656
0,18381576125087
0,166341413096377
0,19405167508065
0,160151778573206
0,170785686631987
0,163649846642658
0,175998391054254
0,17030529568989
0,192976020677991
0,180575020314682
0,187320908325029
0,188918545717967
0,199240801985276
0,201617604729596
0,240348632959611
0,201120981163562
0,242149806798298
0,239442993522407
0,279043479042022
0,247905213824927
0,234271875134314
0,239671527351404
0,240456910614252
0,246221799968495
0,247706469631625
0,248496005166374
0,299397046763108
0,25933145892371
0,269230369371067
0,263974880549835
0,276579578676526
0,269422701263087
0,309089287327228
0,298849273395785
0,318812013460482
0,34671911484903
0,306490970291465
0,302714685312654
0,281171880147641
0,294866171031622
0,297946139401442
0,288188194504489
0,295785662955441
0,288415526357817
0,319745649753872
0,303103414446417
0,303176398691835
0,298467693798039
0,304345054696597
0,302218163268335
0,311104718608036
0,309353930448532
0,320598776034224
0,312694552631903
0,322091019296741
0,299469761426214
0,384088164341016
0,34550773539258
0,329109043540889
0,334744609355539
0,338878112562033
0,336453973139409
0,337272284639382
0,353974669102751
0,359473333562121
0,347957454329522
0,356849034316913
0,346577325403443
0,357263847593818
0,364106105516469
0,394673670848097
0,364051738848615
0,370998260366632
0,359694670346822
0,364269557938603
0,419797830016921
0,389785249180911
0,391020862324779
0,377613416278418
0,379847882789632
0,374265713149582
0,373885920979502
0,379691797466411
0,380337288846844
0,38433090440693
0,382263346739316
0,377299356668336
0,374451907071139
0,379391389597265
0,375165943997665
0,403721275639886
0,379046402307797
0,376481067206881
0,371768531874965
0,37561714890859
0,368300161535797
0,392667817556493
0,396262894289067
0,378254649886154
0,377840632018336
0,377062795043006
0,391773242099092
0,390266965861936
0,371444857770231
0,374463810413002
0,372224563585526
0,37139524626641
0,37681855032965
0,381151189186214
0,417906962625546
0,386723482082552
0,380954288695656
0,380745319072783
0,383728268411088
0,387106498005625
0,389943683485361
0,386417631609953
0,393638631537609
0,394275789702398
0,397789756297502
0,40037405068757
0,393738704758405
0,41141749570967
0,412374418116483
0,413082909399558
0,400880712647129
0,391426784405539
0,391442429488124
0,38656557217685
0,40054388548997
0,388108107314857
0,380365629335578
0,374031048532394
0,374697991911166
0,366996169367461
0,402221382377005
0,376526851437674
0,3690434185915
0,373079822966042
0,349457154690229
0,366065168253969
0,351707278248888
0,351810925532834
0,346477919356951
0,355418906106637
0,340627932976792
0,344784403815713
0,337856462407554
0,337888264747799
0,335951572427113
0,342473265932417
0,336557638598879
0,334757958989927
0,332756683973854
0,335120855975103
0,333419463434461
0,330806574015273
0,3323048060938
0,332795397985258
0,340066799660108
0,35016993991667
0,347822044343683
0,342710080190066
0,33262376414939
0,341607114887959
0,322871289144186
0,334642784437393
0,331622059361686
0,332940744153522
0,325707844184046
0,332903337791668
0,329644445291264
0,332397270807249
0,326933274186501
0,327961146896464
0,325583148810024
0,324101515258982
0,323461992055564
0,328711118586304
0,324151760340143
0,32565359255003
0,325735175812531
0,328332110688526
0,329262119576091
0,325937435357364
0,32866000896445
0,322457228436947
0,322471984248498
0,323583984885548
0,328723486326119
0,327243870119608
0,317021478263224
0,323404938348814
0,321421576588069
0,324567688709228
0,317916755447919
0,316162665690233
0,314502551927432
0,318666602691849
0,31235916121689
0,314276139667515
0,312152612286019
0,311983612663133
0,307544851360128
0,304354408521014
0,30125591534773
0,300884299246701
0,293667333542353
0,291783405191478
0,289856975511289
0,290019047157079
0,284863103088446
0,284568773521205
0,281077180479285
0,278167444805891
0,278746193087166
0,278131217454407
0,275601317371831
0,274657444905249
0,273662484488994
0,275271568652893
0,271792309180101
0,272305166157405
0,272498126608062
0,271180305012565
0,270329395206293
0,274069110197109
0,270520822305981
0,272554827671309
0,274214117188022
0,274103204214912
0,278346125645161
0,278660857756363
0,281552230335573
0,281716424108962
0,281305148856873
0,282511542026033
0,283411851978761
0,283662362505826
0,28816908414648
0,286181242972338
0,287654954071699
0,290671119956833
0,28981809428545
0,292681581640207
0,293878844762647
0,294616485462968
0,290675242732371
0,296286357959773
0,29178842998994
0,293934413503244
0,293292162590299
0,293144617368335
0,292388998144197
0,292970689311016
0,289960165105406
0,286967743030643
0,288033230773827
0,288099143840407
0,287588627203735
0,283446618103446
0,280870839574328
0,286568176012841
0,285838077659958
0,282691578170338
0,280978040631308
0,280224849650308
0,276729640137222
0,278409076384461
0,275416980088031
0,279769140673031
0,275719524869054
0,276176980552872
0,273026566444386
0,273611309025719
0,274408835938946
0,269589709208666
0,268665214105782
0,269628807358152
0,268580531987797
0,269010757808484
0,265632352148278
0,266287462725196
0,265938703893049
0,266996413407501
0,262195624025624
0,263881392823301
0,260157704824849
0,257605841150005
0,258597355622546
0,258083705235256
0,255855834162715
0,253927859441267
0,250396698360536
0,249555789317062
0,248793139899282
0,248018368098874
0,246798494410222
0,244523123465113
0,242373665421179
0,241412738660817
0,237194081212386
0,236875172363419
0,237341472150938
0,23968285778582
0,236919053127935
0,237283138811448
0,23594592460355
0,236382572543891
0,235736451026763
0,234592042732932
0,232979697660521
0,234120703716442
0,229139773341444
0,229464087763263
0,228093656847998
0,223154609338611
0,221417119217504
0,221643927852111
0,217975620275719
0,214227353460115
0,212331960951994
0,210570613227228
0,207646936636335
0,207290507647833
0,206719468791586
0,20911837561309
0,208594208059868
0,215047010430621
0,218894969752102
0,225242751084977
0,229445408300567
0,238923859616574
0,245542383140179
0,255035403568892
0,264613348782797
0,274340629705246
0,287366775488072
0,301902861940183
0,311525164826715
0,324891450411032
0,338116231103766
0,351244459161471
0,358857231945619
0,37390187473951
0,388500069601583
0,398889375434108
0,409217271051279
0,424165122188655
0,43504958618467
0,445939464248649
0,457693120817504
0,468781083057596
0,478685876029778
0,48498255238689
0,496609921195928
0,506651685542466
0,514819709159915
0,521525983243629
0,52330093494625
0,529947805934978
0,535393180949035
0,539271710335988
0,545479451204177
0,547468023554736
0,548605097184406
0,551820621098855
0,549980196190477
0,551361987690471
0,550863477665047
0,549494774545558
0,548155869532202
0,550776167344659
0,555594565365322
0,552749968481614
0,550352887371967
0,554528128477996
0,553513740479451
0,553922714372034
0,561788296938859
0,564431066035597
0,56935380425244
0,573062282224023
0,578184353916362
0,583036000958902
0,588155197387316
0,59581163610903
0,602711852600661
0,604981232221109
0,614521733885337
0,626827902520139
0,635448012951858
0,640764991125701
0,653365509890677
0,663769646212818
0,66954174526126
0,678931512533087
0,681184012878144
0,684603439478119
0,695425915724677
0,70165788482314
0,698414074440796
0,70176914873426
0,695935083283716
0,697369649255681
0,694089400263184
0,691764953508282
0,695253071428083
0,688910580092448
0,687879693386443
0,684058356368179
0,686159930105203
0,697635403698114
0,693547820432867
0,704883767619444
0,719647098671462
0,724527786000975
0,733185215227746
0,752374912130001
0,760149045190523
0,770595793950923
0,781671144544764
0,789825893285732
0,803837685848925
0,826132853146803
0,839897886495729
0,843326123751059
0,856931616871424
0,870935769616603
0,884787466048599
0,899594457928142
0,911506624610131
0,930228645846601
0,942422728567555
0,949628718334987
0,980049053157516
1,00968313080732
1,0219422083027
1,04060192751078
1,04649291170931
1,06143902240854
1,08451483209959
1,09147028390126
1,12273597032764
1,13668864380983
1,14997544050737
1,15781582013965
1,16807910126608
1,17502690521816
1,17296397651036
1,16931830732617
1,18331971717256
1,1761922028861
1,19494022155226
1,18576209277446
1,18496608427543
1,16080542641858
1,16051206133759
1,16284165027713
1,16426139342141
1,14583252014093
1,15126304090644
1,15844213663532
1,14495344760745
1,15190384885308
1,15037302793366
1,18593522699889
1,18068176136414
1,1706983319376
1,20625361970183
1,20442143147624
1,21735753401055
1,2382777999318
1,24808598068375
1,25059543449828
1,2707943838789
1,29729843209925
1,29103090896565
1,28933636144702
1,2876592142598
1,32220046577412
1,33482623466637
1,33149333368984
1,34617964345887
1,33487096863316
1,36837609544407
1,35699410721389
1,3331702107915
1,34499400743869
1,36462748064943
1,37156072905759
1,36928166972665
1,39561703934507
1,36809048077083
1,358646058326
1,40704990717515
1,38160187581288
1,37335264878231
1,38019066209861
1,38554665532967
1,3716656834375
1,39368756566805
1,38568917743942
1,36796660347777
1,35959238625391
1,34220625811702
1,32118524886293
1,30935073221817
1,27623777495349
1,22874033750624
1,19975603297303
1,17297150378723
1,14287607872455
1,08884870860109
1,02895960473998
0,993063554779371
0,958605151597593
0,920906723771333
0,87796927537396
0,855363821235015
0,83889801516884
0,806491524716442
0,787156416881047
0,78568581777295
0,766841466581201
0,750886767262491
0,747597121214842
0,732866099005744
0,728699537278553
0,719140562348879
0,711810321967703
0,700049897101631
0,686389165977183
0,678326501039611
0,661214882218181
0,652395818890815
0,637310313219842
0,625105583655376
0,606015602530273
0,592351515121665
0,572666386035429
0,551564545270867
0,533305220792365
0,516837117732527
0,494476850261594
0,472850973677681
0,450666529425156
0,430696199490332
0,407248273589798
0,388463251721263
0,364740436429612
0,348331420072196
0,330030762057491
0,316084138069426
0,297008436500639
0,28521393061132
0,273713653139181
0,259332114665455
0,25003716909221
0,240404478387234
0,229590147264685
0,219499197713564
0,213691852639884
0,206985473134862
0,202390054972437
0,197934492980999
0,196471251457193
0,197242928256242
0,192485271472042
0,192361776516163
0,190791896388198
0,187791433296317
0,187352944614656
0,186072515115352
0,18572471287512
0,188374648528102
0,187246574118349
0,193573829048401
0,194426395195015
0,194465883502906
0,195712360724435
0,202000191691287
0,197143743529724
0,196256377703774
0,200627365206961
0,200643191228763
0,201628789127237
0,201348346688193
0,194249715125954
0,194689487787137
0,194245635874963
0,194665753057525
0,194116717671212
0,193629788804429
0,188863921557128
0,195073210495625
0,191879760499787
0,190324582216379
0,192012394102608
0,195055094902808
0,194667440217106
0,199020696648932
0,198037760444514
0,199708636692119
0,200484550158275
0,204240126072892
0,206714588047092
0,204800168486776
0,208467737071915
0,21464712203332
0,20985933578672
0,214770487002678
0,211312871163238
0,212448832764441
0,219014225765974
0,221842581031976
0,217841744479985
0,220066075778917
0,218848932608654
0,21866806375957
0,217243684884179
0,222611983897493
0,221641469439905
0,222442077630268
0,223086934359109
0,228130599973646
0,231189488468353
0,236753157901279
0,239883178050968
0,249631953592747
0,252347190568288
0,261064877023335
0,26537846863647
0,274304911725199
0,284067251944461
0,285948471212357
0,296644110335966
0,305666124700976
0,300780061485361
0,306822524937233
0,305964183352562
0,305241818008346
0,295564101363358
0,293047875520163
0,29040042409881
0,284904183759584
0,278499963029777
0,275118592921661
0,262194674352957
0,264515878121831
0,262739807418796
0,26151418703943
0,258814511426836
0,262301442689804
0,257343859631848
0,255143604291349
0,260310328362869
0,264272095231349
0,262792247662919
0,264306972310421
0,26159269634467
0,257110857487618
0,257185353864784
0,253294636763652
0,251563687711993
0,248269306076454
0,239978726792531
0,244155554073649
0,242717256477255
0,241604736436483
0,231242209129736
0,237377030108495
0,2274393535541
0,231310184581806
0,232195129753016
0,227884878626129
0,227264749028175
0,225488472789654
0,221537412768411
0,225209516910902
0,222404203992604
0,220501219918759
0,220632277663868
0,217254110478192
0,213850303333711
0,215450204604861
0,210242600481707
0,212677031085431
0,208557508275801
0,211359840152156
0,200452278975781
0,210066889025593
0,203313636208786
0,202457295331863
0,200343916215704
0,197910614063651
0,204866805031081
0,197008824575854
0,19183686161432
0,20172969112834
0,195799097530203
0,19058085197066
0,190590892719638
0,191758520174096
0,185984985507956
0,189571505716716
0,191301526153108
0,199590591010855
0,193659716364754
0,184054929645426
0,186929869044787
0,193600478177871
0,20120685737433
0,20176950955226
0,190429912525756
0,195896219378492
0,190954267463278
0,195089962561415
0,194305588935101
0,202330325850115
0,200742155123447
0,197531454125941
0,200613189929941
0,205714081953189
0,201948707325749
0,21070486326298
0,211684739609008
0,211884092245015
0,204735245575488
0,224568357192916
0,218179200705746
0,223789449629287
0,222002593463852
0,237425263799718
0,229592264290124
0,238350418063825
0,244118644437513
0,233937783084307
0,237064893121389
0,258557433989911
0,259276320209633
0,257810409222101
0,277746678424054
0,284448568659786
0,288589844709745
0,300300556569703
0,303795589635388
0,317263716638208
0,326236568598716
0,329810231297319
0,343236343170837
0,361927871091143
0,352850569802934
0,364208326729477
0,384484390400436
0,393418962564991
0,379135345191609
0,380818777277786
0,381379126766122
0,3757213803918
0,385543806445316
0,377836927334359
0,363897304405675
0,371978282749743
0,357200516978964
0,351818060935461
0,357867847789076
0,352174662672037
0,345844688727316
0,356192744911359
0,353650995661309
0,356791895793399
0,373187532932474
0,366287629847272
0,328029021232781
0,344872892532299
0,351407093963441
0,338608082641218
0,31702286421449
0,344508219810127
0,343773910973916
0,338855083833347
0,34045124871353
0,324732701853025
0,330171112555653
0,317096026671391
0,320664057825175
0,335568690378616
0,31798680582217
0,30946755855306
0,305119065377009
0,307090124708322
0,307952903195228
0,316890189926288
0,329677226354324
0,300802564237461
0,310053810337638
0,32256087638851
0,289921131241097
0,306108322192238
0,326284106197701
0,330459400287947
0,308325903144655
0,318722289313276
0,332820268877133
0,357917008071012
0,336585972200825
0,317715083496029
0,334094325191213
0,335320944061183
0,316481988955754
0,312521533300008
0,333066724190747
0,334835622978478
0,328522842438914
0,329605379300016
0,367762820441739
0,343631073782084
0,358155897871652
0,363446460053268
0,319099333597223
0,345505239782504
0,364827049118046
0,351768036833419
0,333255164082615
0,354498947684068
0,350329242913412
0,350302715501432
0,374095011649766
0,378772058599726
0,421708121560786
0,414715641971232
0,410012740290853
0,431876719879251
0,411988353681726
0,446675207581779
0,455122645956071
0,502285378277334
0,484859104263395
0,452617555193279
0,442399885870695
0,483974810079412
0,494777741132931
0,491343354291402
0,423258754475397
0,430937628768757
0,443277696569866
0,489189944595351
0,467678540705372
0,433408107769903
0,433458080912577
0,474143712085281
0,427154630993932
0,464412274258627
0,443066063417831
0,386454190436561
0,403835164108244
0,406961234149042
0,401546922214155
0,417601756510095
0,391356983760547
0,433814127909034
0,487594500147511
0,425923912752486
0,41973570464696
0,389859288361424
0,412449387286069
0,407076712310393
0,380372893870325
0,407407344330551
0,480279449098647
0,349811749105022
0,463258556254273
0,498673724481823
0,514894962400044
0,510460133364474
0,444638803430714
0,429695575259741
0,372336429241918
0,383267910483199
0,536016778454131
0,483618181020605
0,427172024269064
0,407846495885942
0,362181430959141
0,408037219845182
0,357330075645804
0,53797776580102
0,474933313568711
0,557739439567946
0,469321682019654
0,456047767488344
0,637596402370356
0,518668559329714
0,447949752373373
0,355707401932128
0,359805096197458
0,46868946929162
0,386026287919461
0,372508141215813
0,522223283280543
