3596
4000,36533379555
650,420452594757
1
2
2
0,0645854128527959
0,0752217574542649
0,0640579223500705
0,074495904620594
0,0597676222167463
0,0750627245512933
0,0557294234507084
0,0734457099378361
0,0620042927170958
0,0767132027940602
0,0691442216727269
0,0754447861451278
0,0582267970974424
0,0759988701972676
0,0677917562268046
0,0671926013224837
0,0622808109984925
0,075843340260256
0,0593586666630885
0,0694484139504045
0,0566594625309953
0,070483260151718
0,0621725067957473
0,0730805516177656
0,0669842004360566
0,0700126242549827
0,0595361005807907
0,0723420419987714
0,0660947675922746
0,0769165013156188
0,053954916750071
0,0704726988620946
0,0679476119404283
0,0726578785879069
0,0561240178595801
0,0743574936501904
0,0594861640129299
0,0671187256981104
0,0675860220173433
0,0808821987480827
0,0751461638495485
0,0787958825335549
0,0658204630889305
0,0723180163873489
0,0605698574951816
0,0772990650819641
0,0678781874753294
0,072260720824865
0,0616493220003195
0,0762078995942208
0,0656306756058487
0,0664245347555557
0,0637240918473996
0,0916763482157278
0,0673666695953342
0,092391502367667
0,0733102346772431
0,0758874233844312
0,0631579384563807
0,077534607927473
0,0719875301354968
0,097534435039238
0,0665221705933301
0,0752458942462414
0,0566481962368656
0,073159387110333
0,0570665585005214
0,0652860193804514
0,0595929530567102
0,0780216853635999
0,0606659442053486
0,0808716597420778
0,0831550582475281
0,0781739960481943
0,0688550875767634
0,0785697487107212
0,0617328238283716
0,0678586327941411
0,0518257995731216
0,0858181347360646
0,0774832700386496
0,0826283134443412
0,0650788326988562
0,0578421162941458
0,0514772868762053
0,0959588208203193
0,0682511406134657
0,0600604278673922
0,0921426862161961
0,0879592939135221
0,0667952545769256
0,0577139946702499
0,0548126053748546
0,0629738278209976
0,0566282954985591
0,0656722455935792
0,065836847255653
0,0646886827747428
0,0635407716079122
0,0687722988354009
0,0734442896615265
0,0745156893046603
0,107218936028901
0,080283392661272
0,0861402316867431
0,0993356664641929
0,0392521391515266
0,124938390865632
0,0879122051395624
0,081337578946
0,0620610871322729
0,0668518965253124
0,0612951698692001
0,0713338215095905
0,0497207754501465
0,079108880384726
0,104736352014113
0,0772508845461129
0,0637626801410513
0,0685111416392584
0,0433893275621303
0,0759917852903373
0,114262498189614
0,0754791807762369
0,0772860714026599
0,0722556907414692
0,0522388617506407
0,0908437403783133
0,103998021975927
0,066070201664344
0,0602340325881524
0,0623627791204513
0,057014028375724
0,0525542389983311
0,106419665506138
0,0901297287048668
0,0556913836106173
0,0641190318185963
0,0584122188286137
0,135869226885823
0,0840547375967254
0,070902314137771
0,0531099973093882
0,0579809164714431
0,111874691434554
0,0898491429449693
0,053538743690263
0,086421138648219
0,0878666726900788
0,0548200724495864
0,0543951909396771
0,0583316852452415
0,078639275498136
0,0718066486320541
0,0232885212715847
0,0742553759438694
0,153987191407317
0,0820938278253781
0,132586356699243
0,0841380156476896
0,0591705731670922
0,0768227315888196
0,0560426403057004
0,0630333299103936
0,048491575649104
0,0644719678522582
0,058676294357427
0,103671128660864
0,0538764520187077
0,0719515083758278
0,0951716842907187
0,0987408861621325
0,0524908814835077
0,133244470964032
0,0911021038710978
0,0454945349611109
0,0978654853684086
0,0861182510852102
0,0571152505077326
0,0643024184489381
0,0967522631251682
0,0681899107739452
0,0584993863674196
0,0609151731227073
0,0639521137221442
0,0877204816215246
0,0669276677744803
0,0662538955987463
0,0608731679070476
0,0464683528108561
0,0561006152715531
0,118474071453292
0,103305065047315
0,0798661956347302
0,0561418062960192
0,0394859120377161
0,0658969542932685
0,125428464771863
0,0661551528851053
0,063465611606262
0,0478090106845855
0,0594828370777167
0,0568743387521057
0,0565829315584128
0,0486250639506862
0,0445018675187132
0,0997466604918402
0,105399824385813
0,0588452162754527
0,0650996593939199
0,0465222315713645
0,0557773675460393
0,0869290231300347
0,117693825993125
0,0563601708546564
0,0645802125991137
0,0496599001321467
0,080328814723991
0,0882682893129603
0,0748883026074285
0,0617258521703513
0,0667770185939575
0,0523857596049372
0,0653448482347054
0,0571478428163421
0,0651792491902776
0,0540679728188865
0,0641747130048147
0,0549990181617975
0,0613577720222219
0,0676549717568768
0,0765061370169031
0,0577813665768741
0,0593776321215405
0,0467210246240094
0,0706279120785584
0,0866814916195047
0,0716368075052546
0,0637777158937685
0,0644273109673432
0,0551522557539219
0,0597204703503292
0,0523251830952168
0,0627226945082077
0,0526868708529096
0,0559317872170986
0,0883753088888617
0,0907967684448319
0,0494197510406706
0,0656053746176811
0,0531049691770686
0,0969406491809204
0,0517166945936238
0,0739070758244855
0,0462249001115921
0,0655334924391376
0,0464095407073006
0,10697681617618
0,0702341900479968
0,062356269002985
0,0715846040199414
0,0870203362431544
0,0494084834793441
0,0573640496797167
0,0338444667517203
0,141741092847038
0,0808687068307811
0,0450564293415382
0,131930128227937
0,113832303954903
0,0640339974052764
0,0648172225795292
-0,00664455479230893
0,146300215351522
0,143279641299197
0,0836957916040708
0,064801707239547
0,0826929916324226
0,0644458683749155
0,0647150375011444
0,0735176459481464
0,0704105093296535
0,103744348709406
0,136800317074349
0,118076029825349
0,0720835517231321
0,0608134431924462
0,119532870497566
0,0618535237066527
0,0749036811016912
0,049170320508649
0,0747876915979317
0,0639184027661323
0,0974012006433157
0,0761811292740833
0,0890228767609448
0,0589073144062499
0,0961133543543514
0,0780546216573896
0,0692617013539882
0,0654634367719687
0,0837178525456183
0,0630449621273013
0,066291102273307
0,0616546086407405
0,074476032290984
0,0526445483460172
0,0571744588743121
0,117972064108451
0,101513461312658
0,0601790046403159
0,104447645142308
0,0746696742493566
0,0706225867054295
0,0687600921541449
0,0660141215609876
0,0608654769863402
0,0653642893577048
0,0531754153258382
0,0941996976257258
0,0820607644287211
0,0638136972109931
0,0685911114001664
0,0677109571159085
0,0706610365564373
0,0765375572748059
0,0593370144996699
0,0728969050302115
0,0651713485123413
0,0574203101492956
0,0757695538528983
0,109895562826006
0,0564668165745512
0,0761817336586413
0,12481092078804
0,0839377668247306
0,070399672094438
0,0695961114025287
0,0669595296867883
0,0725206446566922
0,0690206566314671
0,0728827389555248
0,0689108027664554
0,0990678679915574
0,0756448672016199
0,0709240813222203
0,072394720424703
0,151551788318441
0,143260390351305
0,107528287435817
0,0722440499635671
0,0681845433243981
0,0778800014525967
0,146848516486801
0,0926063775050107
0,125177279603416
0,0871427165791507
0,0833312070567738
0,0852146728046807
0,085357612772893
0,0872513938491993
0,0878508521977023
0,0873701296927143
0,085967715610298
0,089578060352923
0,0919760960895377
0,0856056158999276
0,0850773990061233
0,138903865977774
0,117765001009258
0,0929262616775665
0,0920856972540148
0,0855593143973853
0,108257074892507
0,14904789780606
0,129399491847817
0,151613103122191
0,130498739978389
0,161524601076341
0,133048283286385
0,108880970781333
0,107638658092529
0,108643323983624
0,122534441612725
0,11165800168245
0,113545135827367
0,101652154878966
0,123089750885874
0,123985746606643
0,118692062590128
0,110179306466409
0,118948133211677
0,142802474039524
0,146091510791855
0,115577099087653
0,13188897462346
0,112939273104728
0,2146588905211
0,185760036964281
0,166310544141816
0,139457239464454
0,155722623508377
0,120849935083519
0,144140341384163
0,136097401631293
0,151960635467496
0,140777385021131
0,179337437649456
0,185324281780264
0,16978438783745
0,170552964728287
0,163095846656311
0,169702414745683
0,178392749536831
0,166611737728965
0,217158626291288
0,163603118461951
0,156341966483671
0,176736977075638
0,198987162804006
0,177017950030976
0,197163044907568
0,176218811797285
0,179908539074363
0,172017525800862
0,178389112516823
0,183242649154233
0,204424391791167
0,194101618156875
0,186879678197848
0,196234263357107
0,196964213518937
0,195925141384177
0,211169463034499
0,211777109325575
0,221180300371845
0,201814601018606
0,207559275537575
0,198200346993886
0,197528118762367
0,203996033652676
0,237051770706073
0,229854348975315
0,26033501434012
0,212149655196195
0,215100932624537
0,236980855998335
0,22598577184795
0,213614579703522
0,229586073972822
0,239519155340697
0,230982839724223
0,232302682743697
0,2496149300283
0,231047780161506
0,240105449458953
0,242789857452028
0,245783211159502
0,246854602168009
0,253569994826531
0,25068867249942
0,267358676180454
0,268226624818078
0,313345762090556
0,308159004269406
0,296761048770144
0,28413584233687
0,278253095824698
0,281356960300844
0,276967605432226
0,286371283387053
0,306824407963159
0,299423108544798
0,276331179395453
0,294792258342229
0,295225734834404
0,288695826463838
0,298045331534442
0,303003301774749
0,31984049148143
0,315559067869754
0,315606004482791
0,31752352490801
0,318503333899836
0,325619772956161
0,34438370391401
0,335804800335585
0,339358515394405
0,327851388163846
0,337032996253525
0,336280737293902
0,335986563746236
0,342767566250801
0,360907748814171
0,339901126027443
0,354901433056507
0,362532375053842
0,367718849696657
0,371225773856112
0,359137746182076
0,374365592722416
0,384052091025356
0,38415297873561
0,376580380222672
0,382185397433306
0,392912916889931
0,409481177775205
0,402645186890825
0,403885031955483
0,392328822749228
0,388816504175784
0,406231595482006
0,419691987872782
0,414382551738805
0,419056927296516
0,42398747324191
0,420141507396764
0,417422091101881
0,407411488826948
0,437439019317856
0,448882956569622
0,439365745719349
0,443310606220624
0,459784657362798
0,450720784322028
0,467423250497435
0,470525862679537
0,472575491580956
0,459564869113651
0,470209678883336
0,469106503495295
0,457733078499059
0,461462678695237
0,495238970531744
0,491423734198136
0,493831000262654
0,487509749327612
0,476127120286243
0,503328615761877
0,517578061878396
0,520661116410223
0,527594437902858
0,52062867778123
0,516114464735507
0,509347578518512
0,515664472646773
0,520078818071946
0,53405806351507
0,54434451834432
0,523395847845794
0,53194892923392
0,543631066142125
0,541899445456693
0,554510185614777
0,556575998102968
0,550547767570534
0,551002708300321
0,555124776242474
0,56943418145617
0,575125049283455
0,571531456756111
0,543904069561258
0,568173535852714
0,612269186945022
0,597623368367328
0,590511265722525
0,587876729965078
0,584004520228504
0,590439227267278
0,604960428145902
0,60372722922942
0,610568294301396
0,627314170937036
0,635828525367562
0,652126031152408
0,627072743655621
0,628324751399709
0,634636378439963
0,605153896941677
0,613621442295822
0,650191383514541
0,664555824663475
0,650393450360793
0,64199620061013
0,648864953295824
0,660231960887174
0,675529016223322
0,691900317928718
0,665746968426807
0,667721674949683
0,686648320300053
0,687187723331909
0,684169730388003
0,696403097647934
0,692590034433727
0,683807222484477
0,715978444388042
0,695412093515922
0,711731074866909
0,669444658582526
0,706233158445564
0,690474530717947
0,720259132908632
0,706654099323308
0,721370191638162
0,701648120027301
0,72712448759344
0,739700612740425
0,762655172811762
0,735126580821466
0,720597215298781
0,747506179880197
0,759498280070334
0,763779709441461
0,769143965582199
0,740125488684212
0,771430198814322
0,779869382349587
0,774882689758288
0,761012619537555
0,764288738125824
0,779671954872123
0,784612653651401
0,767022778049358
0,786095651193061
0,783261447118965
0,746153060652153
0,803150313916168
0,799350321610435
0,769722009594493
0,813236468406651
0,794290385917893
0,827792945991865
0,784473707057109
0,853366352327244
0,809142649949511
0,813363689311162
0,821642673520374
0,830960554384202
0,797655956539213
0,806307445802941
0,788179133350027
0,832394657733307
0,824771819703978
0,801771586837969
0,854281429558067
0,835290092609043
0,832347541813162
0,852156909953902
0,835448694184161
0,866884742544587
0,83249047390912
0,851176790987679
0,883563308552262
0,888051463005946
0,839833527015045
0,918669493042026
0,867582697045307
0,848589532421502
0,863101790417205
0,871281837259308
0,892726803041678
0,885303204194016
0,874261885184938
0,853444235851182
0,874532577370822
0,877361410450711
0,886915952647501
0,930039965704796
0,867882887031353
0,91987052219775
0,878200539050542
0,886683848120139
0,863943155823654
0,888619682651517
0,850815641114013
0,909565377671788
0,916197271156361
0,934277712144131
0,909409653055881
0,942066783996583
0,948065539396142
0,906589963434297
0,886819516462619
0,938234989899445
0,892273734487457
0,930824962788902
0,936073776837044
0,963746439214778
0,926051893769521
0,930341254592037
0,925479784002716
0,911188518411094
0,914556536746306
0,904516017388005
0,855550003660311
0,887682916237237
0,941495804281025
0,971637560972811
0,913134600920909
0,924643360075637
0,949343502835953
0,958974195262144
0,891692636093772
0,97065401256042
0,90374929197126
0,932290266948771
0,927073743813691
0,941264047049116
0,936139936920109
0,963140161286252
0,917053981509101
0,955078011445643
0,982754406761867
0,982226495637709
0,901295222529972
0,950515074299876
0,925354082443651
0,945271717432899
0,944782526543671
0,990783815082298
0,925319817915645
0,934187750002943
0,947437306741795
0,950289534361399
0,90272870987097
0,969152982577159
0,942919720999565
0,931642405141231
0,926955197657514
0,987267906215538
0,927192016684559
0,947511854864383
0,929730121261563
0,958764808331069
0,932918943380167
0,949533965834392
0,947782070488734
0,962683846541021
0,952244673441747
0,963460089058389
0,92516248448791
0,952880320362429
0,938441457169313
0,966067667685749
0,92247335496263
0,961218536087268
0,946757370260116
0,940887172513276
0,912622350116712
1,0007020858925
0,98214895940632
0,957959038935039
0,91681259296434
0,950870504214758
0,953207073852349
0,950386084253924
0,926380732928363
0,921469000274617
0,910053104081257
0,972596461185623
0,942088984960151
1,00037362311574
0,910370710085282
0,918397709108573
0,934688817149896
0,970422196567551
0,890837212383579
0,947523444747728
0,903327208962086
0,9494819577811
0,909029251806258
0,949185816284297
0,935359102482885
0,94393320742348
0,923207648641388
0,929038357231804
0,924634124417636
0,936867785562128
0,902098506553995
0,917024742963043
0,918750486488992
0,908737215527941
0,900143396492748
0,928142589124435
0,915501903400784
0,953751810122854
0,903934983228037
0,940868145108955
0,896398668401791
0,942106286256278
0,89240885123843
0,915295975815537
0,922539145497669
0,905584811681297
0,917202595312671
0,927898890837302
0,862723120360175
0,915753997424316
0,884661289222323
0,912272146636428
0,892078689839707
0,901374167389374
0,890868114565239
0,88809342037698
0,91669246363259
0,910543173605004
0,861598444734781
0,907037718962326
0,907756666451558
0,915590284412306
0,868349949191395
0,86411044936305
0,875336707855811
0,872141693288838
0,860724877154779
0,891885579247523
0,860826295217066
0,868279186956526
0,878004336193595
0,903014341362395
0,854298348841889
0,870019934364471
0,870828327121194
0,893561801241913
0,865365995455491
0,877941362455293
0,85347816543384
0,871963217735357
0,812859059482144
0,850087550414827
0,8550809430818
0,859062382867851
0,838091831019792
0,835776605474274
0,807893891655638
0,824712789780097
0,836055900800187
0,849862821110805
0,83673740358706
0,828505663375858
0,801559824457947
0,847160038344901
0,821556081664931
0,826562110697565
0,806808295659326
0,824348338624103
0,791831838164321
0,825530392683643
0,772151739627078
0,790850674198984
0,77032037158588
0,777517359511005
0,778347874465912
0,787389321291574
0,771270035516807
0,799606181998409
0,777934543724269
0,765669459517597
0,796790678631156
0,76451881343737
0,787698612363047
0,784169501494389
0,757975075505936
0,766224128458198
0,75515863331252
0,764692500775804
0,756104238004879
0,747903303714695
0,741807545072585
0,758485269004996
0,736967532551786
0,735746607442036
0,739947372242249
0,75305025675237
0,718324125999433
0,757037756907108
0,707677019305044
0,716520873627647
0,713414305268259
0,719269149633003
0,709485519496427
0,719322891867543
0,692409987268287
0,696670292294537
0,711701265058532
0,708839340432184
0,690179686554177
0,700491939629009
0,688105560040579
0,690702280995815
0,694482123922853
0,704347351420316
0,677941631044432
0,681752956760471
0,669542782032818
0,672892836598899
0,666318448358969
0,653131512969453
0,659190389962693
0,67277766543962
0,647319503826814
0,647584143432057
0,646696778488497
0,63544908878128
0,643407348079736
0,650680340460944
0,611184478365337
0,641567013678009
0,625023957610061
0,626814169845139
0,612903627730715
0,634596075409753
0,629887643694279
0,626142836305263
0,617175427073642
0,608509482267797
0,622552945123876
0,615237555855748
0,601605236336502
0,603956266176442
0,589007357568238
0,586539730883848
0,58109005023376
0,589432703691793
0,577855321387603
0,585791815565492
0,585544199947336
0,581251370388443
0,565513189213681
0,577920938519912
0,56650847970303
0,578306127984684
0,561894224099757
0,577751870294724
0,564351018970857
0,568697212578372
0,549323730077564
0,56689663999678
0,543364277525881
0,558670290540184
0,535373217685552
0,535565138484843
0,532588375288209
0,545631331945832
0,537178004138582
0,538948992194447
0,53154014045288
0,530866715769722
0,519184616800812
0,530278596877203
0,527772932755137
0,534748273857372
0,52023205302824
0,508230741118754
0,515910018457347
0,507254673373483
0,503754338516612
0,514109937025669
0,491006416879454
0,504871766542032
0,483015505463062
0,494001919341767
0,494661015207167
0,498358520836673
0,493369258883476
0,491129844270735
0,484895756380769
0,475718090755676
0,47752128311677
0,479075590931662
0,479146600808425
0,483443933760997
0,465262555408315
0,479215972868031
0,4592896234236
0,456354859819131
0,460667260931099
0,463124512737931
0,448896748149964
0,456900040105455
0,444348945781463
0,445275481323054
0,452509110290063
0,444611262571628
0,442944843136979
0,441561044415273
0,435236608903687
0,445122677602587
0,43705464596193
0,433582668024358
0,429298276095688
0,431060020079347
0,430198179911191
0,430631082790829
0,417076331645422
0,424548781012513
0,422026258631805
0,416143666915602
0,409165744183679
0,419757904522908
0,409798101186326
0,416393447277396
0,407843052739278
0,415365018180046
0,398925583443838
0,40346030077522
0,399271664518902
0,39830734529782
0,399832986248684
0,392176930622002
0,397281690924728
0,404196585542093
0,39178240902277
0,404949499453508
0,389611919291886
0,389929440844107
0,379498061567902
0,388803888075379
0,384852794884163
0,387727096919865
0,382393157256026
0,376750904407333
0,373529357272602
0,375438474143485
0,368948731163154
0,370531143857054
0,373988880252809
0,374081741825173
0,363405830064645
0,369614316569791
0,363855637636447
0,359790482607939
0,367456916112238
0,358579625580578
0,360409646064433
0,36401651457629
0,352997655334568
0,355992259231786
0,352994194880422
0,353379620524115
0,352100898596373
0,348920578648151
0,343864765052142
0,348205533078898
0,340471830378122
0,342333257954901
0,344904998962781
0,341242957514135
0,341572066880717
0,337770762729025
0,3306909549122
0,337032217520285
0,324212800966731
0,336508033337798
0,335084835669707
0,325029054860725
0,322613446876878
0,330975610954851
0,325244244851305
0,32217875994329
0,321933047784811
0,320083925996354
0,325496187399005
0,328719956642698
0,317101010987082
0,319548493628542
0,322162756984423
0,319595736975106
0,316659970810048
0,31822829795432
0,318580425309741
0,310664855881273
0,317665161969336
0,315275608362444
0,310395446232927
0,315158951659634
0,310113159888644
0,314006913295033
0,312460880669262
0,31423568475084
0,311781992728562
0,318775298563684
0,315895718979924
0,317376757448048
0,311088949394607
0,315727184937301
0,312775576730008
0,323147775767943
0,319050668112401
0,319279591512234
0,313884433184695
0,31787843312141
0,320441314332272
0,317195316100476
0,313582621525114
0,324508152045319
0,320527775281676
0,329503729610477
0,321631565715269
0,323222875821759
0,318172827100492
0,327741592810512
0,325996822105991
0,32795575022521
0,327661780719645
0,329141435530173
0,334012178489232
0,337701194305062
0,33064395341671
0,345607765261902
0,339058402438789
0,335459406846582
0,335705238313235
0,337591680725616
0,341480887661482
0,34771406722776
0,346604170208319
0,351930349189477
0,348372761745681
0,348713425290036
0,350417969801146
0,356172300389998
0,356649260477072
0,358486636122127
0,36262902460766
0,367580283433067
0,367223107560668
0,369942983248584
0,369409032537317
0,376486187324115
0,374462476006357
0,382831626161683
0,385040615592285
0,385531998482907
0,391077896691553
0,396802060225042
0,388714871418002
0,397945890347582
0,400418647986797
0,403373411995156
0,404563952705349
0,405658798439828
0,401701800817615
0,412028720754361
0,402981609286663
0,415806782931012
0,411175753206241
0,418493288261035
0,411648751092371
0,414696632831675
0,416526360153826
0,417708047444372
0,419051081056205
0,418566089887652
0,416610586465559
0,416096616141693
0,41401609391036
0,417581142278993
0,40183761341194
0,416444542122541
0,410541664999578
0,416444864918998
0,418280763102523
0,411527484631078
0,416108067286437
0,410652503073012
0,418574895995546
0,406560174805499
0,412762427831897
0,411101950561885
0,417388527855006
0,416626587970598
0,413034104396519
0,410043875969156
0,415810862605491
0,415550179689396
0,411454622597675
0,413400186559779
0,41425119345215
0,418448456284922
0,41350391640269
0,412781606661572
0,404497771868922
0,404775894905116
0,407376643519184
0,406309345551954
0,410052154906122
0,41818305362043
0,409961616071596
0,40809225182768
0,412926516740064
0,418303223501788
0,411423826537869
0,415208932104829
0,409868032730058
0,408996679465194
0,411147181794208
0,408727253885009
0,399903478817037
0,410962309124456
0,414023594258253
0,404049280270601
0,40473890181052
0,397169571797518
0,399029323746953
0,40065500842011
0,399747917484759
0,406154873214025
0,389769100794145
0,392025684149258
0,393253982616223
0,393204192190925
0,385720278885996
0,384090974521818
0,383627080682925
0,390908055152048
0,375720534323752
0,384908455558544
0,370768934888572
0,370079786874356
0,364346775363446
0,369790541240052
0,366943965788135
0,371477499614376
0,36736494667512
0,358410306179919
0,357717228638907
0,357818632692332
0,352845831074641
0,350477347431409
0,341073665839108
0,337723709477782
0,349335065425
0,33662431511759
0,340183738428836
0,331880448142095
0,331163889040243
0,331746309404663
0,332275012338627
0,328783512674909
0,324691908593082
0,325994396337829
0,324976425848856
0,318753852681488
0,320882773720584
0,319103176125592
0,320154532926854
0,314140396937686
0,313839213264424
0,309900767581355
0,313129153254406
0,307520226269209
0,313591929924806
0,305053765247661
0,309040221709432
0,309033265725644
0,30097230868083
0,298207474750804
0,296331830120879
0,299539336422249
0,292977441539112
0,304177616590475
0,297583836609975
0,291121628731859
0,293245609916674
0,298450746000027
0,287923443256857
0,280827263240659
0,287146628205762
0,286495048850297
0,284214997633166
0,285725612181449
0,28179679763712
0,284047181267186
0,282632805118863
0,278054789559184
0,279789907353382
0,277366017201041
0,273836229448002
0,276851267714145
0,27768318158654
0,270805545217114
0,268292957028995
0,27074836941997
0,27267456387295
0,268401732405389
0,263526103932192
0,263466205559828
0,261625249667979
0,270503648469331
0,26293102965638
0,262799108933739
0,258884698925216
0,263538965897443
0,263832480788458
0,258084510521635
0,25579898795916
0,256787255947861
0,259937744794201
0,256280175611271
0,251498539323586
0,252825741172356
0,250693339890342
0,250280426237216
0,254144087812013
0,255524897862228
0,24980036134536
0,248835390909262
0,250386575467776
0,250936404743297
0,248082202216499
0,24823109142709
0,249760284365648
0,245261590672678
0,244758061610189
0,243356813656095
0,246059407108401
0,246030858654536
0,244524321226747
0,24321142905644
0,235899363634963
0,243189919015932
0,242753430551715
0,24199431110016
0,238356194356802
0,239636676991021
0,234386022066822
0,239049176914565
0,235360775316358
0,240085283688991
0,23790635043306
0,236042556805598
0,236760793193906
0,232911043594919
0,230024547883388
0,236516040036521
0,233439043798479
0,229364469324672
0,230641570508969
0,231792630325965
0,229286632614425
0,227176919953191
0,230234492072314
0,228049655673529
0,228425583973075
0,224381269849205
0,224958009953877
0,227795558602752
0,224651833319033
0,223682182600117
0,223681142863038
0,227996930292566
0,224022894083997
0,226492042773718
0,226408247151816
0,222079096268038
0,225100256439453
0,223276323734887
0,221572040511282
0,22090340204834
0,222976350838576
0,222510274473352
0,221859443018717
0,216393767811396
0,222349030089081
0,21937975445408
0,218351140646666
0,217794873211624
0,219616435559428
0,216528553829664
0,214541777139782
0,22214047909777
0,217168997372622
0,219139114613854
0,21709441937968
0,222736526791
0,216632652344786
0,215622141496059
0,216525024909234
0,215897312426396
0,214892511681418
0,213067487143605
0,214206939342995
0,216472698493388
0,210418958348875
0,212526513950591
0,210499912817019
0,212864401366943
0,213131991759259
0,206426802722167
0,209526675875956
0,211397874595383
0,208563242775138
0,207082822633354
0,20857250333918
0,203816839121263
0,204283081733762
0,199478323423178
0,206733417212768
0,204086460979697
0,20034944038615
0,204947518262024
0,19956297077998
0,20046070533651
0,207280460949673
0,197907113406824
0,201310331420726
0,201753598959314
0,197127457662499
0,202475727977771
0,197221968655133
0,194368334530723
0,193002120094475
0,196246332663942
0,195651372262651
0,199511753117223
0,192674940769937
0,191010910010973
0,191853757099397
0,192760624562601
0,191927200258418
0,193715214501969
0,191261554958344
0,18864063910344
0,191224049391277
0,192478193864103
0,187595845401339
0,189924877273216
0,189744816598416
0,187527770596014
0,186126852042401
0,188378649756072
0,185704013170605
0,180798071483257
0,184704443054934
0,185922942099044
0,178319713543002
0,18318193176478
0,182871338806723
0,176961630048229
0,182591264542213
0,179237059638975
0,181087764616116
0,175960113622125
0,180215225490952
0,175741999818399
0,173166027824323
0,172995728598207
0,176994003770483
0,175481843743196
0,17316330934384
0,172500754509807
0,169743176171687
0,170979811144456
0,172445720631882
0,170360063508638
0,16880787264043
0,1659981441164
0,165585014361591
0,166658759948208
0,165112733816549
0,164411264946207
0,160463360287281
0,162206718821034
0,165115295802643
0,161041270237758
0,162058694116545
0,15331035886528
0,15773998994128
0,154150275938669
0,158288243241353
0,158575611902228
0,158162779622266
0,153227006488558
0,156301689051315
0,155329725785308
0,15456944825727
0,15391586926573
0,151552256881646
0,149151932077173
0,153226551549584
0,146231479203853
0,150040704369842
0,150783381246242
0,149233269598761
0,148413398576379
0,147950732734389
0,150083009393537
0,147035750085077
0,144121167537857
0,14707004459251
0,146961797305126
0,144545140896801
0,146243008861474
0,145702193293457
0,145308282935253
0,144200614203544
0,143402689269098
0,141090810599979
0,14044067268143
0,140745362819416
0,141063574739585
0,143120646395008
0,138163720682485
0,143179422188852
0,139743533246995
0,136498546843535
0,140993324063006
0,141057625785705
0,13460636323965
0,133857111407477
0,134172201717779
0,134417094693585
0,131854761580599
0,13633390757756
0,132795365643799
0,135568031603614
0,131516021038468
0,130712535942963
0,130873777756512
0,132349657533497
0,130840387537972
0,131228685176664
0,130889186833534
0,130002559630217
0,130484454944331
0,12892650147282
0,125313462539435
0,129146356151426
0,125565924506868
0,126840180563808
0,124645145650503
0,128891019203673
0,130971430480019
0,125214396507267
0,12498142509005
0,12367819640744
0,129088916469357
0,127244764498858
0,124299816543065
0,124805149726779
0,123792515870101
0,122969725785062
0,122631375403981
0,124865842003943
0,12326371418465
0,1245318759762
0,120489854024867
0,125256355394667
0,122105288274801
0,124608302008683
0,123763624382359
0,124437628840759
0,118223554610428
0,119459346529742
0,119311014978379
0,119616955752629
0,118999087473003
0,122093511760837
0,120680477936523
0,123066552700922
0,119126191307868
0,121102077751961
0,118108198742768
0,116951340180413
0,118104569518694
0,116461438641419
0,119749633294131
0,119692996557268
0,114644908797417
0,115646981077269
0,117430327083769
0,116271542972054
0,113234405511017
0,116014748666109
0,114735391252569
0,113056915224993
0,111627916010265
0,111237293154018
0,113476014861979
0,111478419643328
0,111485852987135
0,115061213823779
0,111527901435377
0,110691002290409
0,110863647983341
0,110937106847159
0,112123316791826
0,11246200263249
0,106934451977539
0,107838089018948
0,109375094880189
0,109753885444938
0,109731312323603
0,110229805326077
0,106018239464778
0,108812616394496
0,107779025908335
0,109004897261148
0,102378670740851
0,105870488497324
0,105871489196228
0,10887150256876
0,105176217479616
0,109779685425155
0,107724667540589
0,109728271291435
0,105385394651353
0,107968099283629
0,103423755789127
0,106442206510032
0,105657175574957
0,106456803362875
0,102742402195335
0,10750378056505
0,106020013472146
0,106390770852553
0,103346229849616
0,103264252170907
0,103658036065056
0,104098728027129
0,106678939003791
0,10348723304213
0,0997741675288886
0,102962717910715
0,101317933250506
0,100099676740448
0,101225828288799
0,102136038342975
0,0985335848944185
0,0996985845324155
0,0998114859328594
0,0982324736889405
0,097291499284943
0,0998288093720088
0,0974897841300024
0,0990027375398038
0,0940153770644514
0,095983687832897
0,0930351513609976
0,0983479251025134
0,0957120535891476
0,0935209466119212
0,0926823075390956
0,0923380591773628
0,0937354253910824
0,0929051240988963
0,0919769058525977
0,0932166117877903
0,091227287799231
0,0902744930354445
0,0907044376709373
0,0914432851891413
0,0878421488367448
0,0904158474420119
0,0896072655035221
0,0875369260395535
0,0864365824658881
0,0879842128764307
0,0859494110079879
0,0871635537448332
0,0878604922440086
0,0873012027122991
0,0844664118876983
0,0864946877759817
0,0862085985804188
0,0891667710622014
0,0872392608567161
0,0866860460818855
0,0850511036052724
0,0847316404267249
0,0824629639045669
0,0852510751644009
0,0847399254506912
0,0827394057680178
0,0824044648265694
0,082925500230272
0,0803386339105796
0,0836939318348584
0,0804536087114809
0,081845161594966
0,0808660488288644
0,0832282384547999
0,0822162419924582
0,0827207655376962
0,0803388499621949
0,0803690568037942
0,0796553178937516
0,0785647996146805
0,076830367606106
0,076351192531966
0,0761744894561933
0,0790868293571975
0,0771617052715957
0,0772333245001055
0,0764199399561654
0,0770043000900035
0,0781787220805716
0,0757308549637495
0,0744401464344311
0,0747873420624499
0,0724989649415815
0,0762036233199384
0,0755988888534238
0,0726992743029171
0,0710362387439255
0,0752553572462964
0,0734971714036405
0,0728351574212227
0,0723538654140495
0,0727889265548937
0,0703321921836064
0,0728642113916135
0,071176014760584
0,0698448900505814
0,0718000994911288
0,0698517085980853
0,0708594153157782
0,0697575764473452
0,0690420321829887
0,070872229927354
0,0682649783751247
0,0680919227424041
0,0689809288210986
0,0706655630450698
0,0681091870674789
0,0679965322333122
0,0668636045637415
0,067791952177126
0,0690982601855538
0,0680402240290377
0,0699850336017158
0,0678789409157379
0,0662841286980332
0,0714787607376187
0,0699500693017722
0,0683436884690107
0,0700777394551054
0,071215474666845
0,0713794011800176
0,0721733049074747
0,0683623492104133
0,0749612590686123
0,0717080216504733
0,0720811566830649
0,0695417116613344
0,0739701081029745
0,0722531328004758
0,0724993871738054
0,0670186337702209
0,0681618067953723
0,0696561816635455
0,0732895114778319
0,0716362166086847
0,0735213558877871
0,0707163954016391
0,067547861420598
0,0716916465313321
0,0663622416015088
0,0710303853597308
0,0726654411094077
0,0666710122608443
0,0741062203400843
0,0707465512097212
0,0671462130189033
0,0673875915196098
0,0690805040776152
0,0685613418628369
0,0729724078467262
0,0711651647296076
0,0655928785984912
0,0641177563749316
0,0643040748094661
0,06517087843089
0,0624420690156065
0,0681730226824616
0,061778739781171
0,0692171327103552
0,058036993891672
0,0715864779083393
0,0644364120377224
0,072094209635664
0,0608344772495973
0,0750185525074064
0,0551460983053921
0,0754011036760449
0,0526540960580988
0,0727307177197406
0,0525283078982207
0,0821877155015695
0,0488724887288894
0,0807485884840489
0,0480324888295448
0,0882535643603985
0,0409126006214141
0,0864728022733363
0,0372513616297324
0,0920447520517628
0,0385789536617576
0,0953434287155729
0,03839239472052
0,0914037683716934
0,0426036579880644
0,0876128217409918
0,0511699866319026
0,0790321486679043
0,0556668880021165
0,0683815979325678
0,0669743916948082
0,061719007594505
0,0756177508758285
0,0531138099126697
0,0734252935052363
0,0546423270526034
0,0731883782056984
0,0511651411530129
0,0703864350579877
0,0574138225684836
0,0627150761172752
0,0606509706973299
0,0598307808373028
0,0623659878009352
0,0598136343435943
0,059824134025075
0,0594771062178179
0,0583904737066131
0,0620793977604522
0,0558484278667971
0,0587504935777627
0,0534594529890941
0,0586873547078754
0,0554863764871593
0,0602984903762877
0,055780545232245
0,0588909714384301
0,0541445196208561
0,0569131848613459
0,0553724368531025
0,0591054980299967
0,0569992066517639
0,0583744502651676
0,0553911929974868
0,0576207240721983
0,0533786906897273
0,0566978993661295
0,0546645901251214
0,0588900276416397
0,055462963584724
0,0581388312009491
0,0564346900030694
0,0589395778389896
0,0544635889492167
0,0596804995163895
0,0551330672250937
0,0570432143133152
0,0543646319993202
0,0582822582701672
0,0563680249126136
0,0592186522763232
0,0560709452519475
0,0593813080223532
0,0559716814314261
0,0575241278947026
0,0566178724935726
0,0607935645367139
0,0566685686004558
0,0587713664052594
0,056752842958526
0,058285508168382
0,0550664720344619
0,0596457483654897
0,0572255627142321
0,0596683677854622
0,0565785539831701
0,0569318186370945
0,0542137939218274
0,0576723383593524
0,0561646890873553
0,0585347959812466
0,0568152759352958
0,0596700112065988
0,0535227786624962
0,0588780981192827
0,05567082332647
0,0591767810497422
0,0560322990248398
0,0597813549276801
0,0547269440956523
0,0614131255163133
0,0568207787875203
0,0562051689698821
0,056275113280243
0,0599075575691273
0,054848294833255
0,0581189343913247
0,0550457788299696
0,0586503065116467
0,0541626047671897
0,0581540339893491
0,0556578779999274
0,0579706745369362
0,0564042852404028
0,0584271466346851
0,0543075117237409
0,0586795824750431
0,0556374126763573
0,0602665644781677
0,0571520178431976
0,0588878998366822
0,05458294906462
0,059113373461023
0,0572251922065253
0,0593923155475295
0,0578250664156918
0,0593785815702805
0,0569757305891203
0,0604160220693063
0,0564370157230256
0,0612141835730217
0,0584884851488454
0,0597032900427914
0,0579825272641834
0,0614926975343737
0,0591008019600538
0,0609920400218756
0,0593862588759425
0,0599359008152752
0,0568793391382722
0,060745428933643
0,0563139285330064
0,0615425821945579
0,0588662064416854
0,0611895436335063
0,056836497336768
0,0625435603689664
0,0573876041721937
0,0596703658891988
0,0586995397166553
0,0612747962796703
0,0567479654577477
0,0620033444455285
0,0586624190258381
0,0621520231830283
0,0589860428343338
0,0617166683574804
0,059358582873346
0,0614359043740258
0,059562780768381
0,0615003214134155
0,0581913095930281
0,0618095572799571
0,0610187584572084
0,0605600935118176
0,0577017640650956
0,0603164943588438
0,0598654655011161
0,0608986744658455
0,057899673946686
0,0599260935742088
0,0582317914635232
0,0632895196349166
0,0579089835832641
0,0625725310557592
0,0611898650841182
0,0638310201231023
0,0594291714551987
0,0623982329120297
0,0589364460945656
0,0644727346330827
0,0618401282872499
0,0636980585453563
0,0614705922116881
0,0632896274964194
0,0613922642686749
0,0625292048014754
0,0607953437273197
0,0633436864660873
0,0624314397854679
0,0654009735295944
0,0623143309876005
0,0638191486687946
0,059730539921711
0,0644536823547253
0,0643665607574872
0,065034504010037
0,0600471136775533
0,0654386783260091
0,0615142444531189
0,0646109288874243
0,0611855965094989
0,0626437333466922
0,061976381659875
0,064298841469003
0,061351933158234
0,0629791606441392
0,0615824560075273
0,0636706866138205
0,0584324580672332
0,0634903522495116
0,062597992981344
0,0637958733421785
0,059748995305127
0,0619799665132731
0,0594724282332045
0,0611716929729488
0,058357235598755
0,0634468272880087
0,0599191050894839
0,0608731370063681
0,0576966147796302
0,0606740041023654
0,0596145131659947
0,062256955023035
0,058900374415334
0,0607478333101415
0,059560226004428
0,0603205080883046
0,0593599433875416
0,0603576132677366
0,0595320959742294
0,0622273621359044
0,0604127324596372
0,0615490582738171
0,0563315187126749
0,0608718480787867
0,0568469890637763
0,060324961982158
0,0574852566581624
0,0617641837060599
0,0585430674979311
0,0605336650877805
0,0588158738616382
0,0618542768149284
0,0584967677907028
0,0612233013071759
0,057943180397012
0,0585864333829404
0,0567119306672189
0,0608198368954203
0,0581382270527075
0,0586471883123069
0,0559675660824956
0,0597966143265882
0,0574901974328606
0,0614519750273459
0,0559858693109468
0,0582127299862162
0,0577551107560734
0,0620791312696423
0,0572961346920466
0,0593538727452276
0,0548091692568586
0,0615203989997597
0,0568364618541924
0,0595006941487562
0,0557480388907067
0,0587739435682535
0,0566624221601921
0,0592302618797531
0,0572478213517929
0,0611288119211156
0,0551215789976639
0,0572225269503593
0,0552885515243027
0,0582257758453108
0,0526753818408383
0,0579141108037808
0,0540683327829872
0,0612978972877633
0,053891896919304
0,0574567251259954
0,0556403035384604
0,0587236398412834
0,0548275647501044
0,0588791815077656
0,0559984209986564
0,0590024433801645
0,056171136643881
0,0572890608284336
0,0527155184588483
0,0565348451575733
0,0547034163577986
0,0557910396708437
0,0533147856409976
0,0585902640220297
0,0550534373266835
0,057327426938502
0,0542034132517911
0,0551378335507553
0,0548182203949287
0,0576390626636426
0,0539047207424199
0,0581061183022274
0,0547813371612699
0,0574588922862509
0,0544503564315835
0,0554973709873637
0,0526014047237406
0,0574881591148323
0,0545618805371358
0,0562179397254195
0,0570438277565507
0,057633887387734
0,0525860564921
0,0553755649590728
0,0518853436519508
0,0564203156976271
0,0521842468753799
0,0540222774515582
0,0531313649714431
0,0552157670723604
0,0515535554632552
0,0552264698652721
0,053447149714732
0,0554750911225495
0,0490561555071379
0,0547371584848997
0,0518582188781347
0,0546286160694848
0,049165555456675
0,053210296518255
0,0516086981274146
0,0517448912472172
0,0472774006003523
0,0533100144176293
0,0485575246563891
0,0556137526893851
0,0502547815137009
0,0555998098943644
0,0471126530872314
0,0508694316856494
0,0460836652151776
0,0520411363423842
0,0471552030845064
0,0509128157352325
0,045363123899597
0,0504139770888056
0,0483360451925015
0,0483307912787657
0,0462368423393116
0,0501573518021133
0,0453504086690973
0,0487735577068287
0,0442206707692679
0,0487033366588291
0,0463755680283124
0,0501906891034118
0,0467831315775737
0,0467085277925017
0,0439214656258007
0,051244817736589
0,0440040230338745
0,0463606604047878
0,0513694970511194
0,057055374661422
0,0516844574563735
0,0440553392045974
0,0462553559158032
0,0492998125328828
0,0463494455252846
0,0477187006613778
0,0456283014805052
0,0461962010105686
0,0467054689383129
0,0481582700754881
0,0447542483879884
0,0466489892842789
0,0446093483122792
0,0465620900500056
0,0438528184565687
0,0475124309403314
0,0449119775582301
0,0447419349462437
0,0437118906137638
0,0472995112894682
0,0438491258067621
0,0471393269871799
0,0444989989456899
0,0451999923463117
0,0469408767443252
0,0523451374362751
0,0510958477816934
0,0493905813499837
0,0437792261753279
0,0427780429989929
0,0435097983823423
0,0454438245059184
0,0420870167171452
0,0439754790264753
0,0430761423636004
0,0451551824096291
0,041953777633886
0,0453266090082605
0,0448917650560049
0,0446712664005996
0,0434301844353411
0,041686621070567
0,0403188347247401
0,0427661132630776
0,0421830966789159
0,0426002423012817
0,0436009240991646
0,0444779330207849
0,0439170315651877
0,0467152775704526
0,038720868653481
0,0510757095967959
0,0538865259990301
0,0549540754724389
0,0381545094819256
0,0480367774211651
0,0389785001676624
0,0457236730614843
0,0370636185405324
0,0452035576294793
0,0384395951273351
0,0459270519160741
0,0435576401289107
0,0449442260692574
0,039709660428744
0,0447884757325327
0,0388349047256021
0,0439650958501041
0,0386331058606053
0,0459109906058361
0,0397422909238928
0,0409433433113428
0,0469829022365868
0,0566968423981845
0,0466063682372186
0,0476845248096196
0,0389769772265188
0,0487408995258367
0,0478878455906058
0,0592120153646812
0,0397590188647962
0,045349110484529
0,0428901806879547
0,0423966869240308
0,0396139313280975
0,0400921192673408
0,0431199521760446
0,0468902079296703
0,0467556532123294
0,0443840999657631
0,0445055389746858
0,0417005963522916
0,0417273798680616
0,0421800520934625
0,0389479806804643
0,0425091897139343
0,03944670827934
0,0428298469511552
0,0402225523358307
0,0435725278631158
0,039829236221636
0,0406416998946048
0,0414224220035053
0,0466612693067713
0,0431504559568943
0,0417810681449789
0,0419704216927397
0,038833955058404
0,0449385242657532
0,0526611342943529
0,0488457956718668
0,0408671139422563
0,0408034884839531
0,0405320811890514
0,0406080529022116
0,0448258699717978
0,0407779889225575
0,0420389714407367
0,0423788513738852
0,0445618180598242
0,0404452188290538
0,0432553111447805
0,040014154815605
0,0407891961435364
0,0384316983622402
0,0436166830207095
0,0384462591419095
0,0431573076426513
0,0386445965549996
0,0459337410490376
0,0450629743981816
0,0673385522117712
0,056230490822797
0,0545555324558804
0,0502593155093775
0,0431567800608979
0,0430803624013014
0,0409326370703092
0,0436285717957579
0,0429713675358807
0,045157829470196
0,0439964930141236
0,0466757446729297
0,0415417155994789
0,0419139500507368
0,0403232971064885
0,0400158309472781
0,0414848241643755
0,0421339221302125
0,0400527798605386
0,0434515333624502
0,0379818202653015
0,044290711189383
0,0492340199639137
0,0534156452741244
0,041290230611606
0,041335425620434
0,0602602687974387
0,0664811159905754
0,0551818721883386
0,0426808422148964
0,0471417324019566
0,0394252189906069
0,0453487259188027
0,039868245371007
0,0470745858230734
0,0440470809409471
0,0460313421745022
0,040667996895211
0,0479405964879673
0,0403486260835747
0,0410849102867588
0,0457929584246259
0,0693939040893182
0,0582252497233633
0,049712131414186
0,0395915957417044
0,055512361638785
0,0551535872010553
0,0582071716480758
0,0426097713176868
0,0513972581949822
0,0419076709293649
0,0480041120379254
0,0415151622563516
0,0438402097344988
0,0453862017781984
0,0467553777882303
0,0447313322613631
0,0455756682628092
0,0440040107067552
0,0472873258631563
0,0479205727053379
0,0599752913367915
0,0528932123791437
0,0486979930719767
0,0473592894186745
0,0523908100447765
0,045747945392082
0,0489459725136927
0,0457878554350893
0,0439187876465112
0,0552801613091187
0,061643380308592
0,054923603716468
0,0600444430885439
0,0576475619714273
0,0512317135367935
0,045932887357848
0,0639688834388242
0,056004877217653
0,0467836354605592
0,0576040673855569
0,0650107442671633
0,0803231374765965
0,0588092095147396
0,0599998515615348
0,041170958065138
0,056519329905614
0,0422325551151511
0,0556996122337578
0,0567576743594413
0,0562839503900647
0,0482234546946985
0,0481027618660075
0,065452626330863
0,0618071860649581
0,0593907405550496
0,0536005562909354
0,0503280054540013
0,0534170132753402
0,0682615466061764
0,0536999890695603
0,060113001665137
0,0564510638061569
0,10311824106058
0,0791710891078932
0,059033234374263
0,0567253345504915
0,0799929432979232
0,0670544440029752
0,0527845558780062
0,0559943617195363
0,0584108255996606
0,0500219355485425
0,0650887533932151
0,0736661383289808
0,0712082200711228
0,0582486746356472
0,0581905265151338
0,0553910620923501
0,0724299026514955
0,0744565731773716
0,0591765761692762
0,0608682658113419
0,0595244955474392
0,0620070015772369
0,0971829927371792
0,0809031371825328
0,0872889901122715
0,0748852421225775
0,0952729775297611
0,0719426420857357
0,0819240769537705
0,0631835838364667
0,0853979127410263
0,0844196355566852
0,0775519481869308
0,0568455742472577
0,0904484715819241
0,0827651964628589
0,0864126696908265
0,0692440841159253
0,0767968523695644
0,0635744993506168
0,108139146465146
0,12399220614482
0,116823480966939
0,0771463061622329
0,0870248879487977
0,0972179081378475
0,0900003112238562
0,0750285883136249
0,0798145899008108
0,0808442219109217
0,0808603271018607
0,0776024983217731
0,09294030601538
0,084741524286795
0,0897673317242635
0,0808062099358711
0,0884473020404007
0,0910830660501572
0,153994152352173
0,111986609180994
0,117208141689716
0,122813278267101
0,129056649751076
0,10211883744138
0,0971639822778839
0,0913621591317292
0,109578453581426
0,104604890934574
0,0979579120097023
0,0953029723770807
0,123686264981275
0,113753808697742
0,123773248826078
0,111279562356246
0,120818784645204
0,101764247741776
0,124392177975408
0,180126318211276
0,161254506179038
0,126655047870466
0,133304343110239
0,133613769924642
0,188455816214503
0,145206571255268
0,130115766237517
0,130972637588823
0,131147823443523
0,130824869195431
0,14854569724249
0,150260164842642
0,163295781898765
0,146352176783578
0,149507237949286
0,151627523879985
0,241840294356481
0,229891006685179
0,184776526460305
0,171261009799517
0,190637243063349
0,192890081187632
0,181240121856692
0,187355674744709
0,180159698609694
0,198194555508501
0,223425785498382
0,217843039747534
0,198544238688977
0,219275479794398
0,231734995044684
0,217680660160585
0,249360744417142
0,25399891151405
0,242153642642982
0,226976615184056
0,238543804139868
0,226992861454373
0,239089468109927
0,262339157235943
0,276808476652238
0,249670904721128
0,260819066195723
0,252357300734459
0,261294010882469
0,263913634154345
0,268183543619569
0,266759927747532
0,314679968798426
0,298967429967428
0,422922671871963
0,308635990700865
0,294453702162869
0,272458950461727
0,29450268050624
0,295253484888393
0,317844429587815
0,314140587261784
0,314305370096482
0,281433153989153
0,28243673880548
0,285346792866816
0,282351071307374
0,284711583364937
0,287357928493094
0,277203598188221
0,312628616366236
0,287132070126134
0,346125873350034
0,333999058833054
0,308100726485622
0,273846587757855
0,287252168133108
0,274596529708258
0,286959591786025
0,2684475197486
0,299842875866278
0,295362526084656
0,292398617354205
0,272271962150357
0,270933114770794
0,287908695128836
0,300298658983889
0,269585346705529
0,273417068779466
0,267629048268966
0,275566353263926
0,253890106555089
0,282310357451642
0,290767055478969
0,280101932226171
0,249728162460009
0,25894014213052
0,246705356772361
0,257486068562675
0,245310872234121
0,255924996995409
0,244260873770924
0,24749101696202
0,248347786226132
0,248336405132949
0,239276433179757
0,240675288501133
0,239362178863195
0,242905705232318
0,23429330264849
0,243629393348693
0,233591234824676
0,241086616414403
0,230087686543783
0,241817296037848
0,23129090722952
0,2432189033242
0,238304078820044
0,233101864263947
0,230606876597458
0,235217390246656
0,233332843361258
0,232828333634307
0,227331429216102
0,22767834781707
0,223505248245165
0,231749211042892
0,220691804708935
0,227294696044262
0,222349801146338
0,226874845978074
0,222383459093962
0,226233723820285
0,216661467779842
0,221214212266432
0,216251472119021
0,274339741106151
0,244585208753831
0,22540718266624
0,209329994642561
0,213556727794575
0,2046679976489
0,208448169285983
0,247905403618219
0,242408954384502
0,209021900191899
0,207615325003484
0,195413394084762
0,218456926205279
0,200438755826824
0,203232208868607
0,193207530305614
0,197746868551864
0,195001870885239
0,261921983345747
0,27153171523292
0,272986322718461
0,21965476251419
0,190100895548552
0,209015065725942
0,224214137202163
0,192431128799416
0,190133292535464
0,180130800933317
0,240551019548637
0,2014244906329
0,18515346716349
0,178303100991701
0,178583405827029
0,205927046195225
0,211050201935502
0,197733261662174
0,199932133003081
0,208502103444322
0,204776764668193
0,225972492922509
0,26432140862282
0,209342412506027
0,179090809041023
0,176198101071258
0,17356082595449
0,172718102488429
0,234070607027889
0,181110729594857
0,192362653777245
0,161616081324215
0,165074255248552
0,162641203189166
0,191564941481567
0,17209604933392
0,181642403181007
0,194497251458748
0,163314303457842
0,168889262172179
0,185213870722305
0,189527947622312
0,227884273050084
0,17496577629958
0,155173181276698
0,192354195803746
0,207444076996968
0,175938252218626
0,180636273114196
0,147968585988428
0,160099519236648
0,171316446165337
0,154825765448317
0,177170763884705
0,176956670976721
0,186279105546268
0,215757196803109
0,234051135555474
0,213032655450282
0,168157203781229
0,148261342197184
0,147712770271194
0,159511147641397
0,152236000322717
0,148038729252153
0,179864895480047
0,16066704440298
0,149933923595313
0,200430968843976
0,167896734131799
0,156526177516531
0,161360683047411
0,155776043464706
0,164740083575828
0,18836599193437
0,218028532866387
0,189298240014915
0,184335614909666
0,203351198144292
0,176967796869571
0,180006268383433
0,172358752598861
0,183787631337387
0,184314918475544
0,2026795873943
0,190931058949213
0,198120550808852
0,197470898473003
0,201843463560261
0,223952643479893
0,238782269130197
0,213661628334081
0,245331343230181
0,248555682441054
0,296318451576084
0,2543050932246
0,244329858237529
0,245198532354354
0,252841695086855
0,24916903521818
0,252583219380238
0,263783440176204
0,301721175626244
0,263898458982245
0,274670190834919
0,269970634541761
0,282777553257684
0,277575132841869
0,319082407169652
0,308356408545468
0,354544604960519
0,338800229894485
0,324736560569126
0,303119067812739
0,290528880296687
0,306813647038069
0,303646242172264
0,294075771819505
0,298406774757269
0,301365135582548
0,328050667732036
0,30719422706769
0,307415987633607
0,305718290161814
0,307155712515173
0,309199778386631
0,315720699884489
0,311865442023083
0,318562776867605
0,31290127974661
0,324410669077567
0,31292099681219
0,401289445310403
0,352146347146762
0,337947322913551
0,330894616299601
0,346492885743186
0,33741902633599
0,343912302661158
0,362308353832999
0,359420569426263
0,349930556864735
0,354705787480448
0,354776792405023
0,353447205031048
0,367113118513904
0,394724132974281
0,357728919281101
0,370847307900219
0,35510318386587
0,382086885124821
0,404649801051438
0,395522823352085
0,388724794538613
0,384664564058979
0,372030067903105
0,372408033250404
0,368902352682333
0,379395902846755
0,377538342564992
0,379590483699312
0,383989591085106
0,380648780770376
0,372574741832812
0,381579985347856
0,382034886915584
0,406529588607598
0,383298038838063
0,375598929234725
0,373105241434434
0,374088234647099
0,369451227413911
0,3983596001746
0,391479164887386
0,376962833346646
0,375589571259421
0,389012969994906
0,386920786181132
0,387238044769086
0,363369912778285
0,369757202345924
0,367764520530867
0,370667461673892
0,365223794200106
0,383062777156166
0,411030727179981
0,387260067282853
0,381292146605994
0,385547767584532
0,375492168633593
0,384372669507847
0,388951426661405
0,38713456817191
0,395978260613354
0,394080100496841
0,394518689495529
0,398024932530761
0,395379374220916
0,412727192830139
0,419298113906794
0,416952200454758
0,400416527056644
0,399915257395266
0,398795382477816
0,398312279430256
0,403792278849358
0,403695493824658
0,39246454387042
0,392765338947904
0,389180081164937
0,385295795548394
0,41606269568315
0,391495394454657
0,388265824559823
0,3857878777986
0,371884917095914
0,383902718685402
0,372591948557296
0,372285858775103
0,36945133813867
0,373540895530317
0,360007842031865
0,362343471170839
0,361517937499507
0,35952887546116
0,358471151169797
0,365230870357618
0,357171058922788
0,357847867798476
0,358928749097955
0,354345864784513
0,353624268972615
0,358119960999325
0,35247831322994
0,354062771265159
0,363650777056364
0,376309594780284
0,374704159168714
0,363574599493393
0,355022220098043
0,364943583805097
0,34890496973247
0,358597861949128
0,350045612507713
0,354679948797602
0,348537966398648
0,350545112291019
0,350602746870723
0,354365435818348
0,345009744409874
0,354329797379651
0,348612773382807
0,346375405433248
0,34284260293589
0,34615296298474
0,341932026016986
0,344985603384667
0,342951276682171
0,356907149329398
0,345563299169237
0,345848579365157
0,345596900326875
0,343043312635485
0,341592179725978
0,346055873356047
0,348904615562685
0,344812189177695
0,334918754397326
0,342175538536179
0,338555193129421
0,341322180588996
0,335315320446591
0,34018791690178
0,337391267360207
0,337344290229661
0,333361769234632
0,336504374454568
0,332915532050411
0,326293328274749
0,32679711574301
0,324330362391398
0,318938995953567
0,320091715194096
0,314844279075551
0,3127355225877
0,312420306777918
0,308952214247414
0,30639031587367
0,305713797243902
0,300718643925214
0,301848225720056
0,298842237187372
0,300525867965024
0,293568848408871
0,294934705177862
0,293269304165129
0,292637495794113
0,289637915623949
0,290415825082699
0,290834416873781
0,290942322416229
0,288574011116852
0,291978103411878
0,288663668387965
0,291397531225792
0,288179803914638
0,293832466166734
0,291165879206186
0,292539333111828
0,297709495337061
0,296474775900868
0,299584919465416
0,300952827700792
0,298499704211501
0,304631782842722
0,303722336171028
0,304449535133656
0,302629676011676
0,302826028939177
0,306281161271206
0,308380710245899
0,309392637085009
0,31243405417112
0,304688928756479
0,307696573210825
0,306944227150108
0,30664793356481
0,310057084207365
0,310066395969181
0,307526691550908
0,306049647163871
0,306797647891154
0,305130736784234
0,304151060441157
0,306347593257913
0,301736121621658
0,301855407582788
0,300670504455495
0,30115798046329
0,30488289130737
0,299561386532089
0,296620269575212
0,298392131028896
0,295981157485801
0,298062983051439
0,294754087552666
0,296751212646693
0,290923562355513
0,293464164434999
0,28808253500415
0,292749629275789
0,289528300594969
0,288910584557428
0,287582798462103
0,288486525630104
0,283186279160063
0,284919088365819
0,283843229221782
0,280623198087113
0,283455551670623
0,280976113500561
0,279384845962639
0,278998356399565
0,275932480625652
0,274265987785579
0,272446584869372
0,27258804637842
0,269582856754657
0,267493014479139
0,263969272469009
0,263913558754644
0,262549827559999
0,26160288952852
0,261755451122211
0,25710915389363
0,25729698177255
0,255702423009242
0,252459021492206
0,252496491047753
0,253653198440556
0,253142145749014
0,250414845480831
0,254131751985625
0,251036380034898
0,251351076192548
0,250272637077181
0,249304278110467
0,246023791589229
0,247070682757217
0,243550116012086
0,243940434799067
0,239878132292733
0,235971151381225
0,231676434410287
0,23042982795235
0,227296065879291
0,226275706310825
0,220966607769844
0,218706671080565
0,215809038783175
0,214655741799505
0,213570749286054
0,21402847397612
0,214454953691085
0,217842169959093
0,218469155535619
0,224444773578303
0,227556480641347
0,23631456718241
0,240036660108721
0,248235571181114
0,256402140200297
0,263058944021723
0,276333979674849
0,286698349236911
0,29373971211654
0,307376498236609
0,316373238669367
0,329669700757434
0,338560909935141
0,351351133455335
0,363746488231864
0,375721209392209
0,388682336787037
0,39932382757561
0,41317427053086
0,425938477728194
0,434840570679913
0,452437102242601
0,463390931955323
0,470490804444822
0,483643662648832
0,494958541430494
0,503457711619544
0,514936350669501
0,519470070816439
0,533311596676368
0,539711353150582
0,541074500596189
0,545783287651056
0,552155920422489
0,547418504548212
0,552826152971255
0,554766596622283
0,553328916858622
0,549503629276011
0,549808917766691
0,54875482839118
0,549959930408952
0,547627190933638
0,542785808642854
0,539489706523835
0,546288974368534
0,544055182695112
0,539887450033004
0,539871468283279
0,544605486463812
0,54599671499346
0,548546500348985
0,548821725978464
0,554814411974847
0,557577521143553
0,564913315978075
0,569919731375538
0,573393099069179
0,579828346915499
0,588885342335104
0,593412703877725
0,599291854061275
0,607959098531698
0,620876405404105
0,620114531842925
0,631545204804084
0,639011019005779
0,63940276116712
0,651281626381711
0,653201555255625
0,650953382756675
0,656752049080451
0,65947110782276
0,656664881435163
0,653325722807678
0,65307933296945
0,654324118508691
0,655322367097578
0,652558363596076
0,652810949256956
0,654841719558939
0,66071024106004
0,66114369189352
0,667215578381734
0,678489157436568
0,680630518079809
0,691157079775297
0,696548090244647
0,709167902363581
0,714723810057236
0,7131812324199
0,731073229425472
0,73423461322827
0,745384144854717
0,755820005977822
0,768584918283776
0,778316850071281
0,794287196017622
0,790993200510534
0,808653360416275
0,827000465029001
0,837645522099079
0,853304260072545
0,883364460893869
0,903826408509457
0,923759632341191
0,936835897983066
0,952671544313109
0,98078874448932
0,977284405420655
1,0104027162018
1,02125545930201
1,02452867531119
1,04209811967151
1,06279138704254
1,06374457033161
1,05329603074612
1,07343814034249
1,08400389903342
1,09628233877278
1,07776097314736
1,08241941388823
1,07983006539604
1,07926463779699
1,07472193921476
1,08254577277566
1,07739592072675
1,08026598911746
1,07589410776286
1,08832623879583
1,06433822604189
1,07136716134977
1,07507963858999
1,08862840590671
1,09757132632493
1,10589676205867
1,10586554287989
1,12941464181924
1,12338764523721
1,14892302099576
1,14911531132292
1,16047614201231
1,17788320422362
1,19152816411961
1,21709249736832
1,21839206386025
1,24758545420827
1,25804727580415
1,27775132502043
1,3081476756277
1,28893556917148
1,29712356791725
1,32484029706101
1,31522422552577
1,34587924164266
1,3795973405744
1,34810387989522
1,35474925751417
1,36560087906965
1,41825317590408
1,42943754020049
1,42603492646073
1,45728762948911
1,47824013494141
1,42420111923652
1,43967388217712
1,4919925008088
1,48760306015855
1,51463019285266
1,47537088345333
1,48818159015009
1,48953573778147
1,53028820535106
1,53425890479645
1,56790170335262
1,56013089231361
1,54495936228965
1,50062351810292
1,51517174383915
1,54455254368807
1,47555208449476
1,45343883000457
1,47867427852997
1,45191974637438
1,38140135147229
1,36903374877885
1,36292348132732
1,31875556701129
1,27387230632301
1,25876669230535
1,24128576374432
1,20600260915237
1,2000200200846
1,19648234950848
1,19265888160606
1,17552091783657
1,16947294460597
1,13294536214359
1,1332271767459
1,12809261431933
1,11246854633816
1,09829655374692
1,08695905727513
1,07688836165595
1,04861419576819
1,02803171107198
1,01601138150904
0,987248434574597
0,973110254685242
0,946674142205844
0,91536651136924
0,89287764350127
0,843710960548626
0,807179387324236
0,769575456823235
0,744386541020754
0,710003607171002
0,672099760679882
0,641307795981269
0,599936521351095
0,572710595204767
0,549348118018752
0,516898180105932
0,488057998209266
0,465715256943684
0,446481033660257
0,426461101492684
0,411220787391453
0,391731846256259
0,376736482479322
0,361733483724902
0,350629972880765
0,341023253530466
0,331475877949058
0,322067514948804
0,314858083633715
0,314739584501723
0,307952872596038
0,301672002289284
0,298639382382868
0,295134415885058
0,295445531235868
0,294684566588468
0,291408014638525
0,294005348887394
0,294105376893671
0,291038917225393
0,294127732940877
0,296519383427909
0,295291190845185
0,300194984241863
0,302288926783937
0,301931975707621
0,307842819284266
0,305290214832964
0,305279401295916
0,309331323921823
0,305055383306829
0,308794148107347
0,309209811306857
0,31071792797389
0,300565654123077
0,30628402608697
0,301525348331015
0,302207202425711
0,303724780129488
0,300525667130989
0,302549671710036
0,304449784863005
0,305151618348236
0,310040616225991
0,303779028880615
0,31314686438609
0,31268472895836
0,318758281747705
0,316561248636846
0,313975963770106
0,313928856327275
0,312951051134475
0,316256242056493
0,314546488993119
0,314806232448777
0,319198983472223
0,318979297292613
0,318177749067461
0,315335217757513
0,316996256670898
0,310367450179083
0,314441966617118
0,314075953087437
0,314643332602969
0,312673571077948
0,314324019115124
0,315626705296788
0,320377887988283
0,320507819744524
0,331443377457039
0,33000672848096
0,333424821484585
0,335644492047781
0,343466330772015
0,350922901368645
0,361728927168575
0,369218125003098
0,377525660101905
0,382107305349285
0,387948824026975
0,392841860844608
0,397230963866275
0,39098833432478
0,391951879864786
0,384367781884113
0,38297608518552
0,37743500648918
0,368629416586895
0,358939529125561
0,366832258800414
0,351254733577394
0,343541264125129
0,340224860234626
0,343289196733541
0,335705191850941
0,338639217185251
0,339281888041092
0,338336256448035
0,340635451108471
0,345043400245438
0,34230475782726
0,34743491324834
0,343418768213541
0,339666583526107
0,340731194622909
0,335683385376875
0,328067451461213
0,334737002648512
0,33113082882905
0,330099217399542
0,32717322021574
0,323317733358966
0,316476120177661
0,3167515090245
0,311036949763946
0,322282569740406
0,31446206192208
0,316549579666109
0,320797229978515
0,312899173027066
0,312059575536715
0,314830741300929
0,315338385684711
0,308834869043178
0,311644726797237
0,318203589695568
0,302021070979598
0,310683673575183
0,294864110485285
0,298341962003831
0,300462656441119
0,302514457533053
0,293799771899288
0,30296159724608
0,288563600033046
0,292251235169968
0,294308256422356
0,281947777046323
0,289392975598042
0,283604387247824
0,277830517318507
0,287820223824687
0,277526805049764
0,27777953161343
0,271989757398416
0,265682105413839
0,271953683248683
0,270120239977035
0,256830148007106
0,264215458159203
0,257779966608179
0,265459975987404
0,271955773520535
0,264611807278552
0,263932735720166
0,269702391657259
0,264907879522341
0,270220779505354
0,266367928046909
0,269041580816232
0,260902120853418
0,281911146114436
0,280025581182568
0,274134265933043
0,269892108522572
0,276270111104171
0,270668106675164
0,282354305082209
0,281586010426092
0,27771054725265
0,281747334015647
0,297338987973067
0,293110075907709
0,297009241255167
0,286948341103138
0,305978778244979
0,295636808947519
0,307089698278056
0,31257012932225
0,311382343995762
0,315304566325241
0,332068761456108
0,333813739734334
0,331378358952302
0,344892384104522
0,354252489720433
0,357824062552105
0,380893833382505
0,376361336817361
0,381849764948196
0,393555502077553
0,417671205987253
0,426814141491712
0,428009187102376
0,428620673893228
0,443711273224604
0,444038204879001
0,473817940087908
0,468176753791162
0,457282865346476
0,451519934678506
0,460562303737004
0,477989151915385
0,469360991537426
0,449943320425411
0,45209353299656
0,463126464574549
0,449424026087066
0,460178613626663
0,49134011491546
0,474745880507313
0,453901774527145
0,440603458361611
0,473753527063755
0,484925985949877
0,472909174227067
0,440389225764216
0,457771128105119
0,456590067377314
0,450612137292926
0,44107793667632
0,462022965965775
0,444251114309644
0,437508827368647
0,443161178846906
0,445177700853142
0,441490661963182
0,438405148299065
0,443439043884421
0,470696239359629
0,440699729338248
0,418784770440587
0,431240099217422
0,423549498630045
0,405100201576953
0,426567881984878
0,416732963005882
0,410951367644366
0,43281240539627
0,419971277409886
0,399421014303039
0,444747159186442
0,431072493623339
0,43631604138629
0,418331316997211
0,427642182549642
0,423814820484454
0,437833476135658
0,440249054877464
0,431349575465671
0,437277442310069
0,418346308356838
0,401976795730335
0,427729209230195
0,446365906419774
0,434626145494222
0,429695192145189
0,394923671585254
0,447187659164193
0,435880826478063
0,422377275896244
0,446480625279492
0,449543405497125
0,480687922618252
0,447915503998926
0,463928954256756
0,475335008339422
0,514233800915121
0,498624767263347
0,466773723847965
0,499819607364197
0,518417540269149
0,485638035007257
0,488966564000174
0,511217179147295
0,568380564606304
0,557797194068418
0,56435930936372
0,599086307574645
0,568904158446802
0,557423642364528
0,622737764532101
0,619643464419741
0,598402150440315
0,578303162609541
0,582591526724872
0,542622955082333
0,652506630333644
0,625563370975749
0,578791574497317
0,519717770900314
0,643315141826015
0,623242354927468
0,592359446056361
0,543654817128078
0,498486611163796
0,570613779871456
0,504401169630342
0,510783649174855
0,562548031093147
0,592159096662765
0,629868383401014
0,555616821526502
0,546167599776819
0,520967282241409
0,498308697391551
0,568297916857885
0,510353373612624
0,585969180895211
0,646824704219682
0,540081071996454
0,524299973943273
0,580273450352411
0,568083144191346
0,701772794189745
0,701042010028122
0,633523908786559
0,471953264740079
0,526414144044505
0,593774004066972
0,504060595691458
0,502238535000402
0,774024245078789
0,556522918338799
0,524273766986282
0,617638553438032
0,887414938384097
0,756475143347413
0,526020961183503
0,526447093824105
0,498437007647114
0,816778107423016
0,659921234423268
0,495080561428578
0,728545733709158
1,03340546819696
0,774175448898708
0,410562832124207
0,7368632034591
0,696836864098753
0,574267163876648
0,445391931468764
0,463543188798233
