3596
4000,36533379555
650,420452594757
1
2
2
0,0695219895687462
0,0777167163554716
0,0612014148652836
0,0777274968944526
0,0658441850685439
0,0862873603447981
0,0665958556335104
0,0809813437734501
0,0609153645993553
0,0820801763203707
0,064163635390765
0,0801087266772235
0,0612992466606963
0,0736612807407474
0,0675979147721423
0,0760764998691543
0,0633643281411906
0,0748508982340721
0,065991581043394
0,0747455267492885
0,058415688425687
0,0761803454152721
0,0661514268034279
0,0721382008511722
0,0686854823170872
0,0756134367842518
0,0615318625744428
0,0735872151584673
0,071406325008596
0,0796597529100111
0,0584924492624612
0,0744429505251491
0,0665769662043022
0,0761526239629946
0,0584850268884933
0,0798194507053497
0,0602782074648226
0,0749336191854864
0,0635502536920554
0,0776429875679549
0,0705715988350396
0,0865841240250236
0,0670736828771728
0,0732744177289148
0,0649596044995329
0,0811172323856734
0,0670020916918006
0,0720163322493523
0,061210081253664
0,0770056657970624
0,0640855407849087
0,0642242273095986
0,0627226021319434
0,0924657633628742
0,0645733893104747
0,089488982250278
0,0747610403723113
0,0783902370921422
0,0643647910695639
0,0795722493324904
0,0738182800900204
0,100016323184867
0,0691025588623777
0,0789701629867501
0,0533940397942053
0,0728999291698359
0,0615501467536255
0,0687397852354197
0,06185953744727
0,0846777325130836
0,0570811775857651
0,0847048955586109
0,092805643289343
0,0762747427641611
0,0636004415000787
0,0778662416125992
0,0629496786565155
0,0766706325208005
0,0577234509699481
0,0867829865787958
0,0752868411558686
0,0837931613945145
0,059593300208679
0,061778854695954
0,059607361013118
0,0924564863941082
0,0594578334465182
0,0706125328622586
0,0923466833085441
0,0841158526134597
0,0620213162246894
0,0675321379798867
0,0619159622157432
0,0682112910124399
0,0584394954624728
0,0646790829208767
0,0599625333273409
0,0643893710706307
0,0598752370193746
0,0615665062428854
0,0699137422387576
0,0726588475065279
0,107945511651437
0,0718268848788088
0,0919635291015159
0,0967061564809878
0,0391205482297329
0,130132739719485
0,0879589806254094
0,0887377637044421
0,0603740045870737
0,0700661372692713
0,059850675239365
0,078097449610733
0,0474823369914328
0,0818570527249946
0,105467095345251
0,0790096131671513
0,0655741442577567
0,071578998230152
0,0417387596375849
0,0874234620156926
0,120243371017934
0,0748271015949779
0,070075102702372
0,0729432618323292
0,0529828859921316
0,105526967971145
0,107702016132197
0,071273312228187
0,0611904672268694
0,0642169539076306
0,0496968622073288
0,0450755494704571
0,107297489260456
0,0923242955205208
0,0630775161028261
0,059476412984606
0,0519346193752814
0,150026913494876
0,081828904854005
0,0745379628239128
0,0590214944419266
0,0647151948143805
0,115910111227707
0,095130536146253
0,0528312778184942
0,0835522659709908
0,0896896807848409
0,0585724308551405
0,0552730125995939
0,0573863655332787
0,0750630559916978
0,072368451934972
0,0219381915723378
0,0747712076600418
0,157754559842148
0,0887856162362966
0,141132456729778
0,0905190749727992
0,0688970363069858
0,07755755148012
0,0589751576599274
0,0708760639510789
0,0559664574317272
0,0620575423929315
0,0627978819284903
0,10640195604964
0,0516500694652933
0,0746865234966449
0,0935091191835697
0,0968869601078887
0,0386744817370687
0,134866976556032
0,0933601345447607
0,0555438090882601
0,106913079165186
0,0904993407460662
0,0565539710552051
0,0650374686119661
0,096085185303278
0,0717806053584728
0,0665476757260259
0,063488344669304
0,0605617124581889
0,0911609187876634
0,0718652633103022
0,0719926455777783
0,0663596987650499
0,0448583340170352
0,0645834446485124
0,128724264417691
0,115971699554951
0,0825340524547584
0,0604143217673762
0,0378935607644632
0,0713223881563083
0,130570292580152
0,0695968005577185
0,0679340291648748
0,0550970107959184
0,0613301932466201
0,0613670215014297
0,0682276508627532
0,0510181780073582
0,0402781994763846
0,0992985267377153
0,099776559723489
0,0619594770688663
0,0677020895779123
0,0557572780140471
0,0681986354253672
0,103388693248839
0,120983322587998
0,0592364085386411
0,0732449729727979
0,0443928057770569
0,0801842116536934
0,0900216085890188
0,0783082070410313
0,0610848223707173
0,0689240238696905
0,060054532135258
0,0682934130528993
0,0621400324839797
0,0717637709577005
0,0550257419139636
0,0736388382384159
0,0616311618365471
0,0651298741594922
0,0711208427929289
0,0798159364959908
0,0667305659286601
0,0713182845318738
0,0460730629449701
0,073113315819509
0,0902615099046696
0,0745858977475413
0,0673688131533162
0,0650805338500896
0,0593914818418938
0,0673690202359491
0,0660604462499119
0,0681251444767395
0,056715423844112
0,0581768651466279
0,0941527957231399
0,0948368277321913
0,059029421545169
0,0672834022388293
0,0600176498840492
0,106163849976857
0,0580329529900595
0,0752371776432417
0,0567366966000413
0,0712474461966239
0,050544383890064
0,113809927451749
0,0745534947493649
0,0704512418822379
0,072838570119853
0,0869713507896844
0,0541996165277179
0,0733170878591557
0,0362855017963668
0,153808515658035
0,0954086901457524
0,0519418469086892
0,130781753869214
0,11701571537042
0,0706886802058426
0,0733233138223757
0,00428785645656413
0,17424218298582
0,155680249626483
0,0889565557326864
0,0679160984488796
0,0929296897630798
0,0687436220465045
0,0655074829183421
0,0765453871314065
0,0801753161316356
0,109048771710356
0,14793893517354
0,141343994204782
0,0733221542091114
0,068126559954815
0,13013533315787
0,0658945406147288
0,0815875015525769
0,0571746341095717
0,0811927434698418
0,0683085948646747
0,105818053399612
0,082778634243401
0,0925418396283347
0,0667276855282784
0,116199093928461
0,0833333444607571
0,0836725513131535
0,0782813322368172
0,0990597963659317
0,0733488192874763
0,0762824373038446
0,0669744712738506
0,0902789688190604
0,0660460238619434
0,065714864495345
0,130715850955483
0,111618150691207
0,0704516254300811
0,124054753093687
0,0830878327641541
0,0820515689853505
0,0760618754355783
0,0774165770303219
0,06699462652449
0,0762103334424533
0,0625147738273447
0,111845847024263
0,0851435126314763
0,0729440064946726
0,080600616518626
0,0760014996676815
0,075176743613427
0,0821641304786528
0,0742726640018088
0,0876269784808468
0,0739866421432143
0,0725109441301178
0,0908530739180504
0,120990055095007
0,0715894329890803
0,109254645210971
0,13602227872969
0,0938458418106121
0,081073624570233
0,0879833943255368
0,0840029128234385
0,0862757339911846
0,0845119060719359
0,0823179060906392
0,0797027686476095
0,115025706686859
0,0934636386558805
0,0878314772606417
0,0880434081259948
0,166498898456084
0,166010927414291
0,123753410926664
0,0862740506815992
0,090044114917682
0,09575678796003
0,163894720778815
0,102647816706843
0,140347837408693
0,102844612263477
0,103906468917842
0,0960057097004717
0,101826780033049
0,102296955022351
0,100616076433043
0,105634360143299
0,106972545185348
0,106148600796725
0,112783899470293
0,106081266322434
0,106552114005011
0,150313444177037
0,137159839886919
0,111092684790864
0,112098183413223
0,10154200724606
0,126328917463628
0,173357730953971
0,148000754221774
0,169421864952855
0,150821625028316
0,182033611151935
0,144341677463034
0,124936015390809
0,126650305817541
0,126867739676846
0,137939590100492
0,126295136777626
0,135216973667473
0,123293693629573
0,137620914017351
0,142005806701811
0,134708919287154
0,129286588736965
0,140569984401645
0,156854357614245
0,164206300218171
0,1392037901609
0,1430268557827
0,134033377459146
0,228556934618515
0,19263991656983
0,18172268735403
0,15361452207487
0,165723416550623
0,131236262887241
0,165451877677599
0,153885248722272
0,1760250342745
0,160350144331615
0,194155131070988
0,201597858493754
0,192311382289493
0,189342240656957
0,181607805898737
0,188738471144263
0,192725253593415
0,179636270411715
0,229307684075695
0,180815014565104
0,181181777525534
0,20487154866892
0,227663427114671
0,189276180991304
0,22609990699939
0,186734912077713
0,195612807533652
0,201557959562054
0,211273227622195
0,197518647890559
0,216525138581427
0,22305953224523
0,216621158577362
0,217319123422706
0,224144252203472
0,216159999682832
0,232852418404361
0,223180588711989
0,23415768915167
0,233460301567371
0,232936568370174
0,212798272890601
0,220706109064873
0,235614149345061
0,280050584819692
0,265809643222056
0,293436274966275
0,253678874225966
0,252076559968761
0,250806670369515
0,258323842865538
0,246190471001152
0,25497650060569
0,261689157404083
0,265745916142629
0,27097873327328
0,281956861565187
0,262245559071214
0,269752035068414
0,27710018404264
0,288544644677499
0,275785311608685
0,300450943614157
0,289391787641705
0,292862908461841
0,309312104772413
0,342655772006696
0,329591438341354
0,345490136774115
0,308329605783192
0,303638921738676
0,308674725735401
0,30770769945163
0,30813260340342
0,327826337489625
0,325619684797974
0,314235475264246
0,342705633711177
0,334921691799587
0,325441444092755
0,353115196989405
0,34393149588768
0,35448070646848
0,352602910833424
0,355459562877727
0,35081800205715
0,359349590671296
0,357557044455175
0,375137634142471
0,366647006348452
0,378475646109965
0,37384251333655
0,388937720479997
0,370555653401392
0,370847493259638
0,387423309082297
0,395763705007121
0,391739418287883
0,404244412041839
0,388810299393717
0,404169455864206
0,406386859765549
0,416637632346862
0,400128480736327
0,41759231659733
0,416476222241597
0,422948650406596
0,436571709488522
0,431663083653591
0,434887123024165
0,444932067901024
0,43734434809189
0,444460544616524
0,469026207319394
0,479483187626912
0,454083716019273
0,454917577445804
0,453337865451981
0,457383927291446
0,455785565573976
0,471250259444667
0,476129060632324
0,484424448756916
0,475701105558914
0,480176937189695
0,468254520611117
0,495126892754656
0,501877803802063
0,499363786009292
0,509741132033002
0,487981996659817
0,487647235263815
0,519179995718319
0,513036811346788
0,520425811033665
0,493115906925262
0,528082577971867
0,555652725917193
0,552282857089814
0,523862306730888
0,540861111099903
0,55136083023585
0,559682521521173
0,563656141076805
0,552503026589587
0,555149314433718
0,572995675110343
0,566844596108879
0,563449956154427
0,567060350563852
0,555966945668941
0,559819082773652
0,566602263191583
0,580558464330444
0,596238611322298
0,619864188394001
0,614820944785073
0,600987661491062
0,615072445888606
0,589398181589359
0,606303300756624
0,627370113676018
0,627708159216982
0,611111582070969
0,602931115190086
0,625724329731624
0,647476189608884
0,644832541343103
0,643687948756392
0,659506490542946
0,637795599816284
0,635316004960583
0,668188737288155
0,662227379142992
0,671532885282591
0,687243287212505
0,676054624627384
0,696631893527437
0,694463034493453
0,658655865726761
0,691444971106576
0,672543314902709
0,671453805603599
0,688626595845797
0,703206019239093
0,71083946057575
0,7051597326209
0,723383307196545
0,709644787004807
0,703611371236158
0,723127408280905
0,702714387201773
0,728460725407454
0,735761128329634
0,722320433837128
0,755733640694487
0,737618951226522
0,768528339131673
0,729830661644342
0,745966209654033
0,749139670258323
0,75119313018743
0,773231709161597
0,786020895785626
0,740181244911881
0,743453534850544
0,75141898649971
0,774793513139169
0,748052197360522
0,80500373293909
0,774226876375533
0,80606954470183
0,778072241596097
0,781969300489881
0,824933514246648
0,808418831353821
0,832936944713817
0,820582989738696
0,810444997270149
0,833493222065164
0,845573453125919
0,856366992425014
0,793013340350673
0,819007836387713
0,80966729315616
0,859714501347584
0,847768662406308
0,83627803002482
0,82509293723121
0,824917375447869
0,805976879407395
0,799249518235863
0,814344683067848
0,855602632015468
0,843395254118
0,840928476046116
0,864077561355272
0,926845636317668
0,859396821525438
0,851202235226359
0,886975765972012
0,888503882508968
0,851310053249848
0,859705803237627
0,880606136285788
0,897986969438965
0,862288330506817
0,889065122065981
0,870938727552496
0,881024805322542
0,854139998035002
0,882720996162359
0,901106924600276
0,874549410560693
0,870716740210499
0,882076631508224
0,87754714966379
0,986705692189013
0,957597809642215
0,910907024838114
0,948773126497373
0,965320318118114
0,950471617553229
0,944175729618053
0,956277289475979
0,939256159246538
0,892638983538069
0,917887532090998
0,95088259513157
0,929283324751054
0,928914592626295
0,983648854949903
0,918418239902341
0,95490358730097
0,946418128780556
0,988628353415003
0,920136422799892
0,910593570534924
0,893495397023743
0,993792947670446
0,981597374093902
0,960748472872592
0,948035369090165
1,00269612983606
0,971888793304882
0,975022160656332
0,985642530859352
0,968443209117167
0,958399249586583
0,999726032978044
0,983889934961152
1,01131556341764
0,989098054915547
0,969305310750561
0,957837765159348
1,01984540119306
0,995147348010851
1,00808737661886
0,93084493873057
0,984336397468372
0,979674601125335
0,994089350277999
1,02648429012552
0,999976049236175
0,969237411927086
1,0110189615664
0,97061327797143
1,02576540481294
0,996257150682561
0,982168322779625
0,999710022056037
0,994981429769023
0,986835004982775
1,00318297451049
1,00499173718218
1,03205336469023
1,01862645553567
1,01010252882414
1,00494555272136
1,01737676478127
1,02754357248477
1,05662782520711
0,977173481887421
1,01828930026619
0,958621917237139
1,06518320717651
0,992987500473905
0,983446718809282
0,981706284950061
0,996522503720732
0,9692397774898
1,02402540677471
1,00336829320765
1,01105200862122
1,05277266262851
1,07130655237656
0,997121458008029
0,983654651629807
0,97769456090151
1,01351839350379
1,03883770489694
1,05265213445454
0,999592176770356
0,985504162851577
1,00091353606605
1,03822834177802
0,983731062482866
1,06854370928452
0,995286722319848
1,01603386305773
1,0228888856654
1,03353255138173
1,01176824156477
1,03286518358794
1,00333394929236
0,988179196857945
0,997935889584768
1,06438208970713
0,972988285574066
1,00655807623187
1,02823459513254
1,02106509275701
1,02592558871551
1,01665650998502
0,986095693674209
1,01827718832694
1,04531463390755
1,06855788805503
0,998081032988409
1,01358910077721
0,964834857851532
1,01604725541508
1,01499466112234
0,98637817050191
0,988453363011449
1,01640895726575
0,987750309000966
0,992596248897129
0,984532112154465
1,02908528799331
1,01289559714274
1,02268613631364
0,988567161285232
0,97829352530806
0,968266602682586
1,00070555398087
0,994717734950168
1,01116476791963
0,995392744191243
1,01597234316329
0,943178875342016
0,948879287287084
0,963794386172017
0,956772158362082
1,01883962844861
1,01892802815826
1,00489823568955
1,01422790774177
1,00097181260532
0,999015701266056
0,996944334880031
1,02857210904703
0,97937332363862
0,99171972404478
0,950483076585331
0,994642541296516
0,970824449388306
0,984117428145929
0,964698526791447
0,957269727428154
0,980478987282335
0,99923510403088
0,985324479361197
1,00903628674358
0,9772640792046
0,987093356529716
0,928929057327216
0,968357903484356
0,931517008382334
0,968796733433491
0,978794828131201
0,962406638974818
0,92502024601647
0,97186694569178
0,937607254699183
0,965698103199309
0,928289891735209
0,948509343034556
0,959981185270255
0,972343673461727
0,933925721039149
0,902288090772636
0,909376876987854
0,930338508203957
0,918599809748205
0,930351118766747
0,922454750890914
0,918414044274667
0,903673779301077
0,977694414856374
0,911249905237831
0,929880267728124
0,90993691434289
0,925640470650636
0,880247667808332
0,921356255244948
0,883593652699627
0,934567630556984
0,904435391747993
0,892375548689428
0,871993916477783
0,903838355983644
0,887022997941125
0,876308005895896
0,874431088811781
0,908348252756278
0,854969969778643
0,871878747343098
0,857681972178577
0,890212419256288
0,85164052679034
0,877644369145552
0,842111068078994
0,855728488696117
0,859454355292127
0,850165098258362
0,837591123597069
0,858079445035897
0,838909713748151
0,822538127191388
0,852228144940491
0,853776553134302
0,816290043655428
0,845753154644277
0,816039671244224
0,810537484161881
0,804252004562057
0,828748040809287
0,791275863442872
0,821818654330709
0,816343701291326
0,804133183950528
0,806578459017937
0,81084045056653
0,795247173767537
0,77918386367754
0,790129170217357
0,802458786018527
0,776990025701933
0,778188770778081
0,788181242211653
0,790041818836941
0,761831667490932
0,770327339634428
0,734214438529075
0,768946554618636
0,743407736254117
0,761380774619001
0,741823040810682
0,763265238450653
0,736227582598023
0,724133691797898
0,712925965438322
0,736034262420921
0,705499231596032
0,728578039655274
0,707793007386427
0,71521576895095
0,707811363739624
0,722050086985758
0,710697362923195
0,704402362285926
0,708821162594233
0,713936858327527
0,688074197591586
0,696321448773838
0,683412578169086
0,702377813366686
0,683567442224142
0,685108710758711
0,669914656591334
0,683060694889341
0,66992998581492
0,669915903637407
0,659906323888972
0,663251208823091
0,648325802093162
0,645831480064985
0,643369803432329
0,653989321383313
0,641932477351888
0,63481693338593
0,630452432004915
0,64948780698832
0,626626142442579
0,644141220990328
0,628851782371249
0,622655760930809
0,613450680460923
0,613065820831807
0,602256054281213
0,61645507183476
0,606731300965713
0,608575872703141
0,591667949268857
0,601759466929032
0,58050339723153
0,597216415726821
0,588036421358459
0,590826389186234
0,572646252953826
0,57033049662326
0,568477382568561
0,584690803317453
0,569678534344826
0,572212116861011
0,56272191817726
0,559070138033243
0,560928081782412
0,56401933686844
0,557553263137926
0,562448883058803
0,541261819891281
0,547448776713724
0,532665838490088
0,542049146096532
0,530955264512859
0,537384892557408
0,534158711150359
0,539107079554881
0,527434895747785
0,53447679153995
0,509508945600333
0,522531915208287
0,519001853352071
0,517788338833843
0,511515660535995
0,509812556190237
0,491546915351649
0,496084565898939
0,507746768944202
0,500725205171744
0,491909302486764
0,493469332523869
0,488007920211175
0,483260965785587
0,484741147161368
0,484779307530783
0,475497198917286
0,487881085149808
0,477215999684527
0,47548854066084
0,46824820822633
0,467845016853974
0,46745834941028
0,468724109942331
0,457034593118187
0,464853678942418
0,450957015072837
0,450992158057003
0,454134992734379
0,451193233536001
0,445305141931906
0,443398936638802
0,445369835620544
0,450291305211559
0,443440227910851
0,444748259040771
0,424625907679414
0,432780929545431
0,429648074993652
0,428904633137721
0,419693793907823
0,421467135586047
0,425682922369378
0,41737662647632
0,419749044745627
0,419903839714643
0,419981734535681
0,415315760816656
0,416387637524391
0,413239987426641
0,404164530905806
0,407610601982618
0,404079344541267
0,404597377581412
0,396944998228059
0,400502071062362
0,396406461282775
0,397616127837011
0,394629889319595
0,390140217630006
0,389112829241699
0,383329964359446
0,386780881977669
0,389033227907318
0,385584393675748
0,38731297225967
0,375037462460273
0,378656167331488
0,374202236317532
0,383116030648665
0,37249946360966
0,376662711933457
0,372636864640028
0,362210953285006
0,367403697382608
0,366637891459361
0,368246497957736
0,363515691933555
0,367823076535975
0,365604549452331
0,353263959425863
0,349663896645512
0,355392679839775
0,354548416760231
0,345625142673262
0,354043375381168
0,349106709995568
0,345956310447591
0,34505326824298
0,351003507749474
0,346345684568471
0,348393787236201
0,343846783389238
0,343289883448066
0,33750823687739
0,33636465336321
0,338789399419827
0,334013949792566
0,335614857421412
0,335977983136847
0,333316860693262
0,335339634719061
0,334953906278408
0,337418107970298
0,340139474054104
0,337484057614456
0,328992285050713
0,331676574319059
0,337606103079397
0,335066242512593
0,331208653816177
0,333863705818779
0,328057885517341
0,330390451181717
0,334897770466939
0,333572675046362
0,339686098222471
0,341279995168336
0,331565278082052
0,333857485638614
0,330311110513603
0,333129531613413
0,339294163535115
0,33767945456156
0,335361183578274
0,335882928523355
0,335528195805277
0,34751510827857
0,33761268818299
0,335957267601824
0,349297829309963
0,346352228512738
0,34271274751379
0,350755956311924
0,344323030407247
0,348844053491546
0,351046749963346
0,354642589355082
0,352932869899447
0,358231915347207
0,350716939532977
0,356779008934145
0,360552405019114
0,367240233383169
0,357310502733973
0,362757806441846
0,36296378812282
0,367516952335042
0,366165656827889
0,37019994086907
0,37257714119133
0,374024003522976
0,373774237971932
0,378735860336996
0,375545112760239
0,383359902445337
0,38140676687586
0,398095563627071
0,386111195957746
0,406909919798951
0,393890732895435
0,397863584312419
0,404073439024076
0,407550376106986
0,413627849702363
0,417711295658056
0,423280001701091
0,420556196963177
0,421113875413037
0,427004368333303
0,424427042186252
0,43537294996077
0,433012012180633
0,440823561459531
0,446690427139082
0,44582332862615
0,434696180237847
0,431840899399878
0,450233120474152
0,446745876852041
0,445790375908768
0,456921063634082
0,44831272968037
0,445972605836432
0,442566747386302
0,451647339183023
0,434783437424506
0,448444366359035
0,442234873437817
0,444547435329558
0,439106983411094
0,44096983058599
0,43952253938028
0,448439561273458
0,43780674841904
0,433541702841418
0,437561343693147
0,442720280185047
0,44131537617373
0,441885836469052
0,431550512794279
0,441210123567089
0,443976782316809
0,443602448163432
0,433423841364255
0,4398500868056
0,438216563564276
0,441147923712695
0,432519359243801
0,447307932177383
0,432760747478392
0,43511450811021
0,43284979615955
0,440585164131473
0,437277657567293
0,433541447412278
0,439778271269712
0,439040483291184
0,44070926081911
0,440233180638831
0,433126650877213
0,440819250887151
0,438436396644959
0,437441547135489
0,433503358857201
0,441250617477451
0,435332701075854
0,429501762766466
0,430946182676541
0,431392780710085
0,43394252585618
0,429810572549368
0,425332567140597
0,421393699227556
0,424147195123517
0,423794662205191
0,419287866237371
0,433001534584515
0,409656267772223
0,410954556647791
0,416184878351947
0,411794684450929
0,41215518378362
0,415684925920572
0,406394633159623
0,403169854767263
0,399659009521383
0,40883574322234
0,396666907710544
0,401674689564645
0,389531096949826
0,395558384139122
0,388051562330192
0,387957509986233
0,382024740476105
0,379908166059794
0,379314354275201
0,376340714701463
0,370709247715324
0,378129092128032
0,364283678891795
0,369006027516281
0,358765718980768
0,36479358335686
0,352096028029147
0,364384030715449
0,352040546184774
0,351860774643344
0,347646924612509
0,349234487740984
0,351231675960842
0,35182151309916
0,343604911040618
0,342733542358713
0,343114801172656
0,331578218657524
0,335825403904301
0,333575207180649
0,33799342126208
0,336633547239369
0,329389159728799
0,332939702896894
0,323799792469846
0,32814313768531
0,32814130672156
0,322862669153593
0,320469559930624
0,32524903978032
0,323246798504472
0,317475716966016
0,316241866318671
0,318739728423179
0,31381911182301
0,315019847893035
0,316911889945309
0,314442009348867
0,312189883645651
0,308800410792336
0,306075393809934
0,309698013852172
0,307965924836049
0,307538671891052
0,29831052137808
0,304472973013452
0,298569983478865
0,29944667304551
0,303102939561541
0,302073708562341
0,294362563885394
0,294550897690124
0,288923342835382
0,29172651686744
0,292556448846453
0,293023663885298
0,285665000291491
0,292455457466053
0,289676207522465
0,292022948779203
0,288170451858635
0,287500630435923
0,286425837838426
0,280641817989765
0,290696729541113
0,282222646478422
0,280685387327945
0,284443724741197
0,27351256118459
0,282444514991607
0,278742849088946
0,281386525194784
0,274466610576041
0,2779398855416
0,275935476404687
0,273601219670067
0,272803062504764
0,275923059983758
0,266252571709893
0,275951207289782
0,269449877473695
0,275156124311502
0,269094914500771
0,271832657717943
0,269074986805905
0,27096026675991
0,270201499718623
0,270488580836224
0,269277549174603
0,268833590800488
0,266370703792124
0,270348214142259
0,266311683751802
0,261785942957374
0,260540694637565
0,265868174016055
0,260060762837789
0,265809439187347
0,262755217037031
0,262299182086556
0,259423423438217
0,25703926370079
0,258761345410062
0,263080070437912
0,258265844200524
0,265114441428584
0,261012419623352
0,25525931279235
0,253714109837448
0,257830165942356
0,259112170910008
0,258008683688741
0,255505516207957
0,25509294173516
0,252144113387569
0,251994925048581
0,255094688589884
0,252067249930051
0,253933097111572
0,25275780931112
0,25334100887843
0,251338444914638
0,248943898439444
0,248181331210941
0,244806129125353
0,250900874643316
0,24637267849435
0,250254379291324
0,247361111543447
0,2499269251005
0,250967670435904
0,247564376103647
0,248515274014134
0,252639943492651
0,245938970454678
0,247058965970814
0,250223599626684
0,243285687914169
0,245452329345692
0,243427330788808
0,246582150327265
0,243440295998289
0,244020470483774
0,244462957349411
0,245333347191935
0,24465329697539
0,245978365075998
0,246015874208089
0,240363552018243
0,245021041662139
0,244501909019372
0,245348758828958
0,245503711868224
0,244497000636012
0,241428303458529
0,242290180994239
0,239391435948379
0,240002722763662
0,238120633856251
0,237470436611408
0,237817559262432
0,237043983585143
0,23696019364433
0,243616001144464
0,234107354463455
0,235910850656851
0,240583610113857
0,238900591950056
0,234878266877917
0,234886303333132
0,232994313997295
0,229967037036929
0,23340180456259
0,230739325803969
0,232624445182745
0,235925815910488
0,23237387703307
0,226654843437749
0,231281946453879
0,229137482130964
0,227876483530573
0,22667837916004
0,226500324854454
0,229719048294649
0,227201357867499
0,225286297077777
0,220375031056957
0,22584176614119
0,223379577715186
0,229035409590572
0,2245757200666
0,22466296275321
0,223525978967981
0,222250520383514
0,221917141725074
0,2198086684291
0,221938477287073
0,216733372610424
0,220263954836371
0,22413089740668
0,221111552672069
0,216896038007981
0,218102965880283
0,218230305378311
0,21790766038409
0,214227757462486
0,213802115197397
0,218296603574542
0,216092482632781
0,218762487349369
0,216275745422114
0,213993380366821
0,215601478259332
0,212394503949006
0,214645942770421
0,210162964518279
0,210652025810314
0,209835305872523
0,21044392174214
0,209712915009778
0,207182186689148
0,207045518760334
0,209434937524211
0,208989603228284
0,204698552294629
0,203111474725243
0,200557035890707
0,203513259707886
0,201811607456022
0,201141229824217
0,202478371379316
0,201321439470173
0,201265853358359
0,199622952822806
0,194257579734992
0,195455865790857
0,199226681637057
0,195408564256376
0,195217807377051
0,195643605237902
0,193413036429581
0,190662315037754
0,189328821699721
0,189113280612827
0,191283869506471
0,189339761683995
0,193253696751405
0,186699248527585
0,190987875240091
0,186040921778346
0,186932661669162
0,188939587605518
0,187337580664045
0,188547901521311
0,183039168532188
0,185635005035656
0,183716140268593
0,184476455401883
0,181097960349929
0,182080494651106
0,181922112311527
0,182271987082568
0,181039030041852
0,180426919427415
0,182684711828379
0,180127133795524
0,181991076228689
0,180265698017323
0,176544432448159
0,180577512456303
0,179550213173183
0,180809953608546
0,175591076245901
0,173646766201587
0,175868295741264
0,175383646630265
0,176873285026119
0,174144833370999
0,177538365850331
0,174422168463524
0,172645247278789
0,174058843170937
0,171355738467074
0,171892299947638
0,16813089080262
0,169137406988577
0,172833862641949
0,168993959775431
0,173111136839101
0,171314207151409
0,16879939074307
0,167676352857216
0,164829170631446
0,163984364827916
0,164659704662525
0,165472537787536
0,165878003905436
0,164197953318948
0,16344293855878
0,16411018302005
0,16790782584331
0,161377683379973
0,163667494321096
0,163801474041463
0,163766141532044
0,163358415716235
0,163491266822176
0,16524477879995
0,162273418740729
0,159013753531936
0,160879649329893
0,164274638931152
0,163256962795993
0,161474384138778
0,158196453547802
0,160375110593076
0,161210430616988
0,16002793604351
0,155951107233666
0,159344383748464
0,160259707695523
0,152550786032788
0,155633245578241
0,159426169794298
0,159397533637767
0,156029102906557
0,158074070310306
0,153853383839875
0,156282726211545
0,155375166185718
0,15627013162082
0,157705352634095
0,159404885098029
0,157852857331622
0,158058272894623
0,157926421736896
0,155752888147972
0,151973013388169
0,153276491200564
0,152897352145704
0,153180286235326
0,154217131727102
0,150945398517566
0,150584875094364
0,151985172301119
0,151219445549655
0,15286760023141
0,151237488200812
0,149452848651783
0,151021964498203
0,149694856913488
0,148505357045202
0,148915294905969
0,149966126919226
0,147994162540203
0,147990792750453
0,149739408307858
0,146282465325483
0,145594917215768
0,142950291061312
0,144564701480996
0,144451866463746
0,146385799843965
0,144651308478027
0,141837477599819
0,146583800286437
0,148379983885797
0,144093959307865
0,144057341184545
0,141880254473702
0,146588903815035
0,143145614230437
0,144739368035424
0,140357538440002
0,139831080598275
0,138937226533016
0,144224441475592
0,142364548209843
0,145092658670579
0,142059786327488
0,142335131271458
0,140937243350701
0,141967778030105
0,140028169980801
0,141198208593959
0,141072721210517
0,140068495657493
0,138792472428229
0,139171225753874
0,14021364345997
0,140884010252178
0,139353131784618
0,138002163675385
0,138501410294406
0,137342844029205
0,137788281805648
0,135303125926803
0,139052250222336
0,138108970238213
0,136928343898893
0,13562648584235
0,138622105744137
0,13480242530507
0,131851637741026
0,135285453647905
0,132833654388345
0,133324784749393
0,130955959117448
0,133700745033739
0,131855340346572
0,131865179310445
0,12636944186587
0,12754710886856
0,126800442275379
0,13119782322056
0,129459082009734
0,129478166821582
0,127119883028256
0,127996730451177
0,125857372614911
0,123539417170182
0,125211805411236
0,124393705394324
0,123804062753285
0,125594696530615
0,122696924118228
0,12657597950258
0,123910886834869
0,12308905078044
0,121793629738624
0,12314834569807
0,122671638412066
0,119946217368713
0,120245813045751
0,121296403873145
0,119037511866111
0,118671048350694
0,117472927255015
0,120304907109418
0,118809007539214
0,119912082848729
0,118317828635934
0,118485856387727
0,118210837364677
0,116759091971467
0,115543403915607
0,115775203781502
0,114588953698874
0,114388375707217
0,112964797495725
0,113969451836208
0,113656854025642
0,117232272828017
0,112653532480747
0,113749064360488
0,112926589576519
0,116598724115365
0,112625813092043
0,111741473252461
0,110454289910834
0,110431843745563
0,10879219548692
0,107439390209733
0,108048818010522
0,107902865591817
0,105394756633674
0,109018355981261
0,107752659735622
0,10776265872331
0,105728602614101
0,105616972056554
0,107338376012625
0,107481711596304
0,104207263230492
0,10468128916507
0,102805981371175
0,105942638047135
0,101562085002416
0,103155867734531
0,101460235762304
0,102668834231942
0,099728752028957
0,102070180002993
0,100636869176517
0,100476415661369
0,100152253844667
0,100874988458502
0,101464396539843
0,100741603733481
0,0972956539631644
0,096529155261125
0,0967608058690263
0,097670130374249
0,0961967147496597
0,0992260613083794
0,0962204909582687
0,0982583968005637
0,0966546794745459
0,0969756391881343
0,095379239203578
0,0972362846472317
0,0969551324832323
0,0963064628192905
0,0956060935843713
0,0960994364873123
0,0969193837051098
0,096503950393365
0,0952155897217702
0,0969603273582437
0,0950257631722774
0,095220150136607
0,0966347233128463
0,0984036793020178
0,0984102877943637
0,0964787332929229
0,0954721004043107
0,100341008774253
0,0955803003487374
0,099392299515039
0,0994861361768659
0,100443832969081
0,0961567449982727
0,0989060641181295
0,0934475472415664
0,0942257961229714
0,0910117727031406
0,0970126620285099
0,0976260310353809
0,0994312538958617
0,0960832951485079
0,0944558456777729
0,0971836415565668
0,0903480489254254
0,0934620809310237
0,0982326524825726
0,0888809449121067
0,0915602467677671
0,0925789326154198
0,0919395316931492
0,0919316627686434
0,093453108119006
0,0910158940448863
0,100674143681793
0,0939268270137347
0,0917727977316774
0,0884440489151293
0,0862722113721144
0,0833790045272728
0,0889968264351104
0,0920019268342245
0,0855378703625229
0,0917464864712171
0,0859400747760508
0,090243035276766
0,0859509986585619
0,0918163930405221
0,0820697265962413
0,0943797895957576
0,0793493964419591
0,0976356174020677
0,0776514267745097
0,0936036365464215
0,0733626384659135
0,0996558022934941
0,0719509479293727
0,102872379208608
0,070039819027336
0,107276714889393
0,0664315389798642
0,108302940859577
0,06348273880506
0,115332045035512
0,0606377280092932
0,11684697661486
0,0627412999954315
0,114145683637092
0,0600244661998571
0,112669647965495
0,0682717834039687
0,100755608603498
0,0725915147157029
0,0937593924681226
0,0854106676925909
0,0843644600598889
0,0927890090782163
0,0785042874431046
0,0926156158002059
0,0755795203084167
0,0944409371787445
0,0728139706028084
0,0875423866518189
0,0769481368910472
0,0836854670815713
0,0798428284232801
0,0795974318410547
0,0829436118815934
0,0773747387657362
0,0805692779306593
0,0796351535833669
0,0786885579922808
0,0798835386683747
0,0769867953636386
0,0792536311162642
0,0735827803483667
0,0784856905019902
0,0747636861998384
0,0791086133459021
0,0749824254730782
0,0772644403527325
0,0752648946145355
0,0774059528288377
0,0765012171728561
0,0783950068592886
0,0760064022503133
0,0790287392880092
0,0755635065340903
0,0755707455133655
0,0734133890772294
0,0783306020358716
0,075323771226707
0,0774875160399514
0,0754423678743883
0,0764420867264693
0,0759414971583682
0,0772883676128113
0,0719003796421693
0,0773568702507614
0,0759028322822753
0,0767043493517203
0,0741615943069271
0,0767368083708264
0,0751521487529544
0,0774757462619459
0,0744880854486632
0,0769460195330497
0,0737776690199953
0,0756189346211139
0,0736005215933864
0,0777304514186289
0,0752242178831799
0,0763535476441816
0,0769490705244054
0,0760705779557783
0,073807268522879
0,0778704400433345
0,0747175763644713
0,0766429535450274
0,0743832536124149
0,0750694334487552
0,0731367972176471
0,0759500764434035
0,0742543675469296
0,0767725187135832
0,0742355760010034
0,0751497854994279
0,0707144185722403
0,0753018271877264
0,0740039836825145
0,0773196975428854
0,0741777321986575
0,0775390338713303
0,0734586500575322
0,0748695766337352
0,0723999045920483
0,0744975962640034
0,0738250163832355
0,0761964011860155
0,0696217594145618
0,0749067445275938
0,0741337495853514
0,0755312739704166
0,0718140148529303
0,0752783338892256
0,0737093372870221
0,0768539301170291
0,0729514773989545
0,0746330227325314
0,0721431509458274
0,0751689226820215
0,0724896713806887
0,0773093943272595
0,075115111487292
0,0762086100478716
0,0738569721748729
0,0767202785798766
0,0742904514696721
0,0744360636857378
0,073100786806898
0,0760127647931843
0,073315214401761
0,0781006855647509
0,0739134942041147
0,0783402341495908
0,0750952524320821
0,0768452160189044
0,0757231684025812
0,0786656716638151
0,0778972812005662
0,0781343300997721
0,0743731787100842
0,0762363163561171
0,0751562893660071
0,0765369856925049
0,0738569316681488
0,0779967199245553
0,0760709842337795
0,0788084388674003
0,074263301848039
0,0799411087070094
0,0744599604320561
0,0770637445668207
0,0769178466345179
0,0795076785642856
0,0742341629504575
0,0785404556879032
0,0749577975439623
0,0785521678722416
0,0760473313107693
0,078179089677638
0,0761957843991876
0,0773363489705775
0,0773833558365445
0,0767514556164231
0,0748505180973544
0,0793431398755326
0,0774074926282323
0,079195389075957
0,0749598374115433
0,0766092240375546
0,0762776777725725
0,0784562043871074
0,0774671742665089
0,0783069006879639
0,0778645608687785
0,081377060936104
0,076227910513084
0,0802544685171924
0,0767846568208256
0,0782169699501778
0,0784957981958044
0,0814986299862077
0,0766403253520327
0,0798271187799114
0,0783539289993495
0,080041949156849
0,078226228334312
0,0824076479711545
0,0785878931407911
0,0826309652516455
0,0795712947897114
0,0785234965960166
0,0785868064097424
0,0816184776241862
0,0800788029027395
0,0828154529585235
0,0801596390999528
0,0818179727344336
0,0811725642513654
0,0819324668532653
0,0783042957579172
0,0830948736191483
0,0782344626943647
0,08166032901993
0,0809455692122144
0,0812852253092594
0,0780003250926582
0,0800739055809253
0,0780821129778913
0,0813601340171304
0,079726334159553
0,080917088426123
0,078316946365259
0,0815915367993174
0,0787984925844419
0,0820202242460823
0,0784781895125613
0,0783415871284283
0,0775528852954916
0,0790335887471972
0,0751582513947745
0,0788752251385235
0,0767793278984145
0,0794997306353493
0,0752419729904806
0,076345646341365
0,0754681570095492
0,0792080670367125
0,0750477548467265
0,0739686351914001
0,0735542410933243
0,0761907566422744
0,0747448828169039
0,077546228239684
0,0747422355278188
0,0770936319000693
0,077894351441563
0,0788639343479773
0,0744032489254844
0,0751790640678616
0,0725842382764684
0,076448084110591
0,072356412697679
0,0773839582924361
0,0746201279930684
0,0753275380082277
0,0740897768009602
0,0767652324951413
0,0757161953726627
0,0768251596231681
0,0741492212340698
0,0756404628391393
0,0723808018339319
0,0776785070373106
0,073940532623651
0,074065136352272
0,0710928367827674
0,0745049814361377
0,073448272965052
0,07523306446311
0,0732701695612261
0,0759614787007572
0,0722664744721647
0,0755504851706997
0,072616649762299
0,0757197502696752
0,070536425802886
0,0743462098026805
0,0723636058516795
0,0745191371942153
0,0706571507747806
0,0735322664456779
0,0708454696258465
0,07429454074968
0,071510385538563
0,0749986808768119
0,0709662588615811
0,0742582487854424
0,0701579839875707
0,0722724852172423
0,0683679636462083
0,0723585677292384
0,0689201137627939
0,0747306593461231
0,069778639100672
0,0734074814414451
0,0691923869841467
0,0720309309879052
0,0702451394701765
0,0735632048334046
0,0708391004645341
0,0726056426467444
0,0720601901409694
0,0739026010709361
0,0682914836191692
0,0706207056212424
0,0691264587650826
0,069901652953811
0,0675329108177093
0,0726117312672766
0,069023268832408
0,0709160259844733
0,0667455955683333
0,069404312208233
0,0701220670060486
0,071104056572341
0,0667904243058184
0,0726101602248147
0,0698046739575494
0,0703560426410626
0,0664749971058612
0,0698019428322206
0,0688167393663928
0,0706098039810859
0,0682876765549373
0,0711857662237992
0,0710183305531262
0,0703236485818957
0,0669194188132184
0,0705724436718523
0,0666935862297537
0,0684086934813421
0,0642412547554942
0,0688296775437376
0,0654871631103491
0,0675238994997322
0,0643992714547452
0,0687721110174102
0,0661012409353643
0,0672612279514583
0,0626566771513761
0,0660015454443189
0,0631734379979762
0,0667327797032586
0,0619700173248592
0,0675275326651963
0,0635428034263621
0,0638405370277604
0,0592234955552801
0,0665207866835398
0,059973887777534
0,0671115342666246
0,0636847244142358
0,0686878683295091
0,05974498324691
0,0658418324253559
0,0574849644933987
0,0612265151633199
0,0564198232966599
0,0624855601859667
0,057708111640049
0,0607116352263411
0,0598380195279185
0,0599486682271679
0,0575261198014471
0,0608404622661662
0,0549652549483277
0,0600190256113891
0,0559766184671605
0,0607591795487969
0,05744597606493
0,0599957307981132
0,0571888104771096
0,0584153287580565
0,0559730180564595
0,0607588011204366
0,0544864579268045
0,0584286854119791
0,0598649960789652
0,069055713866189
0,0637634348736944
0,056547428336872
0,0591740613087048
0,0600575328323041
0,0578219619002245
0,0576559651061855
0,0568240941045193
0,0549139114082184
0,0571644211324684
0,0573145308572566
0,0543805390315702
0,0573758032375271
0,0544763299937862
0,0561774497060758
0,0529327121236883
0,0573566766487611
0,0560367949378025
0,0549985938139063
0,0544568847410282
0,055273620920005
0,0550545655095795
0,0567096742565316
0,0541853097605362
0,0540721145020215
0,0564137984018149
0,0639491810981094
0,0612103234439791
0,0582430249552989
0,0534806871436834
0,0532094079368513
0,0542644725923791
0,0545048079597902
0,0511054728881093
0,0567943161168533
0,0533564593858926
0,0547931304624552
0,051899469223792
0,0543985616340995
0,0540529269774255
0,0558865051598418
0,0534380532235238
0,0521158801929049
0,0508715507226885
0,0525796410278233
0,0517357765996021
0,0518358160646843
0,0527557454070966
0,054378551004266
0,0544882389197202
0,0560666969350893
0,0502998473496325
0,0601064588389684
0,0636813132521184
0,0674473494698662
0,0465755278089746
0,0573130613019239
0,0495481185119057
0,055574140741625
0,0490546786201217
0,0541321527203998
0,0489487047107364
0,0560368722204644
0,0516916440250339
0,0526979977665979
0,0486077515516053
0,0545067430544436
0,0487376880982073
0,0541324741790182
0,0484462388524148
0,0557026731780032
0,0507878567381902
0,0501820479892813
0,055240165763531
0,0684103471862669
0,0553800536369633
0,0576209910140547
0,0481984387340463
0,0584027200619714
0,0573016947270267
0,0682124516632964
0,0469857081324065
0,0563225244623024
0,0524114233804891
0,0527022472933596
0,0487614431050273
0,0502242097040225
0,052753871751364
0,0565556999346591
0,0546024341596402
0,0523736425861893
0,0515491633324238
0,0489617109695945
0,0499206697093398
0,0512284954674581
0,0490097799821478
0,0510546445003805
0,046058593554883
0,0500970043594042
0,0495494039367355
0,0513777238901946
0,0484885356968823
0,0489612047134782
0,0493875095451761
0,056420020055041
0,0508124135300816
0,0500663193813427
0,0504597616584729
0,0483188811617872
0,054091443473188
0,0637680439990501
0,0591213098289956
0,0498219728253898
0,050903851390407
0,0484136909790996
0,0499292081452857
0,0515816171857969
0,0501146818735377
0,0518824409234407
0,0493941578838517
0,0493801294939071
0,0480541217470391
0,052282167638741
0,0488606101202619
0,0491512385658543
0,0461593159129351
0,0513270618056717
0,04767216912591
0,0525220571458028
0,0471709639457189
0,0530574413897462
0,0516684831050239
0,0764101350348144
0,0660915443767276
0,0641112183576498
0,0574205928247177
0,0513925527368025
0,051631157009906
0,0492022020435386
0,0530195939614692
0,0510025941951114
0,0515345868126799
0,0527784667765811
0,0538050593452709
0,0498511868538563
0,0494428675251173
0,0478287417829278
0,0502673821995015
0,0493282581284111
0,0516076563392202
0,0483598168266569
0,0533749443768127
0,0464339791561031
0,0531967946918712
0,0575841841766761
0,0642395540287758
0,0486732841822148
0,0518561875099192
0,0664343685027222
0,077633162514253
0,0659962413865965
0,0494836837335635
0,0553979154741778
0,046457568341458
0,052804758349256
0,0478995003595181
0,0570326480153883
0,0501388440901901
0,053197419256187
0,0479901011855814
0,0571025820143429
0,0474124939380344
0,0485094097402021
0,0553771816769813
0,0783938007678077
0,0663447537591897
0,0574290956146781
0,0470646835858504
0,0645716247830851
0,0621186239354022
0,0655904935833927
0,0508105159580742
0,0586171326345737
0,0503227071476896
0,0553463783504933
0,0495483331997991
0,0542855472739234
0,0525000982837132
0,0554758341411135
0,0530975435380667
0,0527080578615792
0,0515004124193773
0,0549074853762241
0,0566991241024751
0,0678992993961744
0,0607125269393566
0,0581439751944337
0,0544682087010203
0,0609289759471823
0,0529411404949349
0,0555587970570944
0,0544589143076436
0,0514039863894016
0,0644223705688156
0,0695214009209549
0,0609701168091308
0,070541228881976
0,067034060367088
0,0585866332645449
0,0525679431603482
0,0724432713196288
0,0631054923953034
0,0540919674027643
0,0670566232851855
0,0725411924637549
0,0877733515878973
0,0668655698128751
0,0697487258968947
0,0511969212869606
0,0644271506430144
0,0481312761561382
0,0651689618256616
0,0657632444128764
0,0681082018309247
0,0551482559366417
0,0570312513435974
0,0692500283051958
0,0716624951453527
0,0682240169787169
0,0619517674509138
0,0575519948072283
0,061745843995962
0,0774336363012434
0,0608739541171324
0,0659358491498467
0,0658136558243122
0,11331536653057
0,0864330033018654
0,067814312948211
0,0657584753729145
0,0858851072760962
0,0803779422784566
0,0609565639554754
0,0656953777084635
0,066234458731455
0,0561873677250231
0,0738801747398929
0,0838972636008631
0,0825537517208835
0,0675553653186063
0,0685403158807147
0,069269231629446
0,0816591000981059
0,0845208685937727
0,0692648512702588
0,0715971560410979
0,0670669170627827
0,0716972218259406
0,103106243976284
0,0913719765907657
0,0967150126547376
0,087554380432955
0,105566188944605
0,0836526006428196
0,0936429872901014
0,0738537091257025
0,0980756341764605
0,0944597313662921
0,0881293697383113
0,0672828981692352
0,099361900651449
0,0937950107512926
0,0978410886231437
0,0801264079126361
0,0920520804862529
0,0733362760997366
0,123311959312086
0,141881025821477
0,131154463025759
0,091265978130109
0,100747744035281
0,112192436289565
0,104802143610727
0,0884301062591905
0,0923872536651447
0,0945882906198406
0,0942340068425319
0,0923200587481974
0,106181967899434
0,10057958685508
0,10589387640937
0,0953702295746577
0,104577460018097
0,104326491724552
0,167972669651553
0,132134005890934
0,134672718888973
0,138707046631082
0,151310527447482
0,122779119475009
0,114726183259943
0,110913012345744
0,128366340431248
0,121417669098737
0,111846381303217
0,116079484720149
0,142779868739341
0,132282317688787
0,14499030261797
0,13359549877835
0,142928044941808
0,115009269473773
0,144444139909052
0,204667939488576
0,185485715846364
0,144564945685561
0,151636663697365
0,15071915032526
0,204250656880407
0,163633309976075
0,147180401705661
0,146112219069396
0,141776679299452
0,145960459655122
0,16328791851673
0,163652360619571
0,181279190838839
0,160916260146432
0,163638707893593
0,165997905630234
0,258419898611174
0,240947518207089
0,198725832255918
0,183793686972227
0,205558693774096
0,205447539406753
0,195510446689838
0,193459211554773
0,191908360351102
0,211811798434649
0,236347563724155
0,225468068831147
0,208588095833505
0,22774159835911
0,23977111802328
0,228027250975048
0,256458736241601
0,266899121293024
0,248252134088781
0,233866929764997
0,251540592025112
0,234646536037499
0,250131767929094
0,266731359150678
0,282897148323967
0,259765188284826
0,265745738085388
0,258281510829219
0,267016667481024
0,274247839189451
0,274935395072394
0,277924331211338
0,319132745925571
0,312044100115338
0,462165247369841
0,320827131455756
0,299864849209577
0,282746111693347
0,299711509950802
0,30607301634907
0,330415300182849
0,325620433416216
0,329082399845535
0,293150437426958
0,293303576381279
0,300184838795498
0,289916289373625
0,301962257158892
0,300027951634347
0,292282215955947
0,324844613650534
0,304707277208293
0,349657698807674
0,355458403053264
0,323410231449115
0,289829194565273
0,299917041411543
0,288844050139624
0,303112452931548
0,281067900816063
0,31173741537301
0,303826927973619
0,307758602588217
0,285294689359625
0,290699646520252
0,290436644807112
0,319337057815176
0,282895775060834
0,288002286950064
0,278003702715859
0,29251714358863
0,267026853063508
0,285957800478885
0,305827806005207
0,284551351746734
0,257846009785615
0,272295227926066
0,262180163000859
0,265409343388916
0,251772278518741
0,261513234906138
0,25208859323792
0,259540516288619
0,251271878795149
0,263466262568563
0,245346179640202
0,252814566382315
0,246792127776847
0,249111232833214
0,24490074105131
0,251110722757071
0,240794696489396
0,245234756308917
0,238973144250961
0,248509076380619
0,235686875251846
0,246833632335215
0,237424426360198
0,238008634310529
0,236578266517236
0,232859663196087
0,233466140333951
0,236326684485227
0,227657074751213
0,23284536800565
0,224667719382034
0,229924113475923
0,221358310707416
0,223546360601181
0,223386153128165
0,22242006175938
0,223657597264841
0,224168201708544
0,220133704713651
0,218771387894714
0,218004779342387
0,269870676725698
0,243173830428497
0,227176731740569
0,206735148203126
0,217265594350119
0,203575528097563
0,204952749659894
0,247233802832026
0,237870482445382
0,204011326319307
0,206447512619403
0,190158170026021
0,221607800266853
0,197330747239002
0,202375002788565
0,187595235664203
0,193715821698525
0,199479244383615
0,268413191793425
0,252860574294632
0,267407262082189
0,212092445515569
0,18560683916799
0,195899885316028
0,214774866719965
0,192008619200762
0,176597947141067
0,169591871643053
0,235516388296705
0,191202448750424
0,174453775351514
0,170101527248343
0,171676252629702
0,201699866764174
0,210774994040304
0,18684669303746
0,196509214438721
0,204586381421355
0,194651573471698
0,214308149715289
0,272182458788828
0,20448795585931
0,175858939959344
0,16769965991747
0,168174968995997
0,166236510577914
0,229932975485743
0,178202764530083
0,184562180246657
0,156883361465092
0,161549346547324
0,159613022025032
0,189819908648546
0,165655519417533
0,180497207038954
0,193430635174119
0,167046085901768
0,171785559197497
0,18765334326692
0,199373714055282
0,23412783465807
0,175360695004672
0,156904061977365
0,200020637778307
0,203628900624274
0,177251969108174
0,18306205032073
0,154585528344059
0,167001329135459
0,17571548054462
0,162399297329019
0,187304744570185
0,18332619588465
0,195495096888554
0,231161990158347
0,24741269587874
0,226377691065358
0,17716989416809
0,164565214970384
0,156533249441917
0,171061615132463
0,165524715868743
0,160713590160337
0,19560325669332
0,176105346205287
0,172284205581822
0,217015418418389
0,184842177658754
0,175113648538711
0,177871905760334
0,175942085533055
0,181903087649865
0,211937581232363
0,2309363561448
0,213781848751031
0,209672000931492
0,222900669915496
0,200932923063481
0,202586615315109
0,198423587081602
0,208150070227787
0,206853652884986
0,228661750024669
0,215034526784784
0,219978275087973
0,220830702806445
0,229952040920635
0,252662331828958
0,266122908089631
0,246020410179966
0,283400440890513
0,277194542882071
0,328164796297137
0,282129433798934
0,276866204401947
0,275292419251234
0,281981917664733
0,286264020191965
0,285994914930597
0,29582500177027
0,337736291645926
0,302525871664
0,310223897779292
0,307851450031308
0,32170723824355
0,314103693180831
0,354361828194933
0,344949322354275
0,391989974911815
0,379350697185087
0,372084999092134
0,342725233806131
0,337926787375773
0,343295210162701
0,352945856888915
0,338593044010977
0,340672016020967
0,344318742346799
0,381060819835221
0,351563830672256
0,354405712697366
0,346502224813281
0,353091910036068
0,348258296632626
0,361137869769638
0,357516155825271
0,36152785175173
0,361402448145825
0,367985432533576
0,350135601286191
0,435653190480404
0,399156630275799
0,381931616346923
0,380671278547554
0,392303691671083
0,38370152586665
0,384917118961815
0,406893321567321
0,411394658927808
0,395125379461752
0,40164150133443
0,396873606534925
0,405398798081115
0,409069142783184
0,442151327124026
0,412483694592129
0,421699425996718
0,399536194651388
0,439464875013389
0,459160825211577
0,442881780166401
0,43716971192664
0,431531635950064
0,425010198841714
0,426691463676758
0,417418669087184
0,425925063667265
0,433484893482485
0,431388494484447
0,433729125393041
0,427277237127279
0,41871532834086
0,422101376721485
0,422271653244666
0,454123959008681
0,424293522844593
0,418629928801039
0,417462665309753
0,417775393385656
0,409120097882603
0,437963619491485
0,435127834863423
0,423232020200396
0,417959256255667
0,426590625880799
0,435121753679448
0,427036537574096
0,406461163772497
0,417666867750246
0,408235685380557
0,413274392448585
0,410953104906144
0,425948791041051
0,455147604790077
0,435465700782491
0,421662315721673
0,429080978251205
0,421096023074972
0,437041918499228
0,437652643996514
0,433204629622726
0,441739219893938
0,441201093557568
0,447323749286993
0,452858448799477
0,450095109524863
0,465918824592752
0,465003982822354
0,474757224413684
0,461397084932443
0,455679952385802
0,450067029630545
0,456105010066062
0,463881100274433
0,460062814983511
0,450219372778382
0,454621459134799
0,447371346541036
0,448075415899483
0,479977352264286
0,451770253506443
0,450976997914703
0,45110894076482
0,434551193700066
0,447730010714167
0,435975196867604
0,440250629226022
0,429278811423042
0,440051340891321
0,426343973674404
0,426355607213883
0,426575378042322
0,42779022334745
0,422603686039875
0,425049921647989
0,420740195667007
0,420898505460642
0,415936547028239
0,420038623137785
0,420309584640448
0,421934885559475
0,417778999597011
0,420803629073907
0,428176801586124
0,441959458194558
0,439543243098527
0,430743618819155
0,420434337787551
0,427086934075991
0,411289452483165
0,423150878070469
0,413281803302804
0,419653836715791
0,412173593191596
0,414548741327298
0,40906505697472
0,421382477767673
0,410769837629893
0,410954554961988
0,407467508611534
0,407357893077592
0,401790081633831
0,404255316741579
0,401033836467822
0,404681294884746
0,399751671422328
0,413554188637254
0,40380456744845
0,406197858359925
0,403076085711379
0,398534650053979
0,395985626438704
0,397504245226017
0,39964098988634
0,398793248305856
0,388812974937587
0,395723208619594
0,392691247677792
0,395592269972418
0,390159163402649
0,394928950084106
0,389567159359194
0,393047021810804
0,387218480997506
0,38850296782661
0,385400974442178
0,38280883523967
0,378577986042704
0,377707684215858
0,373721382104802
0,372986194789358
0,366066100134675
0,363569562865891
0,360382029303364
0,359313084817401
0,356845751044668
0,355643009542738
0,345289830564378
0,350106052368598
0,348002439659755
0,350319484813051
0,344591955666239
0,342634092648236
0,341047782554045
0,342214394044278
0,336235198303452
0,340393314744472
0,338277987678288
0,33856695485019
0,333693326949624
0,339223607317895
0,335612321033479
0,338075511159017
0,339352533184314
0,337042812755151
0,338685756557614
0,338639160562666
0,342817147899581
0,34406229471969
0,339861008892988
0,344399465161003
0,345535067892465
0,350208177634134
0,349348899180671
0,351317241420651
0,349312810141647
0,354996062256517
0,350814130363472
0,352533245431396
0,352590397625173
0,359944091186632
0,3530824467155
0,354631717350516
0,354464217669821
0,355025094133042
0,358415735524653
0,356217333026421
0,357092756240443
0,357135854083731
0,355224251130063
0,35413879158413
0,351960287003639
0,355982967180689
0,3514583179238
0,351557203192186
0,346595330837481
0,348616522915821
0,349279813149621
0,34740058273354
0,343867648174392
0,349053264203529
0,345191890831423
0,347120533572443
0,342427143644938
0,347593468719899
0,342998341038765
0,342061692727068
0,338081545460606
0,3407965461693
0,337204419459664
0,337295525287069
0,334022837329085
0,33202667708074
0,331422611980728
0,332178577297001
0,329781573545035
0,327501192258254
0,326746933434921
0,326831441335694
0,321874854487365
0,321694937684707
0,319550418050937
0,319450970332776
0,315382862963744
0,316616064772003
0,311714601934925
0,309249977894831
0,308078629315131
0,305810093663604
0,302907131655209
0,302305136231779
0,301760065135492
0,30016444715778
0,299281468007093
0,298600995821766
0,297271775412271
0,297027180719241
0,296226447885062
0,297400599530577
0,294595055634069
0,296697852591258
0,293199103237125
0,29357751653874
0,294207627166626
0,293994326198693
0,290087594754785
0,288452224691451
0,283416082298962
0,283547516898621
0,279111514907349
0,274964176928312
0,274302169886764
0,270909157542792
0,264756001547638
0,261969672780144
0,258563092589904
0,255845150143607
0,252363262029719
0,250441002779735
0,247531759168922
0,250526171948839
0,246257390676881
0,249378136528075
0,250240485449696
0,255814224365125
0,256964903620339
0,265347623812663
0,269906295801649
0,277825898685204
0,285202238723235
0,292654751428299
0,304359764815436
0,317385707895985
0,32594014952793
0,338738282139122
0,349437422023423
0,363645110059843
0,373193495008266
0,391011985592662
0,403087349702312
0,419857925796091
0,434021391953108
0,449896965426572
0,469173545000867
0,48213216483716
0,498913668951909
0,517247337974744
0,530492429636876
0,547956776279165
0,56368829528917
0,576849764998291
0,593150919877282
0,608929600769464
0,6207520341241
0,630384867240166
0,63600824736008
0,650513724336225
0,651886715089826
0,662172869951695
0,664897182141479
0,661632180357745
0,665320859154124
0,665397117965448
0,665845201620489
0,658610923977201
0,652699547605506
0,654799276277875
0,649493841993708
0,644717488998768
0,644946399082355
0,640482690219893
0,63470593560381
0,630819739869684
0,628064095141894
0,632768306006089
0,63369400063358
0,62585370807328
0,636663322068788
0,644857824458819
0,642252743932469
0,64709339979351
0,649760209520203
0,651078496955897
0,65962197471548
0,666773364178889
0,67115251380604
0,682639807035357
0,691228210341112
0,701882239331811
0,707332597597317
0,711636265255827
0,715607767470421
0,726753217354427
0,738585044781428
0,737398035685511
0,735425099983908
0,738914693831881
0,748646788749022
0,747610445834723
0,738622997545889
0,74797209718939
0,745330508240316
0,749310409711894
0,750824922971542
0,744740193632344
0,751449029808543
0,759444192475409
0,76105897958819
0,766323758064056
0,769171067151083
0,781987090848922
0,78443059697035
0,794945718054638
0,794854877522896
0,796373646091746
0,80342395285453
0,815618989287689
0,8165677327715
0,829693904664786
0,838150250258054
0,849296005614517
0,852427087054123
0,870650041246462
0,876027682318994
0,900641496972502
0,910648589312122
0,913991929844195
0,943818561390614
0,982786170455656
0,988598854929817
1,01173402674367
1,02199607966498
1,06676645807196
1,0970802020288
1,10396456283735
1,11989679282115
1,13995932031535
1,17056823990323
1,16665301422726
1,17801574514143
1,19405328309594
1,20680975257843
1,19738832976323
1,19665803354859
1,18381525173727
1,20397895966471
1,19394282117094
1,18734195767808
1,19265689690955
1,18456843441495
1,19178218308721
1,18783994586199
1,18359327126364
1,19233232743788
1,18476743621157
1,17973005904117
1,20202685088279
1,19590683123225
1,19600942678708
1,21116965054073
1,21983968959777
1,24391848358194
1,24188675225179
1,25333321781446
1,25024118751801
1,30912358769992
1,32482342242432
1,31482905254767
1,35553150418198
1,35550302699385
1,38465737022327
1,41508134865265
1,41191295772024
1,4191008444086
1,44588414470013
1,46563789648654
1,50243574020686
1,51640664516291
1,53724358878147
1,54821487968799
1,52036639347355
1,55588487755393
1,56241487303314
1,59725004907039
1,59438713059089
1,68356804630839
1,66012335030722
1,61298101875963
1,62969076910811
1,72167699528074
1,70800138070331
1,76180746700989
1,77322974415453
1,82266698647879
1,78830932728448
1,78155083479029
1,7907665631818
1,99279518711364
1,89492075163761
1,98857806458012
1,87184405672559
1,76920909363483
1,83067970490501
1,91090134053572
1,95359858158255
1,95458509601222
1,85775900356603
1,85564564132717
1,81009461096071
1,80485360489201
1,69307389430449
1,76060721262065
1,78761501824167
1,76813652259945
1,61969416412054
1,71520140285188
1,65979268849528
1,63703273360684
1,59571419553947
1,64574707805946
1,66414252836726
1,58954778021372
1,51257030793033
1,55866614484349
1,5127069595909
1,52666863266587
1,51992031318922
1,46046940649615
1,43338801409295
1,45484527688813
1,44805027591192
1,41558425102914
1,38085349855864
1,45166700058496
1,3943336457521
1,32717637386093
1,28285814878084
1,25631582117655
1,19685570213735
1,17211135373025
1,10946817352731
1,086894847668
1,02116979625236
0,961394325630248
0,908337195451745
0,858454087347841
0,813198551763025
0,784318918794028
0,733962422933214
0,700748617106475
0,670380720626082
0,636079330766727
0,605937902459777
0,583843656824143
0,557721481239356
0,543208475340422
0,528790227642707
0,508950785623419
0,494543751115751
0,486987803804879
0,476289096339001
0,465909236710071
0,458260105536299
0,458002167237673
0,44941340706556
0,441155051941101
0,435379787765897
0,436511713658169
0,43385480072048
0,423614983940804
0,423985084389188
0,429807367617855
0,425738436667398
0,430951664999147
0,428984009279612
0,437726467413138
0,442383326948002
0,436263329888997
0,439112280567489
0,453922818758314
0,450928250358564
0,454887080451535
0,45921603417265
0,455251796808638
0,454656900497409
0,46328115053246
0,458711208019469
0,459657395559963
0,452223023081991
0,458080498023297
0,45460399682796
0,455793399272217
0,458465806914604
0,457882132218959
0,458795288590282
0,463410255329079
0,461003107263524
0,471914531348247
0,461032347213356
0,461234875133045
0,459819657717721
0,461356190496839
0,458653890841625
0,45785005153931
0,462611181016564
0,467341892733024
0,459212435394469
0,458671071753779
0,461019248053535
0,450925400668216
0,453559507620593
0,453849773157424
0,444999239432444
0,446573963775723
0,441772560456664
0,443056744157137
0,436658584311497
0,444598322150516
0,439741165846579
0,441776274108205
0,441722734034352
0,449732355153202
0,451723978390503
0,459960405053982
0,458785026364524
0,465877662436696
0,473452109974958
0,487929513556639
0,485155636403834
0,492746297510019
0,505386391842803
0,513014446805011
0,508848768117683
0,511202272768437
0,514834406296612
0,509210245401204
0,504033224310189
0,498519044835801
0,485757179925523
0,486644983237883
0,47011093819696
0,470209400388875
0,462639724212887
0,458535802036467
0,457044824715098
0,453675854819338
0,441990412973574
0,446084069230597
0,444192707416932
0,444018628566353
0,446590859296318
0,443868926788517
0,450827928940289
0,459114366920111
0,450113777850803
0,453455076030639
0,446889376193674
0,443629789241843
0,449173226261929
0,448828059880906
0,436008711895865
0,454027851670479
0,447780886703844
0,442097793265745
0,436095918373425
0,451390725405358
0,436995559376961
0,444118369439319
0,43457898061726
0,433952210079205
0,44212472644772
0,435886270771733
0,433383337715065
0,437897497681683
0,43748019687159
0,445254902271738
0,437229541262173
0,4379255746187
0,437504343600217
0,430543011603322
0,418555578965194
0,424741139956519
0,415661095184034
0,415727574491376
0,416473187827093
0,431343537954144
0,407611287569137
0,410437515754541
0,401649416782724
0,405374934592708
0,411243665980784
0,403511343889851
0,395309110932615
0,400445411118234
0,392871160056096
0,397125492256868
0,392057399478907
0,381245113093836
0,384921466478452
0,382798922871365
0,379982778268278
0,385372156247601
0,373812356641987
0,373152943553142
0,365220439002667
0,374023036237876
0,37643505667775
0,370314293110346
0,365331860746017
0,37246648016689
0,385020171952921
0,385048478871147
0,369327165054306
0,365307499299786
0,378995868287461
0,391398110566335
0,369515172818319
0,38270618994784
0,39137560025939
0,382113303597065
0,387755173541201
0,402031366912258
0,373842445218665
0,392173280513785
0,401315691940963
0,403393780390187
0,398998529054083
0,412372033976937
0,399036435303361
0,418000537664195
0,416580307215321
0,421136205466025
0,423065124923945
0,439682652316711
0,43854942831543
0,439541079256258
0,458574289583532
0,474554554263274
0,463025359974496
0,482061598657478
0,492555460552146
0,506213893347494
0,523270250749954
0,522410723802508
0,544249435478351
0,567758341380593
0,551565123129323
0,551824802395085
0,57848359505724
0,602710667255661
0,58100436972517
0,602057608874843
0,607004320981446
0,589580842081123
0,587049618277119
0,59634356288138
0,603798457032083
0,606566141738234
0,585402690314047
0,596548537154739
0,61174060224126
0,617300531312045
0,607597549811446
0,587429923811957
0,573230893045646
0,608212982418557
0,630665314841476
0,62331314272144
0,61197449541478
0,601913180702459
0,589138777578709
0,614357539807786
0,596660387036016
0,623228087104434
0,597885609327006
0,602768405987344
0,605994846962261
0,612113799988427
0,604949328651431
0,5975757828688
0,57280643623318
0,587436224646465
0,613397366073777
0,618280028400659
0,579848343049626
0,547410495862196
0,569009512209001
0,576046892334978
0,570354391763969
0,585636415398904
0,557941857321989
0,565059725354228
0,551077476758911
0,578067350558753
0,56445261575795
0,577635149228119
0,583067499110027
0,579363531862975
0,560248369117836
0,587924237971898
0,608743028874406
0,583722810153694
0,572860265958039
0,585730380742085
0,589114945312769
0,557656778395602
0,58549414219542
0,60616521080517
0,611049122272802
0,58198838489424
0,558034503591177
0,570447799926677
0,596589258811508
0,563539286437541
0,556597077848859
0,633356704020948
0,635874672552504
0,621218003945171
0,61155429597431
0,620949011214599
0,57768626155856
0,663786514214045
0,708893410316123
0,609328697166134
0,678899073146999
0,685585865115382
0,665283870083732
0,74963026295763
0,703827471327502
0,732679797305215
0,732985183650335
0,778894018196592
0,729799518673315
0,775989381588647
0,785562643154477
0,822782051678316
0,727140399070913
0,794049862585263
0,855632205893998
0,773079571489395
0,7753788073664
0,983794918157162
0,814328474843148
0,668015984715308
0,740772400343432
0,762229281330906
0,672941157721469
0,716691053069715
0,744195436518473
0,724430660396011
0,748666789311904
0,768616723145933
0,76982373016103
0,775318067421482
0,819809652858952
0,735492091306498
0,685450794203375
0,649162185405009
0,839809936901248
0,685160568685214
0,607738258644979
0,829749072717301
0,705751247630013
0,670238549500036
0,78877389185847
0,704963539371878
0,66617022022022
0,721620543800683
0,800180431029217
0,869342368067205
0,720077462136633
0,691868005419004
0,857248520269246
0,555958205288195
0,715174296715088
5
1,05739658119998
0,583829101576028
0,890274940406036
0,962859754896285
0,818082283483013
1,06761847265557
0,741552846525447
0,779785389607856
1,0878472737707
1,28187757508284
0,55687861722939
1,06566840616231
5
0,703849379953814
0,764828628489717
0,830039324064363
1,17570708049886
0,802733231275279
0,99704558033849
