3596
4000,36533379555
650,420452594757
1
2
2
0,0587375598542549
0,0735348276802637
0,0608108204775494
0,0741115652874965
0,0600122314684237
0,0787279294575467
0,061404572525
0,0715982332121989
0,0563299281994809
0,0757746290357777
0,0668394191267366
0,0746528372237683
0,0565745160079175
0,071522560837069
0,0672305045127191
0,0740388313378468
0,0574671436274857
0,0733490966667958
0,0615827045644145
0,0691702066334818
0,0568938025292702
0,0792391398274055
0,062728013097666
0,067803842300681
0,0593405621801435
0,0726789072467048
0,0568238137877853
0,0690549220102089
0,0583274671927386
0,0692423992062461
0,0557082425192971
0,0678655505405606
0,0627066150409116
0,0709645152055087
0,0577310168018281
0,080765983358422
0,0575180541708468
0,0729095562907127
0,0568281341784582
0,0778300379684056
0,0704848263009766
0,0744897351827387
0,0620411521872941
0,0687283854415994
0,0549806457192054
0,0761070014232163
0,0603231474187592
0,0732026413266437
0,0569171329691751
0,0752441107103155
0,0610763482476985
0,0693496880703503
0,0581495183608743
0,0872236660067328
0,0622937838044314
0,0984731945659973
0,0673178765875024
0,0752732323640805
0,0633850353097839
0,0807295633536917
0,0728026149966712
0,0909130657651838
0,0653577296309552
0,077361931407541
0,0497888317085205
0,0733564266067982
0,0524914057913629
0,067334932489639
0,0574784544489814
0,0783129765832838
0,05162398144026
0,092538477161015
0,0790647204193434
0,0791499521731107
0,0680472401128769
0,0788330255021575
0,0609530191928364
0,0698668056970017
0,0530206692156569
0,0943575830737737
0,0672840984649602
0,0798605487271548
0,0599960468325016
0,0620844648918674
0,0536404974986469
0,0922201981517583
0,0539891935142037
0,0588652523955297
0,0807464108696153
0,0815974021678639
0,0664516341992938
0,0652668623845825
0,0550219642464294
0,0623176644498869
0,0528397093956709
0,0621545481772149
0,053942901676294
0,0660025435526962
0,0613169832394139
0,067290934770449
0,0722585577270138
0,0733594848425811
0,108965200947236
0,0618486285399791
0,102488415091267
0,101495937440138
0,0366253340823619
0,129832250603009
0,0821149006552528
0,0842494794381503
0,0592618512453315
0,0707704711218012
0,0561703248461558
0,0779931672666799
0,0441372901745782
0,0872859935330482
0,100444292386113
0,0778764504129335
0,0600033118602753
0,0725826572592769
0,0311381663159078
0,0821234908359278
0,117572037352457
0,071715476105348
0,0718664569975327
0,0738078702619678
0,0462897405217479
0,0968755383037805
0,106945476610495
0,0706255195350495
0,0620312488462337
0,063861925204093
0,0513359053195549
0,0485943685623772
0,110373209421331
0,095579944799106
0,0557207178480342
0,0576974161859721
0,0558684558183105
0,142544354267164
0,0839821539438164
0,0702792250210707
0,049487534870064
0,0658112710394778
0,114092906832515
0,0955076459645833
0,0483974968660609
0,0777558977024531
0,0904205412863842
0,0592474461802948
0,0566125399723235
0,0586245991816011
0,0772700167335646
0,072667677001225
0,016479265531111
0,0586466533802171
0,151645992661698
0,0919364879757312
0,138450346753108
0,0838782450467764
0,0677854825080273
0,0684216309487693
0,0575810988937346
0,0612368919056325
0,0477025280276896
0,0626213847310373
0,0540781862471603
0,10905120923585
0,0503193159536878
0,0729082519532054
0,0966267303092484
0,0911245922933679
0,0384994526354755
0,142665404791028
0,0921350585038177
0,0493611977521359
0,101181703575064
0,0854407978487683
0,052789006379942
0,0643635028741698
0,09534057425987
0,0650725737880126
0,0615757998470278
0,0605391791280532
0,0545502330576479
0,0869089578698959
0,0642206816132673
0,067976328928939
0,060364040052418
0,0489808891212217
0,0554991137400529
0,119315726880167
0,103811094243151
0,0807852468877353
0,0655244124659239
0,0350934243806174
0,0638594596831516
0,126493838861404
0,0631093576750342
0,0661072881102679
0,0514088865201999
0,0574438416572229
0,0569388740048933
0,0622288768635929
0,0459203207197026
0,0339097011557343
0,0951991502732991
0,0969073245589187
0,0589081623418277
0,0622958691601482
0,0449756726834011
0,0610655032366485
0,104905404960484
0,118292759254918
0,0558195227914548
0,0722767645720858
0,0422407168908255
0,0786546510163921
0,0855680378426977
0,0707064114402596
0,0591019713630002
0,0664137427159419
0,0517889756512018
0,0637993099331588
0,0545866297614318
0,064986996594296
0,0477191104638886
0,0639134188440865
0,0510861329327942
0,0611245524182204
0,0681682441303545
0,0714543780652285
0,0559302303642477
0,064199514630964
0,04665710427292
0,0749841994756018
0,0914347532148537
0,0730603667670611
0,0610310523210611
0,0609957876110738
0,0569604593882406
0,063752888461649
0,057358274921731
0,0579184557423065
0,0541690907546736
0,0460016841517066
0,0874128389976483
0,087714401046024
0,0552982702367227
0,0669622861704047
0,0629355953791157
0,0905204113173279
0,050190305828381
0,0751670672682229
0,0474944244482198
0,0645773886883157
0,0408455333024786
0,109149752144038
0,0681450544619876
0,068358192654587
0,0695493605940119
0,0840195600155524
0,0514732046574128
0,0616377552899864
0,0223094899917874
0,153066475907477
0,0777103263747473
0,0403080435448428
0,129872009008051
0,114084222462997
0,0666198683016453
0,071168110704481
-0,00951164931451197
0,162274531377868
0,14755262366212
0,0818532522899686
0,0623319902819929
0,0940006093494723
0,0599671327603691
0,0636142789707823
0,072511519030955
0,065002743807818
0,103316778872143
0,141724852210041
0,13578552060207
0,0656344986948556
0,0600183130402492
0,122424056735303
0,0641108862211169
0,0715726731048387
0,0534189285235556
0,0696262689971495
0,0579400360124127
0,101002401973416
0,0682613168223418
0,0828997827076534
0,056683845552434
0,110305353066161
0,0763428792735494
0,0721504917603466
0,061702032604666
0,0881700648256778
0,0585059698769459
0,0706078220028195
0,0592600495118061
0,0783715263603877
0,0525368543904948
0,0592956955261516
0,121798936153216
0,0988417234682213
0,0565353560204331
0,115316663147539
0,0701808001858065
0,0727463724314231
0,06411400971192
0,069379284651691
0,0584343112895282
0,0674539482039517
0,045559474921392
0,0993751855196588
0,0719160749561782
0,0627775598272633
0,0715141641579977
0,0641320893601969
0,0605281290557942
0,0723474555871921
0,058027689297209
0,0717863883923013
0,0606814562495694
0,0628996119941898
0,0842145676316634
0,114451459652885
0,0519467331958295
0,0853047074926255
0,118759561651478
0,082780408942197
0,0694870159364725
0,068966406054956
0,0688060613514767
0,069305207088978
0,0693992361827876
0,069117266810194
0,0627356213832385
0,101749251491635
0,0764590698409191
0,0666261337815088
0,0645722981427213
0,154589655392293
0,159147656354356
0,106544623471095
0,0740061839925008
0,0710377461231307
0,0764856571281387
0,142502906480413
0,0814160067659495
0,127079009331414
0,0736827222774986
0,0845772506874725
0,07806821570864
0,082022414664264
0,0799707677153009
0,0838371929340576
0,0841360786170507
0,0841380125239405
0,0804837049365685
0,0903362937996854
0,0768721182508387
0,0745604132436763
0,129617935540308
0,110201674155063
0,0826423196614872
0,0946971488338498
0,0789766218797709
0,10437609379692
0,138431049594932
0,126791893053781
0,154257887122226
0,117736962594377
0,163235348533148
0,123299949716343
0,0996334698300696
0,0972195765809815
0,102925863780595
0,111468580430437
0,0982458898066978
0,0997072789727794
0,0927777411563829
0,109572817671417
0,11226125455744
0,10758110255665
0,0993507318848115
0,102832260409166
0,12822119045026
0,133087114880257
0,103981406397473
0,111479083598608
0,0957802154826742
0,197756438782002
0,169338923731899
0,152856893637706
0,120153318156634
0,137413062438309
0,104693535818188
0,12886990716355
0,10976929550452
0,138793491704342
0,115294185338469
0,162138237280861
0,16786169753514
0,163066306763123
0,152748960729699
0,138767136683847
0,147507214977651
0,152538396820552
0,140179537590826
0,189559016553371
0,142488827868776
0,137955942732645
0,147922446354011
0,185845361513321
0,147667179531998
0,189158442580707
0,140246878919134
0,150859196118387
0,143452061510573
0,154606960034345
0,14710659306859
0,168199134802818
0,168940788009535
0,171404072156123
0,162610828528901
0,165627500646551
0,168202613549524
0,188805397789518
0,169724619381609
0,181545266410788
0,182789480290029
0,174789330633314
0,162389091921472
0,167835502127435
0,167140234797556
0,218330891349158
0,189580087513886
0,231731337625157
0,180846943252534
0,177941312833877
0,176705520279102
0,188256234096248
0,18329255449716
0,19003936004243
0,193029190641667
0,200511278150535
0,189634056274865
0,204486694312407
0,191115689402258
0,20047537198681
0,200872404057504
0,208953797602082
0,20099528410356
0,208395370497839
0,202434158545224
0,222591998365561
0,232235145622375
0,271960497342801
0,249065990417702
0,264181226009391
0,22801627645074
0,23739544520909
0,227388249346809
0,22792105683729
0,222097669203632
0,25123251630172
0,245655851053198
0,236214016520922
0,23766563245064
0,240286229551705
0,233881485221794
0,247684358127502
0,257462648896989
0,267107829865652
0,258722830258012
0,264597601351008
0,247737210200966
0,266222691583365
0,259342808783037
0,276591014902452
0,266078904119805
0,273394854632696
0,273405865088556
0,281107369500773
0,270723003821319
0,283192436337462
0,27986924371381
0,286723585649363
0,280748523228728
0,295617148763604
0,296512415462688
0,295711692489123
0,280749544770246
0,302723392914095
0,29980724006627
0,305693662334797
0,309570147162253
0,300094127309031
0,304237989803162
0,329697302095751
0,311683038260949
0,346448002459606
0,312285885362488
0,31500354254982
0,330151391772055
0,338924856311693
0,325176366666705
0,332312803815724
0,322526486364551
0,322616508983779
0,336282953921734
0,341787110661865
0,334834096683762
0,35428824897515
0,343640152576877
0,363906204992529
0,348208049921736
0,349471370013786
0,355018654583046
0,383077987568721
0,377915061055131
0,373874668718806
0,351877419402834
0,377593018333452
0,3700449802747
0,380218509456475
0,382163364071843
0,392229435352874
0,375715264654579
0,393391278734145
0,376775368180881
0,39373615838227
0,392109081888244
0,406739882087801
0,405160940595644
0,407500897683801
0,395950589885908
0,416362957149163
0,397464307468024
0,423094150617035
0,422238776129174
0,409490630104543
0,418471179723724
0,425560084282868
0,429468563630545
0,43144022669163
0,430301498971447
0,456450946457803
0,458060340442694
0,445410163855816
0,418354289512718
0,448686882746536
0,462455323887797
0,458524874680194
0,428957078907488
0,441428100360191
0,458899805960353
0,452435181687599
0,449604243880078
0,466357037446001
0,447993706529307
0,464024434150585
0,458514471712968
0,47263630481189
0,48177506968414
0,487700190492082
0,480841803134774
0,493026407839329
0,509787415138369
0,502904183556349
0,477066880296284
0,506112384178411
0,501706356288481
0,517217924269859
0,498782972161602
0,510073978987816
0,511506362254347
0,506906182802906
0,51972994768007
0,520079125877778
0,510392705141264
0,547246799888313
0,514275751076508
0,533255171376967
0,541339318452749
0,53047620761648
0,544760298859378
0,547189122713154
0,533850719432223
0,51961298415711
0,541897850306294
0,560689924709905
0,53161204186022
0,536892070346079
0,547590553134666
0,545005737865025
0,532611387812368
0,542755423379425
0,55917497047452
0,562326788179371
0,571884509513114
0,570503092693132
0,562106513937087
0,569908713241667
0,567366863441731
0,5670616792375
0,589898152591795
0,601803543248683
0,586368313915685
0,574322007048916
0,577721371055082
0,5920069083523
0,583529939657746
0,600330336313752
0,598730564149948
0,599646845733936
0,615441764542262
0,603124162352044
0,610766284265136
0,6191991643133
0,599097810726283
0,616963992426103
0,614583510215229
0,609577557328067
0,610707169559318
0,605281989436533
0,603356436588445
0,619848121286872
0,642084119114175
0,622579251001042
0,599706705900122
0,639206551209413
0,639951871106156
0,630416393537237
0,641400283180027
0,632774558113302
0,62021135030903
0,640676035933861
0,653799044880727
0,648053230830052
0,649852582653544
0,626296682267444
0,642242361536605
0,670909289568885
0,656882770231348
0,651908873245988
0,646183689841124
0,662157568034135
0,690096147396548
0,674403773233043
0,664428001537439
0,659952809784896
0,667027822062284
0,679463781163214
0,683672195753408
0,678346680633639
0,677556512827017
0,663003215048735
0,666289431640295
0,667724062989913
0,669607306924545
0,674839132968818
0,701976191340431
0,67715887602758
0,668933049331548
0,684884688010491
0,667692241144402
0,680523162936649
0,672545039056909
0,658561700663697
0,68605776012768
0,696365039572606
0,694812597687742
0,702259365260067
0,70865705481411
0,690415200213044
0,707799864771528
0,707333940123482
0,69365042470058
0,685482502581726
0,724653179986851
0,720974351547121
0,710656543063247
0,702791938505712
0,699054889348914
0,709077160896776
0,700959315560572
0,702459810674812
0,705483378316728
0,693802620535606
0,722416194929373
0,710091866511512
0,72707674751414
0,73067263801009
0,709598020579849
0,711204080587923
0,706702678667651
0,698267078250405
0,709422567261961
0,705591340272538
0,720285749278478
0,709787002344875
0,690753211446398
0,712542972354417
0,721964462111585
0,739435180230528
0,745064548933532
0,723661973375879
0,743234704401154
0,719790522147726
0,731619764813612
0,716498559118731
0,744234149796793
0,719864139474866
0,726322005611007
0,73561626833305
0,715313672809562
0,691454086581436
0,728143307467198
0,723546403232465
0,724747024968048
0,730699502091178
0,712476558139771
0,711184998514142
0,725210608364528
0,722293648770507
0,707672706313521
0,72401753457642
0,737854141554553
0,725853835693409
0,728560921895348
0,7175203286967
0,720899377740031
0,732981821006477
0,712456884581373
0,718470798325977
0,740316019674298
0,727629276640375
0,728141778312376
0,705051500689658
0,73035488125296
0,717306197870469
0,714021772946657
0,738467135222701
0,722607222578633
0,718477969532784
0,742711396976397
0,736682256234203
0,720950355519917
0,710041322516613
0,715853644674307
0,705638599448287
0,726840431839833
0,732822071729438
0,748292962232619
0,722572307756783
0,72848799032724
0,707131300125431
0,710768735833781
0,704689752220788
0,706517491019515
0,71641682353343
0,728622727771214
0,710912828117528
0,715840498516507
0,703907733363757
0,722448086842587
0,715238670095099
0,702103332547792
0,710049761256835
0,716538340970937
0,715061155216327
0,731976436095298
0,712815924916031
0,701205181686221
0,697811519233846
0,713140378961006
0,703513299595176
0,73825653701199
0,713553979012834
0,714358089861821
0,697525285135174
0,692724126576029
0,70608120138988
0,725337632679024
0,704982816065755
0,683256232770973
0,67379457410952
0,69496001254104
0,706185372126671
0,697798138872206
0,675995812118744
0,703406334878715
0,705289475216135
0,712533429955834
0,689445366997241
0,710783378018829
0,686048404852664
0,679491696292666
0,685671644481258
0,691346458169453
0,683772531096533
0,683107188307552
0,677376418953289
0,684052107986458
0,68172607134898
0,683618518342502
0,679391133723771
0,685217922113977
0,680168559578672
0,673491903946335
0,679849262172826
0,676427240784956
0,673757705601581
0,670519966087133
0,663668978052692
0,683619809939956
0,663261071766512
0,654710439633562
0,648933441479677
0,680023221335555
0,659359030834912
0,646276256694876
0,644950861536466
0,672538712576185
0,655026761785588
0,667245474519409
0,645627091136288
0,650657441914682
0,645500839638075
0,650575071302668
0,643670658805243
0,646454057294036
0,636166527839296
0,640295131284221
0,62518004077425
0,657165677046069
0,654194069777698
0,638314388389956
0,630710831488733
0,631983474594939
0,62718482993112
0,621866750839734
0,626527327885885
0,623473739005452
0,611435354386456
0,614526993043749
0,630890715010219
0,617230785408477
0,613360934284821
0,60843238323731
0,603249092550499
0,597184106654462
0,611305402011231
0,622741594720241
0,601031865417518
0,603957893206318
0,588686280638018
0,602142949225896
0,592958665067055
0,591949281025627
0,587394561404623
0,577841880908782
0,580639406854291
0,585324798412989
0,575083521950072
0,594658900635666
0,561594693818694
0,570879021165393
0,581782435688038
0,581073423816469
0,564163271262057
0,582455207821746
0,559682346837611
0,55335665737458
0,540659751891734
0,55630824906924
0,544038290772796
0,547975519353144
0,543970720868238
0,548748520203897
0,537500430500352
0,536663833601688
0,547780726349909
0,551342656535678
0,530454409937774
0,545763767659234
0,524807478944844
0,520393634795156
0,530168432117952
0,542517459386658
0,534026153924556
0,521948592446016
0,508986693639591
0,517054318990792
0,510012891319515
0,505553046619299
0,509546206522408
0,516428008854538
0,494649689311218
0,50551861526398
0,495227625040826
0,506245130960968
0,499832076186391
0,489261490056132
0,48836503446537
0,502123499504364
0,47724046488412
0,485320673359719
0,480703809045828
0,482288222518141
0,473589945927878
0,475397344108647
0,462512842821072
0,476102404540562
0,468415802579534
0,470346755223343
0,459121349363551
0,463448907788
0,460848708853761
0,465012047210192
0,458730619783707
0,453649913506041
0,455528282673042
0,455195976433588
0,45095597474485
0,456648555064561
0,440751875684225
0,438386945557218
0,433295356162621
0,438222867243412
0,433430740053534
0,423170448659588
0,423181788132359
0,419558286986757
0,416009764190978
0,41484768724895
0,415438892056121
0,419952967131178
0,427269436158532
0,415076448424924
0,411393467130002
0,417263485049169
0,406072378039127
0,408853783815487
0,406848646141108
0,411629116424151
0,411201880168422
0,403445116410025
0,389709404049774
0,390792680212607
0,392896894587127
0,394922669724741
0,383425203226829
0,3876067550598
0,384005187513815
0,384980999301922
0,371395651198328
0,377364532189386
0,370267724185107
0,366945721392536
0,37713521087074
0,368234399278719
0,366358956486938
0,369689550073472
0,365415190394495
0,365686639750713
0,36694588697072
0,355221092486709
0,350084441009237
0,356015754053129
0,358955698884113
0,352142173073781
0,356091738952339
0,347294109191165
0,34773290652421
0,345807532805038
0,338882228934375
0,338018789530647
0,335315641261229
0,336877450865109
0,334781314768311
0,339481231769708
0,343328617791828
0,327958970208292
0,33632252290938
0,333701004605357
0,328199231439682
0,330678707535279
0,316784044476295
0,322121956137286
0,321080577954353
0,323906860649366
0,311950463149424
0,316191013005371
0,312700368462598
0,313960662957535
0,31214446353573
0,314330200681081
0,308947326593012
0,302743612482516
0,307710922223018
0,302823103041481
0,302651318789074
0,299422566440652
0,296229727239184
0,298987789867455
0,293797129015275
0,305242240033099
0,297672978093074
0,296195134385704
0,287194256948119
0,288188574160555
0,286844907632799
0,290526505328515
0,284356352021008
0,286304401870028
0,280943678218226
0,28522343578016
0,290527746438328
0,274112872932255
0,28069321110615
0,278422514904524
0,27477893476396
0,276553945935314
0,272528886448655
0,273771078812421
0,278975635715049
0,269566254156073
0,272619984805872
0,270288113458238
0,267269554556106
0,26863532004013
0,265978828326404
0,266263713363965
0,263059163845213
0,253278577185898
0,257324631735467
0,263955145596257
0,256437682214616
0,255261568570667
0,248181381835019
0,251420894603479
0,255481380346462
0,253174687379094
0,249137355386247
0,248161103566207
0,242695429695004
0,248479841828829
0,248665817248412
0,245475782293433
0,245411819634067
0,24323527265369
0,240769189154748
0,244807042409143
0,239659588546618
0,240102879216524
0,245898679987983
0,243413406147231
0,24877318056997
0,243520504025616
0,24080351663703
0,238952544374743
0,233796419307843
0,24111663368198
0,235142645770051
0,232073798274246
0,23502602592545
0,238288770256379
0,23427845005385
0,233060568997155
0,227863776151014
0,238901872264696
0,238849401241659
0,235151153435901
0,239749973900879
0,241400703926088
0,236541672463101
0,236673888878621
0,243701177998581
0,239271250309672
0,238413332220335
0,238000502818543
0,238587719883714
0,241341856935339
0,239649926980576
0,241382654458537
0,238100678017705
0,2415524366602
0,240861308590585
0,248625965536686
0,244148560629514
0,243369442973753
0,243902284520652
0,241892291095479
0,247639855743612
0,2501390909038
0,241784201171366
0,246585998423436
0,249075098576392
0,248237611936372
0,248914775553605
0,253511992846686
0,254319688819188
0,246709177792831
0,261861613101435
0,252684813922665
0,265072524757262
0,256916117882823
0,257971890600746
0,262346090406223
0,264552009149246
0,266504174717365
0,259776714806964
0,264202246082884
0,264581145589827
0,269958376658758
0,276084755544169
0,271799730707348
0,279239854099547
0,275862508867365
0,284312321818754
0,287358760718286
0,282639121700447
0,295178693534631
0,286085233656596
0,288396323529131
0,291490053472486
0,296944945311668
0,302352414020153
0,306844969394442
0,302794156797605
0,306405588866521
0,307405554148439
0,314210310408985
0,310153150235072
0,318694513025746
0,313850454737931
0,310724757783587
0,31098829641935
0,311767484397605
0,315224204757771
0,326872302763462
0,325611313302545
0,31883961871243
0,3249867777755
0,324221594785479
0,318758841683702
0,325888624036002
0,322588196984708
0,320659214648927
0,319355015558821
0,314916559408855
0,315276235902007
0,32380011329525
0,316871182291341
0,318343784068618
0,314305094796608
0,311706409531293
0,314044945380334
0,312050125097961
0,317407026061478
0,316300175213592
0,305855537012225
0,3158967293747
0,311913451615737
0,317688605737545
0,308278362712488
0,311419894114969
0,312145609725932
0,31554099316494
0,311479185060215
0,317488751926904
0,309045596525299
0,311821498123163
0,320328741316501
0,315976528498875
0,31011002151021
0,310078062495946
0,312653382736215
0,305127508932834
0,311226973916955
0,308903233569925
0,304192717409167
0,310573776143941
0,314086297723401
0,307164005467382
0,309236908338463
0,307646084104262
0,306032828419792
0,30438180134657
0,304839050501668
0,299073234939669
0,30313783303057
0,30369864155269
0,301450758308661
0,297471962511643
0,295140151586655
0,293845931381952
0,292210749310855
0,293946027900664
0,293912545752787
0,291435262834257
0,285508596329275
0,282572832136041
0,291488396623725
0,289877339261083
0,279689028287514
0,28315596923136
0,280560545268871
0,278503962947344
0,280101197452149
0,278110906857657
0,27221026577698
0,275265739066789
0,268787003032768
0,271796441673457
0,267353108657101
0,262976319908993
0,265653065400549
0,262015383396376
0,264544404058225
0,256620684369611
0,26397606163686
0,257232649135301
0,251540193653581
0,256441547975323
0,251830127190999
0,246686516673822
0,242469675327498
0,241789180173053
0,247908277565197
0,238031766478622
0,243083192164967
0,23848601188664
0,245764222919803
0,240031696938546
0,240730237283078
0,23776733558928
0,232129207572907
0,2323735442849
0,233258530058856
0,234591682641282
0,224761702018626
0,229192861689684
0,227168780945333
0,226815016808586
0,225511159799397
0,228542619907853
0,220851814899362
0,227934380959649
0,222936610937281
0,226323293259039
0,216245051475125
0,218739105503158
0,219716972581168
0,227959809848802
0,218454065138082
0,214526709574001
0,214939436204281
0,215450253487907
0,214789353991111
0,209334407150145
0,213357631157172
0,215237327632586
0,213061779769538
0,216273470806377
0,210638215784385
0,209792240798773
0,212683043118155
0,207218340866153
0,206543594096416
0,208623712868908
0,202393289669595
0,204768180690708
0,204180233984869
0,203786459803044
0,199738961223743
0,204753625476963
0,198033114436619
0,200669319374712
0,197713325261328
0,200313198066332
0,193840858659862
0,196568324283352
0,195186987941159
0,192572754999778
0,195134679328066
0,196588541483876
0,193320059401225
0,192893041485522
0,196224113718937
0,19364891193589
0,194905804772543
0,189530022833056
0,188953195023267
0,191007527470087
0,186977557623918
0,191194375815097
0,188598050027798
0,190175124714602
0,185969131242569
0,19254754707879
0,18518515845763
0,191580652634748
0,183589956032985
0,188370329367435
0,189588665247825
0,189758630875702
0,187425074125434
0,183868145832985
0,184172328714333
0,181917788640134
0,186238808460109
0,188790178030323
0,183698207512958
0,187444089358843
0,180252194637334
0,185258821571715
0,183066093209726
0,180553531869248
0,174826944415265
0,181162919119854
0,184280390400967
0,180822935010229
0,181416118022273
0,181977675008377
0,179225148186239
0,180666411342658
0,17798105444876
0,177114604995091
0,181303237175284
0,182678478277008
0,18031255306283
0,177691420519194
0,177502111303667
0,172728856241365
0,175548075982084
0,175098120890072
0,172531383437481
0,174973744450988
0,176548986004871
0,174292104581405
0,172445810574589
0,167087096720444
0,170123557484764
0,173448789391415
0,170803703665842
0,169365016716663
0,171604749566966
0,173515418124457
0,169882632048432
0,168126390965607
0,170780710653416
0,171290898530977
0,169169604882539
0,171879326403466
0,176854058337141
0,166744876458251
0,168982806833021
0,169469849374674
0,166868246566121
0,169552179049181
0,169930680457322
0,168533864277122
0,168644384521442
0,171932285133685
0,170984112353631
0,169308071081581
0,167879744331126
0,167966032194309
0,165396441597762
0,16686115968189
0,166522966066876
0,168618669723243
0,164759796871351
0,165665416767537
0,166575507560142
0,167900883213276
0,164495032121974
0,163807897529823
0,1645846132184
0,163381892320266
0,164934173273928
0,163059712756746
0,165129717323172
0,162970859545237
0,164825146004433
0,164881997858112
0,161876401660171
0,161157733256527
0,162961121465378
0,154338628356505
0,163312124636373
0,159548602307449
0,16121617596344
0,162527234815363
0,155190132254078
0,156122244872418
0,161117786197823
0,154175491973478
0,157231910156813
0,155709199907521
0,155381714893578
0,156381796058095
0,154101872707276
0,151573773669532
0,151750832734433
0,156350984542067
0,153477258502112
0,155544513732241
0,151957349148514
0,155078829717851
0,154345423537013
0,151054763439682
0,15113920327978
0,15288695267348
0,152965715748726
0,145845260682435
0,150207135334082
0,150844969745068
0,150618241385259
0,150703624184721
0,151911367387553
0,146471888198244
0,150178977520165
0,152828811143813
0,148993355980582
0,147864494207007
0,148805495041151
0,148586694890221
0,148014040064977
0,142979999231547
0,144967783561346
0,144795332568746
0,146196651812353
0,144688905836
0,144181313272654
0,142633640550348
0,142288302224629
0,145396903510116
0,145981126698877
0,142882983337073
0,144386960185416
0,141658670252351
0,143210024952919
0,14152602507919
0,138991592824773
0,136713496277127
0,136522317536303
0,137740002963659
0,136557577338466
0,138949969227055
0,136733916126154
0,136025359925874
0,132236608188867
0,134050484879928
0,134255796565199
0,132803255502018
0,133760471016836
0,128945665210792
0,133006092156789
0,127441240124198
0,127709970109939
0,1275000291975
0,127295980227525
0,129189308400583
0,130410519992516
0,128429466800863
0,132673018824766
0,126291608840225
0,126602961508106
0,129841513407384
0,126421571689599
0,126463842218973
0,124754828549992
0,121273932046245
0,128465260730552
0,124383547665822
0,124666154444159
0,122024337354832
0,123723761297321
0,123396817406276
0,123156697567745
0,123324844316215
0,123102108212634
0,120940209209852
0,123672112759734
0,121472186928375
0,123180489376768
0,1203128169089
0,12382339862917
0,122393843611353
0,119039446413287
0,116811921766249
0,116918009269701
0,117566680265495
0,121849295694992
0,118114962000097
0,120882068765132
0,118796866038231
0,116992360386832
0,119348978366549
0,122044688545685
0,116706579753728
0,116141938223104
0,116894564482478
0,113432742581415
0,116947802563411
0,116606236379775
0,116704659192256
0,11627351885452
0,111676945114238
0,114947342707208
0,112368893351502
0,11390639256308
0,110040170372246
0,111027162259626
0,110072007668625
0,108460159540063
0,109882477633503
0,114588188398617
0,110317595333476
0,11217773649951
0,107632989017962
0,109297116403076
0,108890837179547
0,110583301494896
0,11307308157484
0,10957180359638
0,106512831791911
0,10916588452543
0,109318765225694
0,110463737610745
0,106253200415474
0,110075720654558
0,111720425733239
0,105699174812117
0,107115771748808
0,107363618476951
0,107540095786677
0,108886356027592
0,107239119515945
0,107462067987869
0,106491909294497
0,108276108862364
0,108040390064353
0,109856436148588
0,102954979443106
0,107078537480242
0,106135594721918
0,106088732463357
0,103593724366558
0,109496331355513
0,105484275981593
0,104843377759664
0,107507296694641
0,106406648834745
0,104145181340663
0,102728626106222
0,104499093771825
0,104964085833322
0,105127855297926
0,102809177835381
0,100722757009509
0,103443413336002
0,103293922705589
0,104809997892558
0,102049845645453
0,101766084987268
0,0995256866521873
0,100143633486926
0,100458364287065
0,101206216384522
0,0980110796056041
0,0992098694254439
0,100619872635875
0,0991011191972495
0,100443002342382
0,0978195216116233
0,0986204558003152
0,0968537080829222
0,0986733798920147
0,0986939222023756
0,0953563356360319
0,0971836424655071
0,0975287469000372
0,0988536408633723
0,0969385550269196
0,0961801514986308
0,0972048520765841
0,0978951076303711
0,0962418994415274
0,0965645154457255
0,0941535729587949
0,0948764621739313
0,093276876040269
0,0981119577768796
0,0954895911162281
0,0971299152914395
0,0988617317247885
0,0997933651513455
0,0950170734667783
0,0978753011267976
0,0959656826117702
0,0957222777594312
0,0954195745221297
0,0966774672971932
0,0924871307640463
0,0961938822806597
0,0926947861487548
0,0963482269022054
0,0923922055042319
0,0929827657133472
0,0943190064052366
0,0932508703005834
0,0951951486380317
0,0956023989242922
0,0940755309382853
0,0925415615516539
0,0904389024201957
0,0937753438334374
0,093571318406716
0,0944580675866507
0,0910211712400645
0,0925761751920206
0,0882986623491792
0,0915809238168948
0,0909260268683778
0,089811368814763
0,0893087607015685
0,0919595612503741
0,0870996686756152
0,086618698472074
0,0838493477333233
0,0896070481961369
0,0880912005505893
0,0874377045264635
0,0863189447097735
0,0884411692938359
0,0883697243801572
0,0856236572242479
0,086584218442316
0,0865891549546663
0,0837711258281866
0,0857356488066497
0,0832387117999632
0,084851811289947
0,0847729098385592
0,0856641744317538
0,0838893420472134
0,082287151263055
0,0828672120214158
0,0839206534705535
0,081248471584055
0,0832124151113378
0,0816713160128895
0,0821769895185371
0,0794887977015849
0,0809657262361037
0,0821020508809926
0,081687707364989
0,0786899527453626
0,0807374580220476
0,0829543365439772
0,0813928637868918
0,0794307357783136
0,079572634042669
0,0817509416783161
0,0815804793342346
0,0796053443287249
0,0799480198850264
0,0783156660767254
0,0811656146751051
0,0773366540229696
0,0807516422879165
0,0775913972426582
0,0814696544134073
0,0774492822588636
0,0768471348863543
0,0773429789498483
0,0771120729465189
0,076431465320861
0,074350831355522
0,0730918457518796
0,0734929455695517
0,0728248673821421
0,0751589014199985
0,072937323805761
0,0756787597528368
0,0733027301444368
0,0735371073388042
0,0750098738847383
0,0737447894594629
0,072992380624737
0,0733765756947676
0,0722619319568097
0,0742332689351027
0,0704917379144882
0,0712723641551462
0,0698114094197329
0,0717623242970894
0,0691039109022514
0,069153277830781
0,0693808979759065
0,0712081628809654
0,0691854228186027
0,068805465652146
0,0691072369599671
0,0691020339499007
0,0679766601108546
0,066531022789493
0,0668613302390086
0,0663499742742414
0,0664047032991089
0,0678567301271633
0,0668288128972785
0,0684035246049243
0,0646616054285103
0,0673067572903582
0,0659018382058428
0,067534656940059
0,0674091660705355
0,0660870398961377
0,0674679934298973
0,0692866699170362
0,0675243933091062
0,0672879626763753
0,0686680168658089
0,070478062802476
0,0683596161267167
0,0690329136055234
0,0695598131260005
0,0689750555521317
0,0698134695662204
0,0730735262004308
0,0696214047472541
0,0726308966482266
0,0698112735193207
0,0734093294963324
0,0709526640754642
0,0732607523681098
0,0710461425732277
0,0731925738558374
0,0644484164815943
0,0689921077496889
0,0659889028382898
0,0708291227226333
0,0676232844389738
0,0724430326585366
0,0693006465180449
0,0671595986366148
0,0738766505641662
0,0677209664009084
0,065403797208506
0,0735373436951684
0,0647216664694461
0,0742936957279979
0,07147989601568
0,069198032637193
0,0671416728427454
0,0736807450059619
0,0692933562273695
0,0757175908810121
0,068261639132863
0,06623555763639
0,0617390144381279
0,0674825969760048
0,0618653304212728
0,0635291745372047
0,0637064027269564
0,0609211190343429
0,0639480723934433
0,0599748018063996
0,0655181124298419
0,0657550797785341
0,0675604761159967
0,0615395439462778
0,0694465660602463
0,0583107430923366
0,0686370312111125
0,0537827924364307
0,0663524876500267
0,0537524792266801
0,0767494512086326
0,0512227435623861
0,0771144055384069
0,0499057376704902
0,0790584871148335
0,0413225282740337
0,0846506709305837
0,0420479997659263
0,0886081428413337
0,0365112232340616
0,0953161539855206
0,041131898352395
0,0917489467869299
0,0364433232577344
0,0924073670581346
0,0444983795265743
0,0812441881938122
0,0493958229154504
0,0741030135500656
0,0567892176583451
0,0632850415514956
0,0644464360953783
0,0558870619656623
0,0692281509195338
0,055499795071968
0,0702147138095036
0,0532600199602305
0,0661069322638964
0,0561044411941059
0,0635742602208629
0,0557736643301475
0,0572776612682555
0,0610972607344392
0,0536442002800013
0,0597832795882738
0,0575203981350596
0,0573629505139909
0,0588067716118254
0,0562464652039791
0,0552557710746928
0,0524523026703896
0,0567929579377958
0,0533362587839983
0,0561585849013586
0,0539898370556558
0,0556948672526003
0,0518029860175183
0,0543837460118107
0,0542877487503698
0,0534926439447863
0,0518776280212485
0,0547688261708293
0,0522951794805081
0,0539132516506964
0,0528131750495938
0,0550741362886632
0,0557343540767354
0,055865856304868
0,0523865059706444
0,0547285572645728
0,0536254697717962
0,0538693220887748
0,0519641228217235
0,0554569692051601
0,0533736362097192
0,0551738027219078
0,0524824934939038
0,0541846909781244
0,0544989215498297
0,0545055251508069
0,0535698707833055
0,0555062691022592
0,0534182854661862
0,054698537300388
0,0526535627786948
0,0570466267254302
0,0555297165944265
0,0544929918100148
0,0560215938386517
0,0560837658678224
0,0537275978432492
0,0574223743449408
0,0537072445756115
0,0542434235178195
0,0535131973302212
0,0548947743934326
0,051922071341568
0,0540242698315095
0,0538910789072123
0,0542766218275157
0,0520184443206623
0,0540554613825226
0,0508781195215277
0,0541266055983619
0,0506940410701618
0,0546594852745313
0,0527083685124021
0,0534830732343892
0,0509359698961606
0,0546878915966715
0,0528762885649846
0,0537688607350417
0,0530862021350496
0,0559327119048466
0,0501193877451887
0,0526286996233889
0,0527632154794501
0,053571654381138
0,0484981143430517
0,0522996566308692
0,0515473948828851
0,0552038621517204
0,0521780127689013
0,0539567029546013
0,0517134364627574
0,0547526897214603
0,0526980907570283
0,0544064326566238
0,0519142220724923
0,0549819802520425
0,0507153939092792
0,0546292261469704
0,0536192395639558
0,0539362816145184
0,0526056587906438
0,0556819752275512
0,0540452238604594
0,053241517485516
0,0513564486070442
0,055590233319514
0,0540702195790856
0,05579687086671
0,0513443925923193
0,054567863854866
0,0528033240817087
0,053514818327615
0,0546342967469668
0,0537439886872237
0,0521195533853108
0,0563900253859578
0,051719679517517
0,0552964563152433
0,0530310754435804
0,0555966941025591
0,0525023596614528
0,0570718424738778
0,0522303420628322
0,0529656490869304
0,0519301266190258
0,0549983163648729
0,0520755107310581
0,0549392996589533
0,053406889877733
0,0566328333834373
0,054964697790829
0,0567075157262051
0,05100746415674
0,0528617189535571
0,0547849453535475
0,0539682236942153
0,0520242422173878
0,0554567431638043
0,053251796623849
0,0549304204869244
0,053648008225747
0,0548132569809288
0,0533362114807499
0,0551234411812651
0,0528297155214802
0,0548110393097133
0,0535759094083893
0,0574996829318004
0,0532951078058813
0,054488935374437
0,0536905613117446
0,0566165302454137
0,0531300077858216
0,0567376994443782
0,0549521480028814
0,0570939574089402
0,0554384366073835
0,0578238806604929
0,0552613253903679
0,0575313814532101
0,0552743827277737
0,0567351166465689
0,0548839781463436
0,0553882856193123
0,0549847477833065
0,0577770763488509
0,0568004613093426
0,0589757123019924
0,055648878912469
0,0571928343919019
0,056989407893563
0,0582030487059215
0,0536472716031782
0,0564560677240943
0,0541602795922804
0,0583411485193327
0,0569625334810723
0,0565123663078211
0,0546471073349259
0,0562007940573505
0,0525309083053954
0,056801587782685
0,0563067047874028
0,0559534633966203
0,0529914913889625
0,0563517311521873
0,0547541605305418
0,0577996227885388
0,0547867005246881
0,0558950183936446
0,0528919225264705
0,0536938557826722
0,0528628811527986
0,0561561248983763
0,0533875202293077
0,0542731522997039
0,0520371865617364
0,0553866620961206
0,053880517682871
0,0538777367635997
0,0524991666401448
0,0536083001195205
0,0509538111624921
0,0538921539670822
0,0545439044323058
0,054604396818764
0,0505295206742581
0,0531663884375594
0,0539752896634735
0,05638964910782
0,0505076644227962
0,0525097269626511
0,0504442554100773
0,053938615003454
0,0520488686726995
0,0549858838822168
0,052404707608066
0,0530661289191758
0,0518410892562775
0,0545587985431851
0,053102616529795
0,0529530031932584
0,0503306715615321
0,0524942024354144
0,0497805208071803
0,0537269613582781
0,0516463920420309
0,0529271462227904
0,0505915424329083
0,0509638113295682
0,0494731451025673
0,0541854900699831
0,0496675526676425
0,0527029009528488
0,0506919961010871
0,0529955899959799
0,049745756128416
0,0534284566993149
0,0487682712983901
0,0526305512193218
0,0496457068951378
0,0526593114943927
0,0502005548348282
0,0508782795084101
0,0490589145961147
0,0526590073252726
0,0492160444457161
0,051951612931003
0,0486724333928309
0,050586324645023
0,0498051058931592
0,0509519855402
0,0469931389552162
0,052457737297235
0,0483472635928594
0,0528098538867585
0,0489323699371417
0,0506096893368063
0,0463203474039841
0,0498428596537668
0,0480889304493747
0,0503009169963819
0,0489675958123203
0,053356973702
0,0494791360360365
0,0498543417321152
0,0455262366841264
0,0500730457053532
0,0479181630010488
0,0489470279863479
0,0463559394731518
0,0519921560170196
0,0484365786019325
0,0486357741959139
0,0463133585566914
0,0479510566272899
0,049493546297505
0,0505703641720037
0,0470351008607383
0,0505074929443048
0,046503130341211
0,048847137445808
0,0463816621515412
0,0499172701215382
0,0474111820343974
0,050163228078711
0,0484359467642698
0,04907579789633
0,0500285369382281
0,0497769998017034
0,0466358047708017
0,0468720165611811
0,0468809926075145
0,0492900556986823
0,0434537376790236
0,0485254253373174
0,0471189721559467
0,0471287869344373
0,045153361804579
0,0492113235322823
0,0463828416678056
0,0491163005845265
0,0437192115330943
0,0467969783757956
0,0455495404952042
0,0477327933415848
0,0427952620561128
0,0452196688126972
0,044377167452672
0,0464078861178488
0,0392757527111261
0,0451724926434015
0,0424364949420007
0,0485488064064125
0,0440916578043636
0,0476938062150387
0,0380144359370391
0,0459558071708714
0,0394692709248093
0,0450045071797742
0,0389538354402026
0,0435668093091535
0,0383921173888379
0,0427987282535858
0,0408450016603579
0,0408136473016164
0,038729183760508
0,0420964711604516
0,038648869146237
0,0410535344104689
0,0384759513027687
0,0422731347738449
0,0373982864739206
0,0415439527563373
0,0412923211118297
0,0413409571527289
0,0355967715623179
0,0425320126772325
0,0363980869439456
0,0396773264898489
0,0434607106530052
0,0516762193532422
0,0440685456171605
0,0378173777298584
0,0408793337729338
0,0430662835780184
0,0408993889147464
0,0396182718550375
0,0377792628518556
0,0394577298325206
0,0396578038742768
0,0395615994045511
0,0397724742692173
0,0402540315022715
0,0384330867944841
0,0391032613500745
0,0373624552164951
0,039337209813806
0,0387294902589168
0,0406686564939301
0,037799019500026
0,0370025049954579
0,0371789007046518
0,0382475186877935
0,0370152998704429
0,0380831211618947
0,0385415812556175
0,0473042515477373
0,0438893271298687
0,0396195559786589
0,0375850390103842
0,0359015820937929
0,0371593349611606
0,038111014553247
0,0361007163643214
0,0388210684961884
0,0354591942181594
0,0378381679983306
0,0365909502412606
0,0371560968819581
0,0375979373053584
0,0378718142814692
0,0371256725638407
0,0363340103415496
0,0341732875418648
0,0369345278105931
0,0369213028800511
0,0362858808602942
0,03662460015654
0,0356410968422364
0,0390625253438187
0,0390740572261453
0,0325172114125328
0,041351762953415
0,04770688062581
0,050310993372815
0,0314433565321718
0,040768499626723
0,0342274887462227
0,0393835290997256
0,0321048858347465
0,0382266662513624
0,0332264843484805
0,0377349939180433
0,0346223870182345
0,0380362771943149
0,0328544994680587
0,036944143152664
0,0314700561434139
0,0376040699832955
0,0335290456220223
0,0411556984257518
0,0340354123418338
0,0364433784148027
0,0387731263109822
0,0513886103932241
0,0422643999270566
0,0415761888329618
0,0318679321885459
0,0422490266053818
0,0416754046367983
0,0543140054236695
0,0297590296533425
0,0392064279948901
0,0363699343601086
0,0364225562115531
0,0318255358292785
0,0331677907643067
0,0359758897156991
0,0403240814806775
0,0398842249608674
0,0376174918804475
0,0355803462953878
0,033919203800275
0,0348546245232308
0,0357164681085678
0,0342972712700272
0,0364348980388403
0,0319748898177887
0,0337402012979564
0,0318174273661945
0,0354163336158057
0,0306578121743728
0,0348249964216421
0,0347274406849815
0,0408839777859603
0,0352714296215643
0,0343066453471605
0,0333122695901096
0,0301250450733336
0,0382041205997744
0,0490908490998844
0,0424567470228546
0,0327609859413754
0,0333307415859895
0,0315213194772467
0,0358682975845859
0,0361946787606877
0,0344580622137523
0,0345342506597507
0,034096032075049
0,0347817729119788
0,0318221042669948
0,0332176966333945
0,0316007755051884
0,0331746851314286
0,0325287277171526
0,0366467862615741
0,0326238289469431
0,0357328745639136
0,030637994653778
0,0391300878518702
0,0389801695165705
0,062222432824857
0,0508366046757869
0,0487496528667713
0,042837316200975
0,0353550644631312
0,0359198221971254
0,0340021629666071
0,0369078678590997
0,034279337233258
0,0357801210670656
0,034870454277445
0,0372317236647735
0,0330812381884954
0,0351163445896962
0,0314048552297768
0,0331486559435758
0,032607536011335
0,0342848291392253
0,0294108789623864
0,0356039308704284
0,0292620406933581
0,0393384927612157
0,0385155902974934
0,0460628428327695
0,0320805691664762
0,0391685008235777
0,0476161062198436
0,0626450956275397
0,0458011699038588
0,0321140163790242
0,0401180638369755
0,0298306931453607
0,0352120897877562
0,0302629255587005
0,0375411127259793
0,0338796201371218
0,0372444542153435
0,0317174552420232
0,0392367846545064
0,0311942071762218
0,0312616080130501
0,0373607396151223
0,0620385466985982
0,0515694707380903
0,0409064157010791
0,0295263739902557
0,043716302990698
0,0472261663013281
0,049025933048507
0,0320024078786245
0,0424079225017117
0,0323178625532705
0,0384868257435384
0,0319518026140406
0,0357117192412087
0,0359108933824964
0,0376595775706327
0,0339644702113426
0,0344728030792207
0,0335702881348006
0,0374686006403056
0,0398135639525512
0,0486123914642531
0,0433700132095111
0,0408334963059642
0,0346267535948376
0,042694728398782
0,0354994641384722
0,0368037242907642
0,0334897522131257
0,0335990514450247
0,0466700031204891
0,0517555347257617
0,0435426298054452
0,0488869932230094
0,0464252758907667
0,0395042266170881
0,0346944859033339
0,0544551431483514
0,0428402424382546
0,0354147159154444
0,0462540859713081
0,0540693552994483
0,0704330022196202
0,0480066993359711
0,0506910115309576
0,0295779196398129
0,0444969092548565
0,0257575255038266
0,0441021545853865
0,042946138956202
0,0497907777188037
0,0340836703677099
0,0382681695831537
0,0478173983329781
0,0524912475478279
0,0472499170320717
0,0421347379180169
0,0372393125595265
0,0423716308710133
0,0512198911122349
0,0403671782088257
0,0442022625656339
0,0424249609903202
0,0911711099449378
0,0630124113646583
0,043523387929632
0,0431945628630281
0,0621922429043337
0,059724889406564
0,0364969634530781
0,0436531706405737
0,0430524202969462
0,0367122271142369
0,0503115861394048
0,0608154719099669
0,0576073840474203
0,0461135324364583
0,0439972540312589
0,043355663690427
0,0547929487011074
0,0621282432952735
0,0441722552493108
0,0486710365145735
0,039864317069503
0,0492560754594514
0,0757565885773378
0,0703211916280641
0,0695190925473794
0,0615013794143898
0,0800190424508492
0,0561002257906388
0,0640916074231989
0,0487289197798923
0,0726502292805335
0,0695050472231432
0,0617414707001768
0,0390798391490346
0,0707501766940762
0,0640327949449244
0,0699763710750928
0,0497902507771998
0,0600343884527415
0,0447076994902606
0,091298571908892
0,110996104985943
0,101555274742115
0,0605565005798409
0,0691617854472325
0,0741501478703542
0,0723491804486803
0,0548506151097256
0,0596382707534778
0,0575806402787168
0,0589239875536059
0,0584885845768089
0,0699462136870309
0,0630522188311158
0,0662795135972189
0,061390722269934
0,0688804537847712
0,0707837332213525
0,134760247405329
0,0941204305636777
0,0978488247492531
0,099297808912512
0,109365337177552
0,0794927187272375
0,0731812032304921
0,069834929053518
0,0841405806137001
0,0783062657386295
0,0726475117649773
0,0745583117246962
0,097186510235088
0,0867102883178768
0,100732437541746
0,0853876399394387
0,0967296283785214
0,0679975909936199
0,105310171959213
0,13199221179343
0,140070492466326
0,0945377127477901
0,104096674144536
0,103747859305149
0,149325435018091
0,113456017449988
0,0959638320691595
0,0911130660585054
0,0916288246288549
0,0942424602205674
0,106114461064961
0,108344922789597
0,119355719998935
0,101234489483049
0,109261965358786
0,106805783171712
0,198272047311298
0,181997118926871
0,134706206827696
0,115730863042669
0,137725780001905
0,134165352464993
0,12309071401002
0,120259870321691
0,11884408925997
0,142194535630689
0,154248437574161
0,150249568329316
0,127359550927546
0,152348676982534
0,151259312188164
0,149759740212046
0,165831396530359
0,184172059869755
0,160880683282883
0,146192099095127
0,155613616814569
0,144589671946889
0,157266474216777
0,168759593588048
0,18776856631062
0,164188250637563
0,166294777102642
0,161283192611972
0,166618456656424
0,174170359161744
0,17213621341976
0,180433068311068
0,206809215701233
0,224617375966631
0,316196970679064
0,217097387258151
0,194991997965066
0,176104760567193
0,19987744599586
0,203873728205939
0,22955865290932
0,216333773247606
0,21328513445075
0,18426140282797
0,185889565854558
0,188471200030035
0,178881515961
0,188841086158149
0,180933276192041
0,179956660617309
0,207820141308509
0,195934579270927
0,235579246380367
0,225229545318424
0,208319360164327
0,172808802906187
0,188110602793395
0,172729897537495
0,186955403151518
0,169134179307889
0,192944706792835
0,180909638761687
0,189635472536443
0,162022327168445
0,179032738274564
0,186288915996306
0,204517596378813
0,176769504607284
0,177092811012258
0,164936980331914
0,171360510326316
0,156245813973423
0,193652600959202
0,188492664066798
0,181431428650897
0,148785372619074
0,159410317848448
0,145180374373769
0,155427708277836
0,144035603414669
0,155995140326855
0,143065185206509
0,151350240936944
0,142427218700539
0,151384182402783
0,13610666106396
0,141245299513065
0,135959353078147
0,142457011254095
0,134615136916188
0,140261671619967
0,136527887770054
0,134797826399328
0,129971058761394
0,138998503738094
0,127568990070835
0,144201038458332
0,131548516026128
0,132647366982095
0,130242551640972
0,130614442459382
0,12891335168794
0,130667293268672
0,122648837571512
0,127184079050392
0,122300876189968
0,127440134848951
0,12011062563597
0,121643771060512
0,120640444353053
0,123270320249945
0,120689341157143
0,11948093317517
0,115159246464659
0,116993837858888
0,120668035211386
0,159780787652923
0,142240631353864
0,128896862540887
0,112685575424482
0,121954068003754
0,105177813729897
0,11677550029866
0,140948240011017
0,150582482658653
0,11517117803322
0,114737546827887
0,103508868785241
0,132066982888399
0,115367349599429
0,116097258503298
0,102197666645359
0,109209097411458
0,108295091123556
0,182684205629872
0,17991578955614
0,183260456413286
0,134660472279845
0,106105178186373
0,121912316051364
0,137915048295821
0,112066758651581
0,103201453824083
0,0982111275312845
0,156248750944375
0,121725228362678
0,106300284620249
0,0954217960558285
0,101583929157297
0,126908210801135
0,13733490149979
0,123742506919372
0,131850967488121
0,134239627532982
0,128388353784986
0,13830724163877
0,184117665638681
0,13129372183015
0,105258848701169
0,101505356678762
0,102817394611865
0,105225632496841
0,158093921758314
0,114078159762546
0,121769688539561
0,0938623471535375
0,0988844637740195
0,0964111818912743
0,126533277826307
0,103123002847205
0,121898014375086
0,131163732096441
0,108407976771589
0,108314011781815
0,130525202550212
0,14033751791517
0,172754309649762
0,114076976831704
0,0941466698372631
0,135735297329606
0,151376699541105
0,122265115899928
0,120074182624692
0,0937153448858536
0,110926543967292
0,112732827912198
0,105526202686035
0,124656586293659
0,128332574622225
0,141164360081358
0,1601942222032
0,183744880855411
0,172418450245675
0,11962697879193
0,103336358578366
0,0979617552291326
0,110826126354021
0,102350790821584
0,0988074031638474
0,136797607282091
0,114053136680673
0,11184912359463
0,152858108424298
0,123976667428066
0,109770438195707
0,11335762286925
0,109091213851566
0,116832930362105
0,138880522643478
0,169395480056839
0,141902220021357
0,144424054330607
0,149306215025328
0,131346061080062
0,127553439337606
0,123624358506174
0,129399062766429
0,133038099578599
0,14769581343253
0,137706527283518
0,139366674489061
0,143960274332777
0,143812164105987
0,173390719080609
0,173425009609994
0,159871251382412
0,185592783749091
0,19072593149465
0,235369870840084
0,185245765344924
0,179025962142515
0,177206029914556
0,181888400074111
0,182499871000803
0,184008254272103
0,198504328449887
0,228820868341153
0,198662909276244
0,200528730159037
0,200510418377432
0,208608549164226
0,20700209463801
0,242251693860352
0,240959041730541
0,278144581806636
0,263945415003615
0,257295485019054
0,226528027799115
0,219816478501902
0,231031070398226
0,22948124440475
0,219541775498716
0,221610014720636
0,223353249019633
0,251433579630526
0,229635578334257
0,231650363848693
0,220730699975794
0,228883967658875
0,226344114272398
0,231473226049283
0,22928808097176
0,23413443799806
0,231726078683457
0,233856411990415
0,235866506294974
0,30688604575264
0,257261845245373
0,250499299723655
0,245699041234953
0,257018831063364
0,246038384868387
0,252493366279971
0,266663216553958
0,265820612071366
0,257750049562796
0,260836043187875
0,253937875877897
0,257604060183649
0,27213692617536
0,290040067752643
0,263558304786791
0,272745458548817
0,257017926443494
0,299832293523095
0,304003983240384
0,299108890622208
0,281782154517373
0,283984596872467
0,266531690404299
0,273619433437558
0,265538305757915
0,275489824779769
0,273757860713657
0,276032504176186
0,275374377808698
0,272949656062314
0,272245592222672
0,271113393570105
0,272466647138159
0,295771004070381
0,272163740552142
0,270375747273918
0,263616595417853
0,261716622376336
0,258492046276705
0,289934681270465
0,279330415504403
0,275475959646621
0,266667352434271
0,275470635108783
0,278979276484023
0,275754915564339
0,254798190691845
0,261838643175371
0,257280156237474
0,260287761845569
0,254640897350085
0,274807424569201
0,290219248629199
0,277812840823848
0,26553058022487
0,271547522481614
0,262683686406314
0,269374399457214
0,272679528607924
0,272026482855087
0,27767873163863
0,283160345069346
0,282774236680616
0,283364650375719
0,285745208645116
0,303772197666213
0,308784988863302
0,304845493981742
0,288327783220443
0,293936168042438
0,292060740703928
0,292601013069535
0,300660001390188
0,294617942122168
0,289605673286255
0,293150392789275
0,286744618258287
0,293684284619275
0,322677914872107
0,299641846687062
0,30042843481501
0,29746041114334
0,284835715778446
0,290835666603929
0,285665987104796
0,284476956714132
0,280614863851525
0,290246131899799
0,275958209311098
0,284591696961024
0,277129556441591
0,27807987436551
0,276704773651756
0,283453847456149
0,275942967591482
0,275848510823195
0,274042405828929
0,274662487216669
0,27207303810461
0,273605474253936
0,271419331454964
0,274476212591413
0,288381919347866
0,29208819365304
0,298036097617381
0,285772137499813
0,276672219705317
0,280423689774549
0,267127796188995
0,27665139571711
0,267335701961661
0,274969178733009
0,264389942380444
0,271101542804577
0,267137626046458
0,270096128620206
0,265107026145199
0,268369226286787
0,262935930455296
0,263857262337606
0,258953284158787
0,263138414468627
0,26123580077614
0,264033589729791
0,256978280858634
0,268970669900555
0,263589245071211
0,260486074001391
0,256150855664181
0,256286339309982
0,255905379280214
0,254505105139889
0,258365264803403
0,254956538840315
0,248590973529486
0,252057566645724
0,248835998223401
0,252633282665254
0,243829477761067
0,248459542098498
0,249483729760351
0,250052540721384
0,244143086242373
0,248047904800422
0,243680938928496
0,241766050335397
0,241397799135094
0,238310173113153
0,237641206489183
0,237466049312524
0,232610965855348
0,232256868295934
0,227192907838368
0,230678576474286
0,224000019387749
0,22661255416181
0,224085402535354
0,222467221375051
0,22106608344187
0,221960359549009
0,217006528631796
0,215911841716015
0,214680126950315
0,217943470105321
0,211585398700003
0,213526520918256
0,212204271113973
0,214409403811161
0,211012891791453
0,21708429957177
0,209596884652575
0,213407799903619
0,212726419147657
0,214547376939229
0,215862421975881
0,216091808507036
0,215493124414772
0,21936693334372
0,217694479968338
0,219215548714004
0,217868089459721
0,219595408143093
0,21979795084994
0,221066598375562
0,220959637609084
0,221274054783065
0,219702483956945
0,225202987924689
0,22140936298612
0,22793414538419
0,222344407317736
0,2246032569805
0,222517171785105
0,224113700343654
0,225534311828033
0,226677259704018
0,223814181444359
0,224814230862181
0,222754334533231
0,224426898132082
0,223127684353629
0,224512930603914
0,221460629530968
0,224308254847382
0,217099748924776
0,22105877252834
0,22089495255491
0,220422905357642
0,219209235244732
0,220870374739115
0,218527252667605
0,219698004608633
0,216574553448206
0,219410911290387
0,215838299745132
0,217684954829774
0,213734494881758
0,21311223515479
0,214069805722172
0,214382519510374
0,210311988163144
0,210798439625456
0,208163593843543
0,208632661803272
0,207043147686177
0,204340840045757
0,205918101066603
0,206128253931091
0,200552526387288
0,201088030135204
0,197694013274847
0,199392933564919
0,195646865287664
0,195318180482008
0,192872627421604
0,1932658824579
0,190053234692028
0,190224141552046
0,189006152641176
0,188429875108799
0,187337842629616
0,185734529710454
0,186138718799143
0,18551471473848
0,186380639740479
0,186801945706384
0,186618900974106
0,187403061204856
0,185075915491563
0,189515182014582
0,184097547057563
0,186470831084569
0,18573638979695
0,184080431594969
0,181062015873208
0,182159369109699
0,177434302401586
0,176899207377795
0,174028055771199
0,171197513115835
0,167851093063203
0,16842954994907
0,162936055251661
0,1618356055823
0,157444409991376
0,157577702995047
0,153030823535051
0,152140665849532
0,151415374096101
0,152922246518875
0,148864845680932
0,152622427296664
0,151258382701879
0,153933268146339
0,156078487371116
0,159943792777689
0,161646681730483
0,166066981952206
0,170132090972256
0,173199588081492
0,18438610403212
0,187926146534786
0,193176474160008
0,20224777060864
0,208912397373992
0,219333532159173
0,22618001690482
0,235998899044526
0,246858611556005
0,259294251948159
0,269828186338386
0,283492366519219
0,296933377413288
0,312205369545232
0,323702859779264
0,338154411893711
0,352368935667435
0,36277365313064
0,379543636224547
0,394061144271852
0,403850560547697
0,41721002552971
0,42293507575056
0,435008494335665
0,442009484932203
0,446146730522838
0,45241587794694
0,460835651726037
0,458557213455964
0,460229086492164
0,46165730096545
0,460999831512656
0,454778987376079
0,453635547773081
0,446829669507022
0,448396013559911
0,442692260968028
0,438957433695235
0,432587835270962
0,427504828380835
0,424048244723643
0,42029589163511
0,415191493916131
0,411420556598175
0,414201902994912
0,410890878441584
0,411122827064871
0,411960627626071
0,413750855890643
0,415310023523017
0,417393671052878
0,425871726456295
0,426934959516951
0,431181509722826
0,431894914091887
0,437643580198676
0,447582320519881
0,449505545977539
0,453441944928473
0,458375591060426
0,460294592931563
0,462944523163628
0,467904787522198
0,476370407032954
0,477283259953888
0,47960573134758
0,476681188234361
0,48559803413333
0,485927888585916
0,486623916765655
0,485086862597681
0,491139282264283
0,49234070402818
0,4898304729813
0,491658996499428
0,497523135193566
0,503241509562114
0,505014303863586
0,507777954883533
0,512651488031945
0,513473141731049
0,516540570648453
0,5184369669233
0,518972913092523
0,520427829702079
0,525097128240671
0,52810536238413
0,531443609586114
0,532364498222806
0,546671738045177
0,547807607633612
0,556252756605759
0,562802676256069
0,575058391092495
0,586808818516163
0,603197404603141
0,615754585038894
0,629177401292898
0,653704002109834
0,668937442045437
0,685403101894576
0,696996025656734
0,716459232902163
0,739230307000976
0,739470745889631
0,752708618337933
0,774301024458163
0,773976351339313
0,772367172674787
0,779277692795247
0,784212260803187
0,777755348922401
0,772401105239529
0,762427907217337
0,756877497154692
0,750596408060649
0,746077561353496
0,751370629516249
0,74305717947664
0,735715892778675
0,735659456007949
0,737176905608275
0,745480306044683
0,751483531431449
0,746591992042697
0,755098746880217
0,762059561234652
0,775170468413016
0,781681137952738
0,789788538143476
0,803559817286944
0,816034771795742
0,820106193889525
0,832262803102345
0,834123277345518
0,848881243757594
0,857511840916255
0,869351247676881
0,887034120341904
0,894921817153387
0,914340331452901
0,926842309997271
0,941992350514154
0,944828555697547
0,959296266632542
0,979546893322666
0,985558899735876
0,99072332031305
1,0086776650423
1,02491710719395
1,04887581066336
1,05553755889072
1,0569604555485
1,08323562499118
1,09678172657835
1,11646501289209
1,11779634319294
1,1432076815657
1,14341369011572
1,15315921691339
1,1813275811951
1,19538331469897
1,2148636870337
1,26296372727212
1,26200275109343
1,25635877943574
1,28549094722685
1,26644127513008
1,31335299316115
1,30747357890594
1,29457810420865
1,28692871429559
1,3090000398459
1,27212061143526
1,28340435941503
1,2562311369423
1,23504839294317
1,25993755154475
1,24025611456735
1,24020255192226
1,22344863326022
1,20737083833588
1,19001167409347
1,18615865245323
1,16894023328827
1,15203371888499
1,17110420867363
1,14833921986715
1,16076186048526
1,15417788930036
1,13039285231031
1,13118649256836
1,13515746078361
1,11527930102345
1,1111023702428
1,09043614910338
1,0877927948383
1,06395383753723
1,07346201201728
1,04503602589222
1,01921009971875
0,994379820920308
0,983778794235153
0,957525961889652
0,912536809594539
0,88011950254792
0,853014599618486
0,822598509765731
0,780500452023427
0,734541825224962
0,714771045080142
0,674455602207662
0,629363154768524
0,595192786258277
0,565823702636716
0,538536072872132
0,507312157008179
0,481187863192123
0,455497805421601
0,436377674114739
0,421842036358124
0,405982238055062
0,387364758180837
0,372816621817442
0,363658385118681
0,350029701825046
0,337871674836618
0,332604085849371
0,320907986112292
0,314731427708304
0,31396725016615
0,308458052547218
0,308813961156843
0,302131350255371
0,2972911079619
0,294598095220542
0,291610330066838
0,288712445943071
0,29065709339919
0,284528302950058
0,289282834294625
0,288836034656702
0,28744557956734
0,288878744564403
0,299618371049404
0,301007113232549
0,303138580115915
0,308094772040237
0,311522489690533
0,313129710499204
0,321232900474161
0,317305728657032
0,324137378878156
0,321560152964967
0,327891147976682
0,333597603132731
0,33223323378027
0,33019778910194
0,330130512658417
0,329276083690723
0,334750610284301
0,334520505957102
0,334387613031873
0,334889684677321
0,340167014547542
0,334839431647057
0,338511128210297
0,337692814394163
0,334521362759961
0,333130497545168
0,328242618843662
0,3276260910696
0,332744190587379
0,326109284816757
0,328618767696348
0,32186195976533
0,322586568357816
0,32479951049253
0,323091999512006
0,31140424123614
0,31209939389772
0,310290886220524
0,309325783123949
0,301797497113465
0,303232811281331
0,300999974572335
0,300950943495004
0,301446482992882
0,298704937482378
0,298042421089234
0,301018982077908
0,298307493621239
0,309808142861878
0,305404486174015
0,308283076623255
0,31215085660386
0,319770115865555
0,321951597632747
0,317816471843595
0,324999153457045
0,329068847141057
0,323363848458716
0,328381501663811
0,323217908110837
0,323215224870984
0,314160143890456
0,308342651322432
0,311146015949853
0,309284235182469
0,299669000368597
0,299268350268851
0,288495304255273
0,288087849706859
0,279132648184373
0,277122848853104
0,27468169991927
0,280469603390194
0,279126989323935
0,278747242708294
0,277773820261392
0,281336099126695
0,284692039240473
0,285682406666882
0,280627488147889
0,280178035049901
0,284347011889894
0,288705166867241
0,284232639446646
0,287898102139093
0,285540677062683
0,293203539226043
0,29286190028348
0,288558481053694
0,286656556756529
0,301530942182561
0,289969791736466
0,299678639718231
0,295048828045084
0,288317874586442
0,297077464924548
0,291463114437581
0,293805725222737
0,296750699388355
0,286093935659457
0,289277232934453
0,300420284490692
0,299591200103326
0,284228146495418
0,28663111608078
0,291474213229617
0,291438789008761
0,292260724944744
0,299548453957258
0,288567486869755
0,295957984977843
0,276738538000611
0,280591958972328
0,274600509867452
0,274518850135623
0,277203141622186
0,269512278424504
0,269480943347665
0,2746325480011
0,260340219479495
0,26899212994774
0,265361830123161
0,257052069374844
0,254995092089722
0,255679560073282
0,247504828731933
0,250802859844071
0,255212480521159
0,250428853145
0,247119341317042
0,24723133857121
0,247251697888174
0,251859300366986
0,239889635840652
0,247505189605568
0,250563807577899
0,248449272300557
0,236814025574243
0,251614070623045
0,253467466311062
0,253378120117135
0,250965236594177
0,250653592730744
0,254254247067464
0,266469538538081
0,260111335282314
0,255699170189356
0,251632507682738
0,263579854929097
0,258189220701457
0,264145398074576
0,252721849917082
0,275423777691562
0,270148913084012
0,278299539026973
0,271866520514322
0,263552398609545
0,269201502747199
0,281485657294053
0,284513509249698
0,291239230519446
0,299419610220382
0,302948329464883
0,306423753384073
0,321601736816022
0,325824504175104
0,338274855747522
0,329385559041809
0,329519709380091
0,338051468952679
0,363182493317534
0,348564959385995
0,358064915546117
0,372035924031094
0,37036889496477
0,369476702803919
0,363303210917204
0,371369477360486
0,377453630975919
0,365757919475981
0,374567653801019
0,367742457246552
0,374973870111287
0,369141745637851
0,363663355320362
0,371203901972931
0,389126872969654
0,385337431594485
0,398700447437954
0,394243219318513
0,406734903711767
0,414840966887534
0,406912083146859
0,403067004482951
0,403261487367712
0,393655333082142
0,40361943923293
0,387170847384961
0,417219594664582
0,42358771193296
0,407598141993601
0,411865962377462
0,416024061560497
0,407001785713354
0,415024189982709
0,397111627948313
0,395887377897036
0,40432646558857
0,402695689580197
0,373165489766012
0,400287564323766
0,38698702014277
0,391005251454046
0,38903863717751
0,378008132979224
0,37848710843011
0,379802067503674
0,361545540618855
0,359729921802253
0,370890216656873
0,388350320702458
0,366492230589745
0,39027928005223
0,389891688393521
0,410775246924785
0,395708804101891
0,404765706115206
0,383362439436802
0,391623143350566
0,399730860300264
0,389187274699312
0,409181193253829
0,39098410135851
0,382909469004515
0,400700379488639
0,412638827122232
0,394402902822922
0,388135081916888
0,39395896871263
0,380409668035417
0,410605989586168
0,429783753349725
0,420155880333228
0,402533438046507
0,403838457781709
0,406048883840053
0,422688952166985
0,418210884932947
0,444938574736798
0,425218044841244
0,40061412278832
0,446457539384832
0,497265647428544
0,462021791135021
0,473786985911451
0,469942398085061
0,482786719567506
0,509650907708996
0,500972790015743
0,461587411079464
0,565835139263001
0,499758595846324
0,467236463323779
0,494474845935395
0,480806968297518
0,482326717623538
0,580510898518362
0,478170326566582
0,541117116514508
0,56810160510765
0,457817755888921
0,416282676466558
0,506381253137433
0,543965998178323
0,470388599675588
0,493741598373366
0,542635224187773
0,466997893649547
0,524678859342644
0,476223686351672
0,494572298030945
0,496399943577992
0,576984666767824
0,500205520272621
0,466066175712984
0,505435515838502
0,473774465576802
0,459176854421311
0,474411655656598
0,512754974316744
0,414988748862849
0,50366604407062
0,478725815665691
0,487335791174074
0,471874783721892
0,400090014913438
0,42906080178627
0,371864211034468
0,413848178058507
0,525569301472001
0,482109841086594
0,64042449278771
0,603894826425925
0,46554142369055
0,56222524167879
0,582179900002823
0,488492691314566
0,49935589009841
0,601164119020318
0,514561047613083
0,620800997068736
0,326572756043311
0,711008596149945
1,45621963378106
0,527375764273407
0,575563974935432
0,494730844484037
0,744336570081665
0,818294098219024
1,13072531772745
