3596
4000,36533379555
650,420452594757
1
2
2
0,0592751629305224
0,0664528989603932
0,0586622649927027
0,069732011936311
0,06185166109205
0,0618480649862413
0,0586796432883753
0,0586754807653759
0,0549541533628311
0,0649305542185776
0,0665453934216538
0,0631235077019372
0,0593425813854253
0,0627833915289332
0,0577414323313865
0,0574496940482386
0,0556769671576121
0,0625485989902317
0,0641439694092514
0,0609187785005342
0,0539678923977327
0,0647536111525144
0,0561946488217229
0,0574787092614199
0,0617550297803577
0,0594547537684492
0,0510748648728768
0,0587479869244194
0,0657965318254247
0,0655183670486941
0,0550103674475961
0,0588605148440125
0,0581859414242335
0,0618192359431661
0,0590018859659326
0,074332138009418
0,0517675307024494
0,0594721829668361
0,0601443382923846
0,0635817453365763
0,0655934344280827
0,0644924238621024
0,0539105290831637
0,0568155797338139
0,0585982529177105
0,0612916550478814
0,0616801235850607
0,0602810629821933
0,0511825535531412
0,0612833411406932
0,0600823467839441
0,0577799401427278
0,0621607425096602
0,0714223970709582
0,0610192247759112
0,0790849962250525
0,0618641006574776
0,0624049259965666
0,0555616225006712
0,0620137634675287
0,0701741712152627
0,0809352220695669
0,0646250622426582
0,0617086323545207
0,0570649262140507
0,0560889211956511
0,0542904740367847
0,0522878452545033
0,0578336809019674
0,0582313096483193
0,0583968487283439
0,0747091713030163
0,0752028043316058
0,066553530024046
0,0648012855048698
0,0645833682136009
0,0565341489796428
0,0542261450158454
0,048253406738365
0,0619939795059189
0,0691141149158312
0,0633048713839565
0,0601526232963977
0,0500015030794509
0,0624623352351312
0,0803051991517827
0,060909618113628
0,0504689969863622
0,0794033386542297
0,0714445873431781
0,0546696838235414
0,0475030223687612
0,0568524207932918
0,0537138544912879
0,0512316769451729
0,052508105962292
0,0548221281470445
0,0512176467576231
0,0595500167181231
0,0523897335949471
0,0563431518632157
0,0774284774747237
0,0835923009517221
0,0715240475553505
0,0774807605293932
0,0806818191210833
0,0394581546586251
0,0902131694575612
0,0863644987177051
0,0571470408415329
0,0621901860190832
0,0554039822894517
0,0638395896724916
0,05301958912242
0,0427567999762548
0,0579289295046786
0,0957383008073216
0,0745665176641467
0,0628697415649444
0,0558730886779479
0,0344284010783866
0,0657995251898927
0,0985148397500622
0,0682837011825764
0,066582532567179
0,0543530486047004
0,041825146957129
0,0844091913830601
0,0848606857065349
0,0601934856106209
0,0543566751389868
0,0601132473260569
0,0363827958967228
0,0495426127349683
0,0906674361949956
0,0815764311832917
0,0506428396946664
0,0442436093461776
0,0573197996320076
0,106959742127114
0,0781955751266
0,0621262479335454
0,0384281409984024
0,0522880216926883
0,0994242589103324
0,0803813951757445
0,0516574468185175
0,0742934256220985
0,0710599367603637
0,0527762926399243
0,0481421825485922
0,0508783875201095
0,0685245170198966
0,0629005148174483
0,0146291779260133
0,0641817451607141
0,106506680549689
0,0914993385494954
0,104014854421301
0,0809144508577974
0,0466786187024479
0,0621554799695746
0,0484845453829538
0,0518252658924632
0,0437506352563975
0,0465826727175912
0,066702133600591
0,0845277404161887
0,0499117435232673
0,0603590828830765
0,0839237667846471
0,0718305673308965
0,0478338706732488
0,115426181126887
0,0850062157614075
0,0487538330125022
0,0746972670300203
0,0724457847083894
0,0486912675153865
0,0542592747537588
0,0820345005621951
0,0640945310370442
0,0531350804204251
0,0511945328491288
0,0513869544090951
0,0735709876888772
0,0554543348918331
0,061513406508197
0,0548684247800172
0,0363644745133729
0,0364818227843721
0,115939116490189
0,0911434590266004
0,076634744608479
0,0481447321389867
0,030807533930214
0,0606941766029838
0,101935665921193
0,0660595583185254
0,051040598279067
0,0491073047582829
0,0490420263772681
0,0441880314046189
0,0539533390076264
0,0326015797506706
0,0342285437891632
0,0870695019497542
0,0877384097663546
0,0532848775116908
0,0563094368909459
0,0355741223983379
0,036537172093949
0,096963927819587
0,0948447323453155
0,0616697423793464
0,0418706249233808
0,0447159590649914
0,0724596361742199
0,0700354398087924
0,061582748098026
0,0480745084777877
0,0563525112926391
0,0491216989718545
0,0494158519857928
0,0505294086163971
0,0567053773262993
0,0481323976214154
0,0562402826386618
0,0491125399457689
0,056693129690554
0,0641426966367756
0,0636355631333143
0,058353132083706
0,0523504384825069
0,0401098403565108
0,0670710909590195
0,075121191419137
0,0620060496706271
0,054604621703036
0,0582834233125172
0,0500842924976031
0,059013426477031
0,0459305981122781
0,0544957433037204
0,0399118840704422
0,0487385777981863
0,0747400535640299
0,0785997590604018
0,0452903761772664
0,0507787652470423
0,0560877062172049
0,0757204013367062
0,0504436180346407
0,0536533083009937
0,0500585404375147
0,0472573383053412
0,0439432702473162
0,0882321324690953
0,063449270294568
0,0435728685472472
0,0652908216952204
0,0668316497184291
0,0533054092221345
0,0411078587488805
0,0422045823184465
0,124922066638143
0,0728129343472738
0,0462120222886056
0,111153016203545
0,095499716693255
0,0657319559350228
0,0444095536898598
0,0095545094431096
0,109774686806035
0,140301370541184
0,070609104527209
0,0488877892617417
0,0683620751903998
0,0570138902659084
0,0483656074410458
0,0555966045969577
0,0653777602652527
0,0762651371296994
0,129855521587954
0,101712261459604
0,0605785617099399
0,0642879030656556
0,0910213522676528
0,064170831699635
0,0572276364250621
0,0512906815399894
0,0503732461895709
0,0593058390729119
0,0718223344196832
0,0750049700320772
0,0586219636274043
0,0676152801929433
0,0821256162356808
0,0792676814828894
0,0498893922710883
0,062497868488963
0,0663453814061058
0,0612292133001358
0,0518931284386621
0,0550106651210403
0,0658725196591412
0,03816271522737
0,0455793017893205
0,11433723263148
0,0756170636345419
0,0608000586015553
0,0879503617804385
0,0735118903920148
0,0591449199600131
0,0631220693547719
0,0523144232481769
0,0601055121688476
0,0500330965456173
0,0451551624017219
0,0804491573395863
0,0697566812550296
0,0575698831823219
0,0550709121525786
0,0543172092393069
0,0565067895052752
0,0630111173457074
0,0515251025238354
0,0594448102555939
0,0550759283580663
0,0420330501732766
0,0731018532412565
0,0930281990354353
0,0501967266805846
0,0836719224963327
0,104711451913521
0,077072352495793
0,0579795191551211
0,066957154329337
0,0628653831101466
0,0596694710978453
0,0685673757633198
0,0576845412301575
0,0587682506546589
0,0875488332744736
0,065900198543292
0,0639416565163853
0,0547641828033066
0,122876992003583
0,135672847539516
0,0963103849352537
0,0667173833160014
0,0514142128782307
0,0777829231783643
0,0991758189833661
0,0983171405750575
0,103714267740245
0,0785196326362883
0,0655737757620655
0,0750380573069257
0,0748680457541249
0,0749524775775264
0,0734153849837868
0,0806548546923807
0,0763517546404649
0,075635407480873
0,0821866790327352
0,0710669204011609
0,0729569195467046
0,126213682756664
0,0949538768924937
0,0867931672914432
0,0790097574691117
0,0737628639610575
0,0950151237865151
0,11299541043956
0,135942554557505
0,116670864656202
0,129541878331404
0,144560154910501
0,1226038483771
0,0926168103097737
0,0897796822006603
0,0980707001507444
0,107558322663761
0,0991368151804405
0,103471978333392
0,0935404767844724
0,105693659856448
0,110572434509645
0,107896618291555
0,100692143567602
0,102907565716835
0,125360238955716
0,122451088284062
0,110141857828846
0,0996345578956387
0,113182588881905
0,169996519564752
0,181847807576227
0,129522791714209
0,134915945526618
0,125390730810631
0,119369626133306
0,122556047887141
0,13272750152276
0,137429374298466
0,139204890452894
0,171674279701261
0,156535833868605
0,162268702753874
0,160842556877712
0,141520145649261
0,160143686558871
0,138654422471876
0,157974982786579
0,191272960463698
0,157253156169197
0,13535873088398
0,180761390275183
0,167747943481965
0,171739213071598
0,177905428736937
0,16164014846588
0,163589290498747
0,164335723113166
0,168345456449138
0,168170148393632
0,179709296743555
0,180513793356511
0,181913781778908
0,189037983759476
0,170469184945889
0,18550315750703
0,200526438538239
0,189492788089134
0,19002353363456
0,193377317636755
0,188498170477372
0,191463786440495
0,180329836701199
0,206986566082491
0,205674927351885
0,241362010466139
0,224309301936599
0,211837906742174
0,189241015328623
0,204804364960897
0,19726849716982
0,203405420757174
0,201627775819959
0,22624785662652
0,214597343853452
0,217254478836594
0,22856612801826
0,226341822265151
0,219969325104037
0,226719774864503
0,231758441862896
0,226477024867076
0,241005887923138
0,24365130590373
0,22896268515257
0,265471729596008
0,269804691280214
0,276124823835145
0,275168289379746
0,257523348326985
0,241051965060346
0,264583119890481
0,257051857440217
0,259172174467608
0,269536435450615
0,27523327309048
0,265158589280495
0,280618455239501
0,278532923577544
0,263087117074605
0,271873796081211
0,308712657256621
0,29195978099243
0,307396648035216
0,297955178754508
0,294204233672469
0,291186484143874
0,291884077227824
0,30362969888048
0,303651060247167
0,313481094613038
0,325376693058278
0,313083791585305
0,326952158913171
0,306549725327123
0,326798800087162
0,330289062531526
0,309319418888492
0,324748541789366
0,330084608340307
0,326131956572592
0,334320590692447
0,340644204933783
0,360757571862542
0,341666746636137
0,350960812335682
0,340686475902334
0,358402209457823
0,358832458856909
0,360772144926073
0,369222798810566
0,379566310762586
0,353918323270688
0,37426267551214
0,376223989012468
0,401245054344968
0,371750550792849
0,373097353158905
0,369612320440266
0,395639516832113
0,389862706781093
0,400257737749479
0,40742975606642
0,396293717802504
0,389967842634296
0,403421681019565
0,410593158624255
0,421865240159252
0,41806324828151
0,433138558665542
0,422742073683415
0,425128729793426
0,437559982038005
0,438041702239273
0,438419942683787
0,442534319629178
0,438494347625214
0,449158048772453
0,443334569215127
0,449621712998115
0,446259009882201
0,44883742453148
0,46821288904582
0,479648387376697
0,462548846717927
0,496986346412667
0,458531349864161
0,481597236844864
0,481561542533346
0,503267709395308
0,494884973592076
0,493689297691363
0,475655002264181
0,519088258891503
0,502310877695287
0,493749795916917
0,495218178812172
0,496252226637872
0,499758262754448
0,524468941007461
0,512369066498856
0,518856010889165
0,516655645095517
0,547684017559383
0,518696027116371
0,534589887070402
0,5541213118207
0,562948499534233
0,53968533546467
0,545513923637827
0,530283419451014
0,542009745820233
0,572997167049749
0,553073294133897
0,541939842889131
0,547806975483095
0,537684705627069
0,596146904200071
0,562407193654927
0,583398368790929
0,585640409756425
0,61290947725039
0,586174798014238
0,623735254417856
0,584914494082297
0,610178817417287
0,599901595771934
0,603061319495118
0,573463505068416
0,612776498892683
0,613001440418572
0,628969751290583
0,604197262575065
0,622197106016321
0,599890967956285
0,642569676633252
0,620270454164287
0,631192805930226
0,618225128531967
0,654597093211904
0,638195537624157
0,668387190179443
0,620477740002719
0,651876556713888
0,626353680766813
0,654380831140191
0,651338821903691
0,64420370257275
0,634516452758392
0,655349362340923
0,656580147284259
0,681873503722125
0,642983186318105
0,663878058924277
0,664495181475992
0,672324552342747
0,710767931645718
0,708692904972822
0,675949487805063
0,698112807788463
0,663479465722857
0,708682765932449
0,699034553567371
0,69133261915769
0,679849452619335
0,717082558831237
0,711224645517476
0,725525133364449
0,688833301297684
0,701896014376298
0,717493268111758
0,729594717788262
0,70674394491752
0,72912230985333
0,713626624629013
0,746298840716566
0,708219531826012
0,736671898612003
0,744556869299106
0,733843014307709
0,721278270700501
0,744352870715554
0,72561056123807
0,724527943531222
0,720030370874258
0,75019050992991
0,761677346988545
0,742056048813284
0,756427551726929
0,786568009272195
0,737499602649905
0,773769561110689
0,718970839115443
0,808826628921375
0,738085748852899
0,773940719480222
0,766788308881892
0,843845988511512
0,81911098984757
0,783944086908386
0,791225934350561
0,819522598657925
0,782980437744329
0,797890110366723
0,760410035830815
0,747020651424005
0,774552726804356
0,792787335032013
0,780299464428335
0,81090583158864
0,766640296838306
0,795403695256548
0,75599852389731
0,827949609390388
0,789521184559119
0,828916494133417
0,799840012437031
0,803645227534145
0,747834919048258
0,837821877630695
0,787331174151311
0,835527501462808
0,770222459491241
0,862110943714988
0,821392876117262
0,855419803429382
0,804048186644243
0,824663950047427
0,82188283078616
0,820250313733457
0,852873257002812
0,866825574930875
0,795493692707732
0,852987620480345
0,823544846931967
0,826016348328988
0,788609114726069
0,828166499784342
0,833384805723446
0,852222717862233
0,812029671589944
0,854942412873995
0,847079915033787
0,851087974014963
0,831334535059361
0,854199799317447
0,83099786703801
0,852122819240375
0,846700754048752
0,847950785319722
0,820302186379658
0,813114225380507
0,841776835645121
0,849541305619511
0,816267090624307
0,859069314650576
0,878804762518256
0,883919721046501
0,838749517947289
0,876081776021445
0,865438580832334
0,840470919392706
0,828638615560859
0,852263085521429
0,846108823058886
0,878175981788761
0,822060754113462
0,833613452025327
0,836570126967455
0,864463043540561
0,823780469446361
0,877453128893579
0,860535383427837
0,863899078696718
0,820069953687433
0,850846774592833
0,800159443160144
0,850396688983064
0,859506275464902
0,841740961425253
0,836837341835726
0,870962768512082
0,852779325211897
0,825974711645704
0,80448478934002
0,84000349031067
0,83657585245043
0,826893487710047
0,846135463344148
0,871569014430956
0,847094748547887
0,85738961753956
0,846012873214327
0,844385727446942
0,831663763632705
0,864924138297229
0,839228466243724
0,874773346071469
0,831424689441693
0,868248270111879
0,830343709420183
0,845355763244238
0,831427385875434
0,842483644807179
0,833940309644082
0,847517726115954
0,831603393614883
0,843715172598503
0,837050748394495
0,868618669723716
0,838448502249973
0,834685229134401
0,812694997332628
0,852567073781889
0,813467642981296
0,867165404850211
0,827275189975863
0,849500439221547
0,804213663683518
0,836674168699937
0,820034281295303
0,822099472962278
0,827546448039863
0,857419789475806
0,830595301700886
0,852677850691538
0,837225993824978
0,811853830757399
0,806196399923057
0,823262680711373
0,834063822182699
0,861568513742039
0,826238368809161
0,831441854556518
0,801968870709301
0,844600934003509
0,805123147105667
0,814126922444581
0,796699392645025
0,87318560346569
0,821036773784516
0,836249989235642
0,812836300990094
0,829108133671332
0,820757564985566
0,804998915069818
0,81431648277057
0,846673680103909
0,777178400615671
0,825639457550166
0,785562081458672
0,819562106081103
0,789489836820685
0,805788213234723
0,785730657068148
0,787262905438593
0,785244508535515
0,832228898459583
0,78186662201986
0,803765097435991
0,794396394361891
0,795480081413558
0,768977248443954
0,78798913509339
0,794838625891879
0,76536543763196
0,783474676599694
0,790774320883459
0,775376770076417
0,817873510580722
0,768139041932827
0,779887452089555
0,751416766117059
0,792939557846111
0,745466469254349
0,761652113068931
0,729499793623327
0,754096304518099
0,747996175349232
0,777066976741394
0,747923803001046
0,762274771469899
0,76027661495836
0,75663651847635
0,727562210362404
0,768695889673123
0,763811954140844
0,752450706280173
0,754945946409733
0,764062806021391
0,734597964368332
0,750760463664525
0,730938254056776
0,744272938640407
0,714653747410767
0,724752278046361
0,708000995232991
0,734444677778445
0,712496170043462
0,7353073277566
0,720206248386886
0,728277964363647
0,70061984664084
0,721420346452601
0,706878507789815
0,711941094273615
0,702292180551535
0,718862205318359
0,699578318128422
0,706994095255652
0,701439776554138
0,71348726885166
0,679071373411675
0,704825768871572
0,673137320684489
0,697046748312165
0,675710293779703
0,687884206377873
0,675554073876326
0,70069751896096
0,671147287471957
0,681031694682672
0,6531633647282
0,680957124702697
0,665417893407348
0,668152272339825
0,664216006056606
0,67022946493633
0,644318701166258
0,661224729789245
0,642831187623172
0,657123245188658
0,650050002957102
0,648653799814514
0,647305015287113
0,635906889283218
0,628825267329973
0,636278203190266
0,62638661524559
0,626645608296621
0,616745525874247
0,622920238373379
0,610773700764753
0,609320801777468
0,607050164842564
0,623564303075645
0,603463861150945
0,612530520025112
0,600013083425229
0,607614659666507
0,58732508350009
0,608662702627086
0,582316586828925
0,59206586073371
0,593195220130856
0,593196015479155
0,57716462843576
0,582789933329761
0,573953485067993
0,570128453025999
0,571305477977103
0,567653906316196
0,567307103417528
0,566690994776904
0,556380076192802
0,558784161646752
0,552516380467729
0,567590730210464
0,544885197426286
0,55213625743314
0,540068988149919
0,556437574641185
0,541449397366147
0,547858229207054
0,537298481344074
0,538570160837719
0,531838329216153
0,521221125143083
0,524908376741143
0,544698809725737
0,514837438147552
0,526696455949232
0,518917901461217
0,522954109620804
0,514493483796367
0,508921197506696
0,511693361157794
0,516214897000851
0,504863322471629
0,507383865276925
0,48625480395107
0,497733540253712
0,494865150874273
0,495837423291973
0,491140571110816
0,487657534921475
0,489115940459739
0,485705323886245
0,488879746312053
0,486933859147326
0,472970093753705
0,479065783944009
0,481677270605363
0,473392886245843
0,478857993916881
0,470666998131896
0,466495751072073
0,462108668474868
0,459926973566664
0,467808381066674
0,465271974942549
0,469334575821961
0,443929189361551
0,455682573362051
0,449754917317041
0,447686940731265
0,442840716682678
0,444854460628121
0,432056799852007
0,433653850748061
0,432963087284326
0,43645728923089
0,43520215773836
0,43552169149384
0,423629481803166
0,429498299776006
0,425403540189606
0,417965344744295
0,421970920461819
0,424037253747271
0,41423381343847
0,419457486622608
0,415272965241987
0,412417190599987
0,40021076229755
0,412035612421336
0,410084887235982
0,408371384844154
0,403880525435266
0,405071917304421
0,400389429327945
0,401131453002011
0,391386146745357
0,403174766026417
0,394665618199927
0,392592056179214
0,387418900891389
0,383617800256372
0,383212826479029
0,378790550991557
0,38684439078934
0,382318829367375
0,378800037882479
0,375716511673219
0,368102673116369
0,369277988850286
0,36734548479988
0,373507882696719
0,367962653541844
0,362550526234709
0,357090271318141
0,362798111030284
0,367360381376032
0,362063672466848
0,356400732457485
0,357239420304823
0,347621116130741
0,355210402614273
0,356782589389362
0,348372854836048
0,349178728387479
0,351646673141316
0,342864244730182
0,341764483988918
0,340826513363209
0,34117905427555
0,341116640312494
0,343149419524602
0,335693297023487
0,341405805376987
0,33191469560857
0,338338885394519
0,334247507377872
0,328327630014323
0,32693861378765
0,324619844627266
0,318149768054862
0,324885358083716
0,322363498123726
0,316439920258937
0,32335324160902
0,315777446189331
0,313195596365167
0,314427726850104
0,314152159213642
0,312179667322234
0,307280492521561
0,311463198820214
0,308379387196818
0,305868034092496
0,306824238620387
0,309622024064591
0,300036589241676
0,306325443396437
0,306451459362561
0,301585325275201
0,297067038420515
0,300496126484652
0,297816656024834
0,296092301886522
0,292821359856149
0,297639563366217
0,29526625439301
0,295733457527084
0,292675233791916
0,292381430267996
0,284899693527296
0,287587949546055
0,292062699778217
0,290499083095111
0,283391126314018
0,293474987669726
0,28962599808003
0,285206058563885
0,285673017871473
0,287551115712075
0,293559061342515
0,293944347646697
0,291913649320463
0,291812855468068
0,289732171813006
0,285035906947046
0,289700987137157
0,287077124097399
0,290220386437913
0,289384427409699
0,288520895860804
0,293677497397647
0,294337246560392
0,29374315689816
0,293967693705905
0,297678436705314
0,297911079218488
0,296571480134129
0,297141404817498
0,301803077016836
0,295628188127835
0,297675544928937
0,29702784883524
0,303533779182001
0,299872061636934
0,305799628703692
0,306241154557576
0,304590141072539
0,312129048283098
0,306166045194835
0,31285486336715
0,309618857404591
0,313569488395437
0,310983520586336
0,316001758587888
0,319392712893623
0,317080995793325
0,32166641603719
0,320577571013425
0,329116128310825
0,327938748427636
0,330913546837622
0,332964846876058
0,331303424852366
0,331335887877673
0,338911986045572
0,339169074629529
0,338511592736046
0,347446299788199
0,348704202868256
0,34509896638513
0,350060385889879
0,354263818470224
0,360539336808858
0,361579866540711
0,358952183497936
0,364466325904563
0,370570966171461
0,359835674583082
0,367039467129398
0,372094277216203
0,376508011540287
0,37281305290864
0,369252677355835
0,37704191730231
0,378363160696386
0,37996397086611
0,374000053869345
0,376819670982391
0,373440871270835
0,380471234354104
0,382147075284034
0,377124826790602
0,379667497785228
0,376611142793327
0,371858918536197
0,37327040542357
0,375171323903041
0,387182889528868
0,378730101799517
0,378080529331682
0,375777846854495
0,376781202820701
0,378427777318578
0,38254845005803
0,379999075526091
0,378179368800537
0,387946773121211
0,376221569230438
0,377302803801767
0,372866208620434
0,377333675999112
0,376530259231395
0,381070959877848
0,378472591560977
0,378306636521328
0,377744815434997
0,382958530591519
0,380187831793373
0,380417540113972
0,378479581825122
0,379337414502929
0,384596742591727
0,378873733836949
0,380170578621291
0,383716866002707
0,377468698829622
0,379285685160954
0,383636835838362
0,383468388778656
0,375711074507948
0,38253178345761
0,379817525793645
0,380913471098942
0,382839490559354
0,369606858602903
0,374320419066218
0,373820286924285
0,378109635356558
0,375275115395563
0,374637275209905
0,371369587443232
0,372119917118285
0,368870853694578
0,37536128349994
0,371771311560025
0,372379178802363
0,370549103893612
0,370159763622099
0,361213411468556
0,362892679662171
0,36058658714201
0,359521067545351
0,355856266588814
0,360733650956346
0,352871515124599
0,351751813562178
0,349378723201149
0,347126915611374
0,350008212759401
0,342548888631519
0,341607456494763
0,339731353130411
0,335932372105205
0,336280465287243
0,336687247132181
0,331156146361225
0,32938430131731
0,32435216793454
0,323118026614962
0,317795411504256
0,319567633895931
0,313838871955152
0,310510884379366
0,309933898412122
0,309541936317609
0,312179499847902
0,305307958324402
0,306440303748194
0,304256958146661
0,304612666900805
0,298997365229705
0,295577215537791
0,29660397081742
0,293955506728326
0,290550094970592
0,28978975951958
0,289403228244519
0,291106895192585
0,28838339681164
0,284292652491998
0,281341593688365
0,284011188699504
0,283150787860652
0,282821374512945
0,277409194553656
0,273417342143724
0,27460126444841
0,268932296296157
0,270192798562581
0,273901976028898
0,271101808126535
0,269138485013008
0,268019339098784
0,268464061017547
0,261753097403514
0,266721637398222
0,263364764626588
0,260105891057229
0,263074935250379
0,262983152179077
0,25869695130656
0,258767528797571
0,251644963891698
0,249600437055865
0,252851307884585
0,251505214038747
0,248909683523418
0,250793779108317
0,244723416377071
0,248717400682298
0,249089417867945
0,247504391639523
0,246298331306577
0,243779285501979
0,244892706522852
0,239894598281003
0,241521487775179
0,242499759618788
0,238298562409559
0,236976890512059
0,238255252766735
0,238250927189761
0,23245331657781
0,235422983725321
0,233915584412532
0,232037579901446
0,232796340534444
0,228419787976936
0,23182045843333
0,230116650955065
0,231554214337921
0,226361533760267
0,226724000927821
0,229374354538086
0,231002473426964
0,225519352177888
0,226251783456883
0,227810483940712
0,225711461272572
0,226733311001433
0,227994128681646
0,221330923104733
0,220372477117852
0,221932024508864
0,218781878590213
0,221335029628535
0,218913143948803
0,217556008641738
0,220003487939647
0,216221515538864
0,218603017797297
0,21867285978323
0,216426943699152
0,212578622279545
0,211166506622102
0,21690451617203
0,21429963940929
0,214783744785092
0,213695270679947
0,214811302330584
0,2084993960507
0,209465084193163
0,209926287156547
0,209221699129938
0,209492739934593
0,211037992206604
0,207149829375223
0,207190004367271
0,203603848717083
0,205121590826566
0,205216566296163
0,208400572647396
0,205458261598689
0,209889291298598
0,205738393338686
0,204929156760907
0,202649419884493
0,202510140541723
0,200179605842536
0,198164523711255
0,203700029420568
0,204829559507726
0,202245542019004
0,203459342611067
0,199994869357673
0,2037241071518
0,201744282109395
0,200920602483669
0,200225011793944
0,204263483412375
0,197263736505172
0,199456702291799
0,200327341635718
0,198065102056376
0,194974043828599
0,197891054559692
0,197844980034942
0,199147698868912
0,195930240880468
0,196131030776163
0,194778964812903
0,195120256973697
0,194716438341271
0,192799939782073
0,194587009406083
0,201405883746596
0,192774642167718
0,192676614037215
0,195003966329398
0,19618090382316
0,193757431068435
0,190747089270517
0,18883918924575
0,191744476264844
0,191759195292916
0,189509074463668
0,187120486093819
0,191066971858122
0,190260118001822
0,188206316260533
0,187660071667858
0,189447684289295
0,18514080120296
0,186297490511164
0,178666804214782
0,186716199054986
0,18347611245762
0,18195070771399
0,185397620574675
0,182613355638717
0,178435565969095
0,187783128198748
0,180651279804518
0,178463433180047
0,176560566113235
0,177834512323006
0,176109141045453
0,178803918110011
0,175509241289828
0,176492387670515
0,172936148639521
0,175655478319562
0,178537650451821
0,174368301505967
0,17357020333745
0,172610524292611
0,171954579964204
0,173175607679728
0,168489090450851
0,172996239969242
0,168474753551034
0,170155783377447
0,170508802723054
0,17109414427343
0,168996011725804
0,16697069187794
0,164661734032936
0,17059317206193
0,166101234628031
0,16579890746736
0,163320075274445
0,169129871069208
0,167748733082467
0,160577532449037
0,162490172525366
0,162470777894399
0,158834853668121
0,164559870884403
0,157733743479198
0,158671249474962
0,159382398610528
0,166061705356827
0,154222601317717
0,155175414880668
0,152879126396025
0,157189099083844
0,156048750520947
0,158684450473814
0,155127724688389
0,149053512967365
0,151516343150158
0,153253982427471
0,149932995575809
0,145937177965644
0,146873203008951
0,149228382810786
0,145771174357184
0,144806094617645
0,141819900312998
0,144114991455761
0,143120860257961
0,144514446893557
0,138570829041565
0,142869570753272
0,133784820875514
0,13949760239658
0,139451810676353
0,141292946288491
0,13698458791477
0,138512694297585
0,134823840308308
0,140484143910805
0,138698894293926
0,138224074393128
0,137181497144334
0,13670717588945
0,133643114489312
0,133684738402747
0,128111168439478
0,133974190972725
0,13259629962693
0,134876998795403
0,131590666083751
0,132016486437065
0,129927590528533
0,129603045523055
0,126738270060704
0,127687747702069
0,126728050769612
0,129230450032944
0,1291912859119
0,129292688298825
0,12647665385893
0,128195662094688
0,12862251990206
0,126445192461178
0,122154574915858
0,123456560726914
0,123911674207332
0,127856016295957
0,122417624956805
0,124323535924291
0,121686745000955
0,121787742422715
0,122303612476487
0,123923766781296
0,117555475046783
0,119675273807456
0,119828197760067
0,118166398379541
0,1159034936317
0,120001350166661
0,116915242838371
0,121862146100265
0,116249203316981
0,117814935492241
0,117278932681551
0,117591150260153
0,111414575682024
0,114514896702812
0,113149316141431
0,115071804386296
0,11490343968746
0,117247757799574
0,113653201743139
0,116738562669788
0,108249689341745
0,112379267882975
0,111710946476452
0,114549543584682
0,112928984517056
0,11120507708117
0,11074794088005
0,109255609155627
0,110115946673735
0,111963315374442
0,108796969686169
0,109770440987013
0,110215631872062
0,110085211796055
0,1060469738442
0,107401660714229
0,109523139069253
0,112391350534652
0,106568449569237
0,110762102060478
0,107382094011802
0,108316525918916
0,108826743185879
0,110126015310323
0,105284400156739
0,108450946032123
0,104920542979186
0,109491283225097
0,105621510659807
0,108005535360977
0,105358730269219
0,10726816854159
0,108648877895809
0,107322114554197
0,10344752019884
0,104731279367819
0,103006857898526
0,104405010434113
0,104209727935813
0,103532586054603
0,100864422427752
0,104672497098181
0,100569226801896
0,102648594775644
0,100133450144295
0,100622782681876
0,101694346172726
0,0989698630420098
0,100283166806125
0,100369450224278
0,100307195558275
0,100376665695967
0,100317282205001
0,101427328179887
0,0974007259243221
0,0967351385740575
0,0964095385925752
0,097699703742276
0,0972134872601211
0,0985013615207237
0,0931959800281907
0,0964599745524498
0,096533142479748
0,0975459984906236
0,0970338128914163
0,0940481214342141
0,0929619594214553
0,0984886326840521
0,0953035124949914
0,0976785249345691
0,093639552008195
0,0919541839702901
0,0926504435615075
0,0969625329492448
0,0927250750482058
0,0947392697525836
0,0923434258462001
0,0967553272488564
0,0937973549094575
0,0944338947434936
0,0905348594533554
0,0931569633733549
0,0924229010766359
0,0957365324090921
0,0916844798641018
0,0925975335205686
0,0921307705109278
0,0947404977470325
0,0901303404022783
0,0904802785298008
0,0894424910695833
0,0917210829445181
0,0937430762253735
0,0923846602757613
0,0889772084788332
0,0921601954276634
0,0883656106772773
0,0897734849248576
0,0894060012499026
0,089420021061772
0,0872867015327705
0,0888047106853508
0,0865151163141713
0,0869592322424043
0,0847928348030145
0,0869162950679433
0,08508912002121
0,0865519014621712
0,0816651588621265
0,0835258723652916
0,0803537936706403
0,0855385763980659
0,0850426549735676
0,0837097975726555
0,0818765255371302
0,0840642115331098
0,0843340779046119
0,0818921323150875
0,0803914299829755
0,0821684330581038
0,079763533013631
0,0795600711652495
0,0788183034535902
0,0807941351404738
0,078067931199866
0,0780776636512878
0,0773743478487102
0,0783633681825832
0,076429356245549
0,077327592150711
0,0757719646417115
0,0777344175966758
0,0770385840305673
0,076925168967532
0,0726804762438646
0,075631325193272
0,0757418994895582
0,0767961591288981
0,0752886866447357
0,0758641144507706
0,07599711265321
0,0769880278594075
0,0729604887072378
0,0746054915119385
0,0742373414834648
0,0738355602517034
0,0727003787291724
0,0740800242261157
0,0728684927729241
0,0752655683573538
0,0718064189041403
0,0730712098025845
0,0693915851285977
0,0722224656764224
0,0715504169302497
0,0727817651925994
0,0705204389460279
0,0697978694329654
0,0703833152848297
0,070569975588869
0,0696496334562105
0,0701033479413687
0,0669196420956638
0,068782954764574
0,0682127951718669
0,0688794454023705
0,0679880194518702
0,0668136034925506
0,0673825187188677
0,0682370719528677
0,0663306852558296
0,0683291344901732
0,0659560200944179
0,0666437609778014
0,0675700324222944
0,0655630248702977
0,0623866700329622
0,0642200632269749
0,0634442433771853
0,0648431325326863
0,0622865283507243
0,0615745191414587
0,0637215063267039
0,0630663782959357
0,0635060505682463
0,0638616197498653
0,0635726237467824
0,0641577356402814
0,0631141499182091
0,0618277927188606
0,0594901398447914
0,0635000788879432
0,061467468879149
0,0617786216328294
0,0610292716904193
0,0590121072507576
0,0598973856808733
0,0622419687152743
0,0625469407530804
0,0590456243675987
0,0599725848375878
0,06067381197514
0,0624245002723522
0,0605864247806136
0,0599653577163927
0,0622334576998051
0,0605966193420768
0,0609195469023513
0,0630711783293815
0,0628733888627338
0,0636806858939334
0,064393426267733
0,0619112482334144
0,0653119920137965
0,0625258188881163
0,0644499700270238
0,0644095404764196
0,0674381262164463
0,067132805071178
0,0667858108143766
0,0659006731293691
0,0608948728907788
0,0562407612807718
0,0600851820587684
0,068358481838885
0,067975144767036
0,060531680727891
0,0571929496832928
0,0660350309950148
0,0578690410782689
0,0654998219409819
0,0653470124919964
0,0556030453561985
0,061443605951793
0,0633944761834736
0,0605025131826268
0,0620504464062553
0,0601550066609783
0,0669012630131132
0,06386686433142
0,0650454572050746
0,0582149409564059
0,0605091553788222
0,0503924267139951
0,0607810123115576
0,0533006487952147
0,0623131615331578
0,0511174948634663
0,0664283935611979
0,0482368809699865
0,0665208200015053
0,053095533554803
0,0664749870553741
0,0498548062143875
0,0730907492746457
0,0448053014469457
0,0733730838806512
0,0500533825554617
0,071654675210338
0,0414638348918502
0,0734687407151579
0,0403057439978084
0,0754853684853034
0,046891798334699
0,0784438547120531
0,0372963277872946
0,0724038888612785
0,0433223634053605
0,0817549607871569
0,0438270386807228
0,0733060130992596
0,0485917139820546
0,0693124396425175
0,0524831209434566
0,0609761360871839
0,064614455236459
0,0531872334962791
0,066391683193038
0,0480671309909366
0,0723056472553973
0,0418123209881893
0,0748299379408424
0,0410387309343675
0,0701104940907041
0,0477305104464355
0,0656713994363832
0,0476089609490636
0,060650116781361
0,0492203320609121
0,058128485492037
0,0511895606556131
0,0564260295932962
0,0523227510963818
0,0552345389313501
0,0503193304458123
0,0554141493235548
0,0473939338889446
0,0572364147933233
0,0483979858109536
0,0570559680599475
0,0486103736359054
0,0558037263041167
0,0481296105123545
0,0556931021299015
0,0487971563095132
0,0545482918377582
0,0476586063518053
0,0543073570790724
0,0486715760231623
0,0539454957417323
0,047857792390843
0,0536128910639206
0,0490347442147142
0,0521899150298544
0,0459965456762822
0,0551055247947857
0,0495654040261412
0,0549668089591212
0,0494224453887021
0,0554667018860461
0,0509031096897251
0,0553517840780803
0,0470590082807339
0,0543782959180796
0,050200038442339
0,0547834853105865
0,0479540239020235
0,0534474710065496
0,049982321132773
0,0540438244432486
0,0489277267940333
0,0552138774232591
0,0490759450801356
0,0542336435983511
0,048577354217991
0,0556798012809481
0,0488566750913694
0,0524856612177311
0,0488055643093159
0,0531746771602233
0,0477991236702919
0,0549914066096512
0,0485998101819445
0,0532175616886608
0,0501345204247716
0,054032524919346
0,047250574394001
0,0508600184476544
0,0491192122738512
0,0544912475157279
0,0487971861638245
0,0536787255438991
0,04815984232973
0,0534167626524049
0,0484922822255802
0,0538734420873506
0,0471246534798609
0,0530178142847781
0,049460816142024
0,0531397866631817
0,0497346772434668
0,052999527102306
0,0495065796026998
0,0551635378004774
0,0484291285548155
0,0531539535091146
0,0484544126503453
0,0544553495958373
0,0473058192735146
0,0527094018294643
0,0485686039127281
0,0532288103599293
0,0495317587054691
0,0533158792980422
0,0489308252689502
0,0519565928357748
0,0485124707886475
0,0557125294535955
0,050534265027524
0,0524847423586633
0,0492888844557664
0,0549389858173068
0,0486233445227693
0,0535224019714648
0,0500581382417052
0,0556482116832144
0,0494114936647176
0,0533004175451307
0,0498646201040764
0,0567406605775977
0,0520944412709379
0,0546216991662313
0,0497504109694705
0,0573492632919657
0,0514609405247304
0,0536114788921266
0,0508201820743912
0,0560644916939065
0,0514725372995718
0,0553918564430811
0,0505260021474929
0,0550097301792496
0,051860821631092
0,05518952257062
0,0498299610362374
0,0561625548442652
0,0515773712508405
0,0538848151230378
0,0488401495720804
0,0554906908718966
0,0515645468299196
0,0552507550882836
0,0501938770369721
0,0566992953668505
0,0538992082039303
0,0577924490756352
0,0501625776036894
0,0546267645730701
0,0523364108369174
0,0538410836896553
0,0509298819544749
0,0559738286330252
0,052971312914229
0,0553064860416728
0,0490068047632798
0,0539293500382476
0,0522586059436249
0,0565245871415435
0,052359280474238
0,0552195419104768
0,0514612774924967
0,0570304188174709
0,0509317336216627
0,0576773118467181
0,0542118702758456
0,0549571835875253
0,0534316636199378
0,0565688702114493
0,0506347744792455
0,056110157394441
0,053303927999552
0,0576102845652722
0,0541969814503922
0,0580994813105311
0,0524708032207169
0,0577577426598031
0,056012186035436
0,0571899793726342
0,0546130537997097
0,0587166595798077
0,0553750298919479
0,0588498623821495
0,0526388806442508
0,0586538801406354
0,055999781920835
0,0599219607044558
0,0531133779335539
0,0592201771837724
0,0552240468767424
0,0576759455378152
0,0566261322549832
0,0581456864402393
0,0528773685686448
0,0594497869192113
0,0532162263118193
0,058518331584918
0,0551329519315958
0,0573347163910645
0,0532671524810881
0,0580217110980337
0,0538169910258709
0,0582775637312441
0,0542255673984004
0,0557976513688672
0,0526524403101243
0,0539906658260481
0,0491547159865063
0,0557306115836723
0,0527605483223758
0,0554613897348143
0,0516793657705236
0,0544455673497404
0,0526370924622456
0,055410548788063
0,0510711947676251
0,0537675951937103
0,0514670032976902
0,054318181194686
0,0527338637812508
0,0544560474868223
0,0511972074617186
0,0551106800529118
0,0536721042312221
0,057681311238172
0,0497319935828721
0,0535866825924792
0,0505660637542335
0,0530790763656004
0,0496160541260271
0,0572692526008607
0,0531292630649517
0,055068931981962
0,0512031172702022
0,0549181210786378
0,0514518315723004
0,0529566835525163
0,0520366228530603
0,054165471724196
0,0503516162330221
0,0554243947942817
0,0504939334368956
0,0543531747767793
0,0505904982810491
0,053319724648945
0,0504562596046717
0,0571016809813858
0,0504970561111447
0,0533572387445811
0,0508054479947637
0,056319858821675
0,0497405941410095
0,0536182942239327
0,049253949391663
0,0537505329130267
0,0505328827007417
0,0532930894281752
0,0509773223484345
0,0545078378750271
0,0492860891195663
0,0550570766975914
0,0500880085572438
0,0527939980304149
0,049109456068411
0,0536107730704596
0,0483876813747727
0,0542670861269083
0,0463007107091218
0,0539350486789948
0,047554253448599
0,0545365364494173
0,0493443129699136
0,0519371332815207
0,0467233522695958
0,0521936282087514
0,0501383284190376
0,0529750778563819
0,0508792496000466
0,0552957433737103
0,0514967483452031
0,0533316480378528
0,0487085759044189
0,0521550338360772
0,048374569404852
0,0517274569771421
0,0454071479938051
0,0531807213890076
0,047744352937114
0,0525018117939655
0,0485655008780119
0,0513038503609049
0,0497637433183579
0,0535983842374648
0,0457650949463736
0,0523631208405182
0,0479400690705972
0,0505112288579092
0,0471585810649952
0,0516499101588913
0,0464356240175506
0,0522861514347784
0,0483704743066714
0,0535797951400362
0,0501296594426773
0,0530029457344278
0,0483844418557703
0,0492965116163763
0,0492653868882353
0,0504500062655855
0,0450652825064089
0,0513271715526957
0,0479735756021258
0,0518676881877389
0,0462629530613855
0,0494183044754304
0,0477348547677806
0,0506792398418037
0,0435923636090832
0,0509257574476749
0,0453938493520317
0,0506200299220577
0,0431271587230417
0,0486044365597207
0,0467752214882624
0,0508853019604708
0,0415229735061758
0,0500111533610144
0,0445358965500565
0,0500742553194734
0,0489353957844732
0,0506719351644571
0,0435294283073687
0,0486036908357373
0,0427192978964365
0,0462485829676197
0,0415431255431002
0,0478683310696103
0,0413993308250203
0,0459020452843255
0,0438083606470804
0,0460218168137097
0,0428748095665988
0,0448490110491388
0,0414090906034898
0,0459684494543577
0,040867809518898
0,0459674140671037
0,0421565636659347
0,0466743829228871
0,0442387974575212
0,0424517892335596
0,0409973301998706
0,0453309680787048
0,041063509125469
0,042719155485452
0,0438641680535484
0,0517888404242987
0,0463553223151846
0,04180476218099
0,0430636096244735
0,0479018340725332
0,0441904565879156
0,0442116807485391
0,0399985248864057
0,0441571703417912
0,0404714875918691
0,0451264798302974
0,0411314024287686
0,0446711995038341
0,0398814143031824
0,0418100731876133
0,0413103105065582
0,044050077679746
0,0395168802048556
0,0424613214704865
0,041328632273113
0,0433556732579541
0,0404908095583436
0,0445331055254404
0,0408664932651681
0,042099094350083
0,041128342840903
0,0500199075972532
0,0456705326451408
0,0462962221354769
0,0388541099724873
0,043589609994165
0,0410074498085894
0,0436981074836242
0,0388505252069849
0,0428929271325785
0,0394453939323774
0,0411394500462563
0,0366894346481652
0,0419134443171736
0,039480656156335
0,041635016296779
0,0388630522415818
0,0415671976046157
0,0381280373458109
0,0427846835245624
0,036543254010079
0,0409585947255406
0,0370215992310132
0,0409746150868634
0,0386082107496704
0,0429271416536627
0,0338616233854447
0,0469445172096488
0,0504177814267058
0,0503129188804681
0,0361235299936889
0,043758989217443
0,0382724647621709
0,0427243992976719
0,035329512667418
0,042245214000546
0,0390426216290832
0,0407177429335878
0,0392341682053393
0,0409447580329866
0,0360238632321598
0,0409764207727815
0,0363147810965483
0,0416652727236121
0,0364020797703506
0,0414235646140552
0,0374117529686
0,0369824922539008
0,0422027492022417
0,0515649909008494
0,0445319723097136
0,0446256359550357
0,0370480687917056
0,0403333996752494
0,0466609105695617
0,0503953071532207
0,0372422750777405
0,0408345478416971
0,0399976410717475
0,0390805534669086
0,0382991964492273
0,0382868829327488
0,039319882951846
0,0449032710291685
0,0400038713087791
0,0435481239310033
0,0384513995803948
0,0398562724178169
0,0378000352656621
0,0407763184732348
0,0356429133978258
0,0403714145461159
0,0358838562182062
0,0374366998602948
0,0352606153512161
0,0391691801555402
0,0376157012798518
0,0380281520673669
0,0378246343573496
0,0427192167516704
0,0386226898185481
0,0400085877441497
0,0382582934077265
0,0344008953435543
0,0392029537022608
0,052411512605846
0,0416073227268903
0,0406658192277901
0,036969404568351
0,0407647458856318
0,0375052007713745
0,0432560787981157
0,0377367434756155
0,0390678669199731
0,0368696067204233
0,0411712261913719
0,0361224501479476
0,0396408614329733
0,0370439613294284
0,0395636505731095
0,0339466939038055
0,0410202291142259
0,0351418762577512
0,0408521552370338
0,0358720204821042
0,0387548924988888
0,0409113473175423
0,0624440637874991
0,0498912356161896
0,0508553343379695
0,0471205011430124
0,0386261490156193
0,0383122438998288
0,0409858065808096
0,037217469127452
0,0410821081378825
0,0412297824470492
0,0421516546072337
0,0413504923617488
0,0405243214371438
0,0360659769633618
0,0399743228668345
0,0365391911729443
0,0404426962672077
0,0372233218530439
0,0388906958816243
0,037075562393655
0,0382877534361605
0,0358953678236227
0,0470348037429614
0,044739045643619
0,0434987571974918
0,0333196349780658
0,0601661575443425
0,060159193888363
0,0482540375636869
0,0392432760540744
0,0417391274184492
0,0369548534609356
0,0396304070482418
0,0359602465404914
0,0447987842291787
0,0358321800244571
0,0420385795783769
0,0361432425059638
0,0441004014223095
0,0380533186195579
0,0355648448537035
0,0373825283714655
0,0640060375894554
0,0483290323741736
0,0499410828223804
0,0351596241266376
0,0467460709785707
0,0534806118933607
0,049189965661526
0,0433449369642251
0,0455265729317764
0,0386999604935421
0,0446277438016812
0,0377293417756667
0,040930551487042
0,0403474895622627
0,043277323549523
0,039506760244912
0,0430926673434718
0,0391675877146947
0,0445882017486535
0,0402979935825507
0,0529646394036089
0,0466112415781153
0,0418113036903365
0,0423913517846096
0,0477251798659399
0,0424838905822775
0,0429883321557213
0,0404028249719043
0,0398529135349101
0,0516526357131689
0,0575028242928207
0,04440773725316
0,0547365570812697
0,0521654153718016
0,0442377702999084
0,041975462088547
0,0542225050956621
0,05308538936811
0,040741342982535
0,0477892286045915
0,0622464305516104
0,0587320503983205
0,058588023231077
0,045333962630431
0,0451150735762048
0,0435635437741119
0,0425868602239432
0,0427641504261428
0,0570204805410105
0,0445622314314433
0,049262381447325
0,036929872441109
0,0588945547099563
0,0550887337199276
0,0551871251333684
0,0453387493638271
0,0474099811716403
0,0447729293045099
0,0580742610878257
0,0466818404250892
0,0481769534877943
0,0534069227762178
0,0853923371717447
0,0676951344200834
0,0530266375966478
0,0402551010596393
0,0769125987257714
0,0557549637847913
0,0494477373780492
0,0496336937823801
0,052051404660485
0,0429912212998645
0,050342233030051
0,0681027481292003
0,0646508470424979
0,0495793712645513
0,0564668922375105
0,0448672377670573
0,0654044827620498
0,061885670684786
0,055200167968096
0,0489720695090582
0,0552578657883999
0,0424424190369062
0,0900932151845103
0,0699568089024471
0,0709185885850003
0,0657022065833596
0,0781924709649038
0,0659473102949033
0,0666828155688767
0,0570802878754897
0,0687658234884464
0,074454749879547
0,0646733189618129
0,0484048200043343
0,0712853317963092
0,081119227408073
0,0676706591280012
0,0642085230113025
0,0637377986994924
0,0545363051057313
0,0867253444767371
0,113543357890996
0,100449738022701
0,0730603946311735
0,0698486912040653
0,0894961815495546
0,0757981454113058
0,0649678125522172
0,0694680219273636
0,0667153627636468
0,0731828964000665
0,0652729735806696
0,0826556434516796
0,0734722643179319
0,077687211737765
0,0734983141269152
0,0759672203358319
0,0766993977463261
0,12929565352388
0,108426675295784
0,0904154353689198
0,118527781479667
0,115654032862726
0,0929180999143059
0,0848208533843742
0,081197744606497
0,101006396038001
0,0897558717124993
0,0894423327912051
0,0811125525678794
0,114609674102414
0,101883286137447
0,0980658294772039
0,107913981882472
0,104516725745237
0,0944455973853945
0,0812533200384451
0,235484907319595
0,141175565506147
0,117029835557479
0,116706268901042
0,101395498201983
0,185732631352
0,128671196294493
0,117338135441702
0,117558380366866
0,116711971283838
0,117446379495409
0,135062201632753
0,131312335369997
0,150281082378124
0,13331401103399
0,134358606737082
0,136818639335899
0,212820302371069
0,201916560967841
0,17467419189979
0,151829484163739
0,17751845724381
0,176381699261707
0,165618104379391
0,166387274203522
0,169534880101278
0,171203151997258
0,220778688749376
0,194535676425507
0,19075896582758
0,197204249603119
0,229715405342913
0,191534383367186
0,238957949402652
0,236455664342338
0,221687490586277
0,212693017896635
0,223436783123047
0,222847126566604
0,214441428361761
0,251740812905002
0,257164694676305
0,235010954044245
0,243374240188585
0,235338482178246
0,248383075684817
0,244054002221365
0,256630985995358
0,249251329059722
0,28889230222902
0,26792325783928
0,418275716145614
0,298346732243218
0,26594937104724
0,267085645288733
0,261436548024558
0,287747038866019
0,294010492288576
0,301477079049766
0,301474139060149
0,258910278276479
0,27400741942419
0,269526747013387
0,268938961843212
0,268419060638149
0,278125224169456
0,261364759276796
0,296995949046888
0,277721621961244
0,290906292461794
0,337881669396354
0,287112249481052
0,268622747266996
0,27238600856946
0,268721270793342
0,276650842852938
0,264175342439143
0,276852941476847
0,296742227028105
0,270129816516223
0,271382349984239
0,261997519729163
0,2730487461112
0,301448414174173
0,26373930919817
0,275640961480286
0,261854005919819
0,272841538577016
0,253745540315469
0,255927733438756
0,306493021733654
0,27743161007249
0,254505632540848
0,260255687613889
0,254456667718111
0,260699899314721
0,250645383371604
0,257972864701846
0,258503472728291
0,253562897749607
0,256279153844975
0,25762662376698
0,251153002204036
0,251743364652596
0,254618499740865
0,258166882594004
0,250403365547209
0,257851566421766
0,247310646003232
0,255467560891079
0,248637377703712
0,258685409375129
0,245555216103094
0,256172924763103
0,256830373788576
0,250435278884836
0,249154076489625
0,25564650646583
0,250198413333645
0,25105743974607
0,242411415651212
0,248976169439182
0,245447304640512
0,24811196428684
0,238328298212508
0,245812659622692
0,239970582104036
0,242667332794587
0,240783142282078
0,243696825278304
0,233710442578051
0,245490131068352
0,230090213272946
0,272393357724509
0,269139032734979
0,235463100982897
0,237308365565503
0,227813731891244
0,2235776157293
0,216596957839364
0,251709109029346
0,255061078851696
0,217501401922836
0,220186848150849
0,205094260844701
0,22309945396523
0,215071814851761
0,205873418919158
0,207041561752367
0,198657423562941
0,197460251903703
0,287344345523392
0,200080209225789
0,277699989602712
0,21448966447606
0,194917634722194
0,176117100237559
0,230347125387882
0,18720062552858
0,186980874869513
0,175070418150733
0,222453013560261
0,202270423069525
0,175023511775457
0,177344001102137
0,171470912490212
0,191994563726672
0,203001157294147
0,184018042473331
0,180177401714436
0,202186970715026
0,182587884977153
0,203594966188419
0,238257854377169
0,195207136057196
0,167851124732801
0,163937880283274
0,16704115117619
0,147997726008905
0,22240480333603
0,167445418425235
0,173562133576662
0,157369681008492
0,146629279200528
0,156029913461401
0,168280322784456
0,166691842484512
0,151489570404721
0,187804315488667
0,150901258181853
0,154107579580518
0,173426781251974
0,175860664141746
0,211953832117006
0,161979200009039
0,141459745591618
0,160946606423229
0,197652059351158
0,155451911451679
0,162727811582849
0,139476418297506
0,140296177393956
0,160038643987563
0,142735935932779
0,155697137969042
0,164242772266564
0,156439250744277
0,199352312983726
0,192187293249725
0,208402601207843
0,15923510694072
0,140344974919697
0,137818033068182
0,144784598711569
0,145565579839587
0,138991199422389
0,158906757199967
0,166809480432615
0,129419839491237
0,196335015083025
0,154841612454866
0,149892107648646
0,151298873344332
0,15360743368754
0,155342568169936
0,178997862745458
0,196742429037682
0,188711397310592
0,164723175056467
0,195656305729519
0,165824030432635
0,176484640172368
0,16460186417565
0,180511576224532
0,175123492156601
0,196054846965534
0,185472158456067
0,190371739839611
0,190181545272036
0,201517357809479
0,199394098412219
0,245678589602696
0,201469505388904
0,23869088715363
0,234210006909235
0,273310412647201
0,245748683735378
0,231227220769501
0,236591069975462
0,236002947414368
0,23886806941348
0,242435786402413
0,23948599573639
0,290169415624375
0,254230307263396
0,260089839314775
0,254211430903633
0,265765378110359
0,259617605276357
0,288444892224062
0,301292105859206
0,311945524951863
0,340629433638633
0,293545104244609
0,288486332482823
0,277445090541696
0,291029366884533
0,291938881838009
0,275597479261343
0,286561513061815
0,275557981881964
0,309103566811539
0,29220610738743
0,290552009353747
0,291421480025844
0,293479056739524
0,293642129216476
0,295646861690167
0,299202927436213
0,307890826356391
0,297909855882134
0,312159485436355
0,288264355794637
0,363323058383108
0,337704015851875
0,314327421774195
0,324468419110146
0,321783505876505
0,327701105288112
0,322761583996033
0,337040572380171
0,34522413628816
0,328267474437891
0,343475762495655
0,336420626128109
0,345666236799376
0,349443200209503
0,375987698420332
0,351848556481697
0,353530454147838
0,351863427671815
0,341992595481748
0,414627698924457
0,373992657056181
0,380625653194129
0,365513661956784
0,364039553528658
0,361642246387014
0,363506935343981
0,367448804851261
0,368799797769246
0,369861885772694
0,373078335700184
0,372421387376232
0,363903599416182
0,366792525597668
0,364628826073726
0,390386383251628
0,377752514704245
0,362140383153068
0,36271529165054
0,365889817020452
0,359154692615615
0,380062434133809
0,389088688093158
0,36810354991015
0,377446707759035
0,368694042569554
0,378661037839457
0,38533229345963
0,360782974147096
0,36454488557441
0,36630426864984
0,362271909644292
0,368171527619299
0,364801708230998
0,406871281734459
0,380227304937746
0,377170961037532
0,374225771236299
0,373987704059203
0,380313903149646
0,382011239503698
0,378737281827495
0,387990083531985
0,387664028741948
0,388941589519192
0,39219088660133
0,38519959821137
0,399495454494332
0,401734248239656
0,404673694344233
0,39224134080732
0,387593828598331
0,391621849248138
0,385018241398114
0,393241173166894
0,381211705727491
0,378139059233762
0,371907530776855
0,376905226304305
0,363069498177098
0,393531644665195
0,375607171633006
0,363339663415265
0,372221016792236
0,350686370400847
0,359610893045931
0,350633866422135
0,348610566449057
0,344149856169918
0,350707422554734
0,340810827989862
0,343582113924991
0,341901934755184
0,33420238999153
0,335452992388133
0,336390007041427
0,334131238642839
0,336151916902349
0,333132335605557
0,333935386362824
0,331687326261315
0,331241570053958
0,332188050973937
0,331547705523093
0,340151268232227
0,351116896329661
0,34627864912588
0,344589511738492
0,326391905789345
0,340056031377916
0,327960412384981
0,335891235718163
0,327930306754248
0,331998036137969
0,321866117145878
0,332480986453447
0,328429233375137
0,332814649365483
0,327451431161805
0,331736925363989
0,327822168498685
0,327537535776033
0,323246407736026
0,325267870861308
0,32262882850432
0,329031512623804
0,327044051362476
0,332732193282713
0,334588336262403
0,32800369457585
0,329736149678188
0,329261146254549
0,326240998464364
0,329975119633657
0,33131613618392
0,329982489698516
0,325638770228866
0,329550109205139
0,327002046085482
0,326932929261224
0,325548805428088
0,324964880176955
0,322913208882444
0,322943588939643
0,321476580584663
0,320897256869124
0,316398596315198
0,316148310978133
0,313165256482719
0,309521348671495
0,30911108341524
0,308465765881118
0,303902857280745
0,297145990772798
0,295424451625356
0,297616462445631
0,292922398614393
0,289593250379656
0,286422553983442
0,285660139451398
0,287700758260471
0,287338274354045
0,283185174518769
0,279844010182876
0,281115796679723
0,282271682786551
0,281071976834067
0,277560733124664
0,278420091591997
0,280157291888364
0,281200694531943
0,284125451740826
0,276428132139619
0,278367644644842
0,28047413145461
0,279587336350286
0,282981470897528
0,283520725994805
0,28520729955489
0,283984476967781
0,288143813487346
0,289059893594281
0,288518802215795
0,295301937385173
0,292209579733563
0,29518838369596
0,292681915819376
0,295952103327858
0,293383773811341
0,298918631563069
0,297426683006853
0,300078077715906
0,295916896410223
0,297957398255468
0,296561483373635
0,299499179998697
0,295248275268449
0,296368734699561
0,29800221455822
0,297010863265684
0,293100516202903
0,292682757314282
0,291580283405324
0,291108528466262
0,28888592599866
0,290195166824484
0,288274772300185
0,289228952089088
0,289322363724567
0,288431414998265
0,283442726940373
0,284422569755792
0,283498787612834
0,283659325855642
0,279467534520189
0,282615654506833
0,279694183703085
0,279263112703574
0,276819333681847
0,278609423432477
0,274923992996597
0,274424318993167
0,274246368619468
0,271658563215421
0,269453817376917
0,27081464423738
0,269527526577464
0,26859398297808
0,267883165452185
0,269973787761162
0,265560831323206
0,267535289714509
0,266448438742198
0,265214438369354
0,263396573058616
0,262537352167951
0,259250768186548
0,258524052060302
0,256508661990585
0,253189113094085
0,253842146671859
0,251300167602892
0,248324931539075
0,245698475166438
0,244412757489533
0,242492971749891
0,239873249604992
0,239925275800414
0,236594234722027
0,239420803236262
0,238520184555496
0,239219307338772
0,236273535261154
0,237884609284811
0,237453392920795
0,236320349490695
0,233911259356084
0,233886683278408
0,231359477885668
0,231738213118456
0,230002871362836
0,223498642120104
0,222048595817461
0,219744949133111
0,215545737786527
0,213951681234191
0,212339180230755
0,209496811963196
0,206124703034897
0,205607480141785
0,207115772831089
0,208486573327593
0,207152705926103
0,21185942869036
0,213407704475344
0,219057063322791
0,224515440391707
0,231881637839246
0,236569472827804
0,243993595468977
0,25352947533813
0,263640397937376
0,275119646937951
0,2863466143874
0,295293314597824
0,306340517408091
0,314951802676785
0,327273131484243
0,339729801568109
0,349402112490332
0,360174088566766
0,371097565170329
0,381111904823435
0,388384241384065
0,399986747451026
0,406677177357947
0,411299450528688
0,424329684502506
0,433404111896723
0,437039387627269
0,44435495984578
0,451521700219103
0,458300870200454
0,46220463213781
0,466875052018996
0,47304366566041
0,474259125501607
0,479956359060788
0,481704439508153
0,483607212763506
0,486384071030235
0,487168775541643
0,489241180126074
0,487968260045965
0,492649652576832
0,493722524944478
0,490047537879964
0,493086164311694
0,494636244504174
0,493161075137544
0,497766508563339
0,502009915483058
0,49948246767915
0,503072852838004
0,505853289086094
0,509340295519001
0,516206940687367
0,518218201845595
0,522429183079131
0,525855871565636
0,531916045114165
0,540003892193692
0,543591500446146
0,550699003621255
0,554315865332041
0,561485632755188
0,575022338902425
0,577536578351576
0,588929019446153
0,595893181607327
0,60658539733475
0,611406882503627
0,618520066699258
0,626868210016217
0,62824571743358
0,629499034616151
0,631104090664903
0,632166362993246
0,628444115464114
0,630634432711592
0,630543606037485
0,624698278023595
0,623158410482062
0,619873975463325
0,618184821029004
0,616889339747848
0,61516780855884
0,624730650750506
0,629022415615448
0,630228210450212
0,635545550200839
0,647966628676181
0,657822914314441
0,660639748772012
0,675959330240053
0,682913949938758
0,692480895046987
0,708250642688633
0,715607704949351
0,724285457140748
0,738686952220568
0,748981875595504
0,76042371946573
0,775153889568291
0,779087186068576
0,794610307236461
0,811547748490096
0,817223538870055
0,82939075988148
0,842596720653797
0,859781089623511
0,870570038472137
0,889083702693032
0,901476220780543
0,918208149654942
0,937826727435164
0,946552912446568
0,961054090345945
0,969933746599462
0,976056525710511
0,999682433255313
1,00838241433623
1,02856081544872
1,04196611357682
1,04575457315809
1,05116532369271
1,04985806987599
1,06528639731755
1,06845138994222
1,07341627423272
1,07195925686492
1,05777295821642
1,05341385693348
1,0687495428091
1,06991901890003
1,06126447352018
1,05397067171111
1,04059542561848
1,04999195062766
1,04707952219456
1,05654649521336
1,0640382553846
1,05722932515087
1,07561521767786
1,08211784065418
1,08520219236081
1,09041240326352
1,10551442976226
1,12214767927733
1,13218447410696
1,14188157163848
1,15727189440878
1,19310391694425
1,18696421363188
1,19627236453293
1,22342377399216
1,20765824647518
1,19687544681715
1,22185043260191
1,22367713334969
1,22773984306963
1,24752299178816
1,26182893413088
1,2552275657521
1,27780811625426
1,29527789426266
1,28674724801774
1,28706761652906
1,29731801160475
1,29490886240749
1,32533051346975
1,30371913358313
1,30489938880349
1,31409454132328
1,34530299279699
1,32989559333887
1,32360878109279
1,33303944341604
1,35556575779779
1,32255365559743
1,31154292875726
1,29853983985317
1,31727610180364
1,32552373070442
1,31920079823324
1,31487614802491
1,29380846136548
1,24617313351651
1,2137261545464
1,18225106193996
1,16281785594419
1,11538485937553
1,09737514844501
1,04042943019825
0,996029410766175
0,986016730346318
0,951172859425842
0,914415278152134
0,906425806377936
0,893715361172206
0,880356602116961
0,872069665193288
0,865214697276023
0,855798919568446
0,84923724913139
0,832199037046722
0,824402144319045
0,822464380850156
0,815134349552706
0,802339208041928
0,786272121387807
0,774123104678226
0,76655567915655
0,757153869636994
0,749710031626915
0,729916183961078
0,705159303615268
0,694361586754103
0,675596289354728
0,647734139187439
0,628003290257769
0,603652883459158
0,582826868776969
0,556621214164249
0,532037931580467
0,507702631123544
0,483284120747167
0,458125180497072
0,435552515557612
0,411973176052075
0,394373039978241
0,374854433067617
0,359870612427699
0,348706706280527
0,333566743498724
0,317195935407669
0,308460819453075
0,298398841578455
0,287742376819997
0,283401333150656
0,276995566053548
0,270094520034159
0,266480194059416
0,262928072156734
0,259833635624122
0,255618992258428
0,255168081050591
0,251475582484295
0,251075148481444
0,249045809582676
0,250481818883274
0,256046232728748
0,256759681049006
0,254953696041884
0,257170819239702
0,255877783810902
0,262415606948288
0,258257225669743
0,255683056241607
0,2568574189876
0,257569899290856
0,252487571666668
0,254206529190426
0,252241154041284
0,247083640853786
0,244089161998004
0,247126976375251
0,24336465811261
0,241122834827947
0,232542152292377
0,236769010403497
0,23515681704211
0,233306054678958
0,238246731283302
0,241050775554664
0,236311230801106
0,241113549906162
0,240570471136352
0,241528117914116
0,245805422463198
0,250290195686906
0,249755245447996
0,24883099833788
0,253606663266027
0,260341609954761
0,257784097095173
0,26156143149578
0,260380754711269
0,264474037347916
0,261817652489182
0,263994975513527
0,261817967387164
0,266649849375702
0,265687746727564
0,264504430057845
0,26748677383702
0,271118753896206
0,269456304125535
0,273990328437911
0,278560787456194
0,277164983589287
0,27886809709187
0,287860078384974
0,286074967711427
0,301504319491999
0,307353433617726
0,31118450422023
0,321913169361585
0,332794453607164
0,339433246969291
0,344797439756955
0,360262885327646
0,370348671696194
0,369492767607755
0,375513471097616
0,370083785561886
0,375862605226268
0,367453781474346
0,358509255656948
0,361122637108463
0,355373490018442
0,344658246438385
0,344842851526694
0,333738195828385
0,334322281712027
0,327795965137934
0,327926433677631
0,32533037910287
0,328520442778881
0,330746845375948
0,324276559869461
0,331629172331846
0,333148923069259
0,330011350518777
0,33093541123828
0,322796827095764
0,322464445188113
0,30954600037996
0,309288082274727
0,310145203684407
0,305604383380896
0,302733217146926
0,30246015091887
0,29884369252652
0,30242763362369
0,293546522083137
0,294293652089829
0,284362038604033
0,288292374007863
0,287923853831392
0,27914507579366
0,27449651666822
0,275540838766493
0,278990449633944
0,28020115278646
0,274303432720798
0,272459010729575
0,275732786697824
0,274620338574977
0,267070224643327
0,258236680767722
0,260722558166982
0,265364918075289
0,256638812782572
0,262045783079911
0,252025673748849
0,262665883936456
0,246242177394803
0,250864961234159
0,250501037972729
0,241465205638604
0,248162652979406
0,238905516820789
0,242557270404182
0,249550152447224
0,238213134152784
0,240981163670985
0,242608387108501
0,246227825749588
0,243368096362857
0,244960052918286
0,236425654812197
0,238495089209177
0,233507488315293
0,231773836753629
0,240228292591792
0,245002744999022
0,248361236410294
0,238221491928899
0,239106181796311
0,23837393116588
0,23413363948921
0,240915826017813
0,236608869700154
0,23859425858602
0,243381035328477
0,253517596695471
0,24335868636884
0,252390014842946
0,254187719157723
0,262780165385016
0,256878156848491
0,260844594299964
0,262120237354707
0,268040858372842
0,264404510345215
0,271684151495879
0,265653959884295
0,280018416225465
0,273255376923923
0,289016024888158
0,289856175559806
0,284528918632313
0,285520671937933
0,303253459493568
0,300690821611841
0,304244862168553
0,325800641135882
0,337331590582264
0,339683833827974
0,352997116960844
0,374858532187684
0,371128504822035
0,381780575231173
0,393550135318279
0,401258715287534
0,413153950153126
0,4044612072726
0,415408213202279
0,442503558680244
0,442451866530284
0,444932311942994
0,450823477811248
0,450320628947187
0,452408967672796
0,449443118474686
0,438589690645212
0,433095935693588
0,435880937178267
0,439977713532308
0,436624065942157
0,422324059025069
0,425412446740247
0,435496140621202
0,417313495080672
0,421417086364873
0,427394306666187
0,413357979199527
0,420428679169791
0,417272580894056
0,424648824133895
0,408324967719191
0,403696190834715
0,389653695738539
0,391313398550976
0,394437769799872
0,400283104273335
0,390844633307961
0,393901628027767
0,397531161050037
0,393673892732991
0,390528259045586
0,385089217709123
0,378657603844426
0,360661412562737
0,370470559789384
0,387807719871346
0,37941628743731
0,378111048551948
0,377417781029257
0,357309618466039
0,37579427314196
0,387390413594761
0,370219040405245
0,361629977693738
0,378141696759184
0,39954148347759
0,391923230353337
0,367513997976395
0,386712476027937
0,39955722749046
0,376604088637991
0,385442308046149
0,421017820758449
0,391908096496995
0,366899469304187
0,409248867490317
0,420041569986557
0,397305419888095
0,412860727508837
0,38928423590171
0,392819160072293
0,391230291627939
0,398712717024216
0,406981943755203
0,420289625476437
0,401220749923624
0,406846896710049
0,434304887226979
0,417776758880886
0,425776653017216
0,39092008478988
0,424202495295478
0,477306607241952
0,455772464299447
0,481119812693465
0,457627351801129
0,458262105707025
0,500966865723614
0,491530369035851
0,499079499289667
0,499476687570177
0,55387594579536
0,56294845434395
0,555274055801838
0,510817540705463
0,586197203448887
0,569791202322468
0,505625105978458
0,506702152840758
0,553218876503177
0,555905278884577
0,500229020521085
0,498913381724535
0,557403150569263
0,513254219309554
0,473710948022175
0,448377576003672
0,528778911346533
0,551343355335126
0,549928741446197
0,500518350571747
0,485643064752933
0,466672968865583
0,52366534555695
0,502892953547067
0,496861084815344
0,554163870055375
0,467658663270801
0,496196132544613
0,475817370504353
0,606273717782379
0,525550073467605
0,504593805247074
0,442578972480415
0,539716287160867
0,482143613922263
0,520408464299598
0,601394800727955
0,52305514709443
0,46375722987158
0,455092212266979
0,400635309440326
0,472629606148573
0,42029268327458
0,454466423422124
0,698426630463479
0,751004394627106
0,416234429425555
0,492080990827084
0,583124583868687
0,734768412139645
0,577735910824457
0,372742999030151
0,381499345352489
0,454146607866314
0,445884580854837
0,476231673835983
0,546791930636224
0,398569614580082
0,682994876264349
0,683245868020669
0,515104512937294
0,59948643316839
0,464968181257716
0,503738739575722
