3596
4000,36533379555
650,420452594757
1
2
2
0,0658144498354825
0,0772964562758339
0,0592151314329775
0,0811543990789726
0,0654734964145937
0,0840495393256498
0,0695942884437576
0,0833722325640581
0,0602500017896186
0,0815035144732879
0,0681891392828717
0,078390994867527
0,0601595812245842
0,0781737362470801
0,0699021140794688
0,0749194139576669
0,0639960559947241
0,0870712403737727
0,0648529705888328
0,0755679839496456
0,0610736467897526
0,0705295269114809
0,0624140581873783
0,067630158834526
0,0669678917660806
0,076466052018124
0,0603134352891518
0,0738105508905657
0,0650607136358523
0,0770195560728997
0,0591799160406667
0,0772045424330397
0,0659748369196225
0,0804357072751735
0,0555154897020927
0,0919784832954932
0,0577893625588422
0,0749911016923229
0,0627463956680642
0,08471816076854
0,0703618903757895
0,0806984377248934
0,0710598439723383
0,0763414018665344
0,0624808460322102
0,0799396828043897
0,0669714139502055
0,0707196501178181
0,0602670386047215
0,0737314661479654
0,0683706993577569
0,0743945086768506
0,0656825999780313
0,0960011760141522
0,0670258738356388
0,102598378641977
0,0712241451860163
0,0803933793551978
0,0577924304663961
0,0799062699453547
0,0791991219042292
0,0908009413996657
0,0654201063720076
0,0805790648695255
0,0611359592157424
0,0860523558705581
0,0533261476237201
0,07475258812282
0,0585336520324572
0,0795820998263936
0,0546048672737186
0,0919008841686746
0,0765457940962218
0,0826974126712147
0,0691622572376408
0,0877120723014967
0,0602210222179055
0,0691258532457611
0,0518922135509732
0,0962125050242315
0,0762259652201936
0,0838495366344691
0,0575618227321442
0,0666336872054259
0,0658867983011744
0,0936691319842889
0,0551952760902052
0,0761580375805648
0,0859403195015527
0,0941026949985903
0,0615095927243377
0,0733323149839252
0,0555083579193087
0,0727419086181586
0,0576404411889748
0,075135719223094
0,0543045160785456
0,0701408287644923
0,0596320104011987
0,0850081456447385
0,0722387536791787
0,0842045063971605
0,101500110078519
0,0757005615806324
0,120831820124452
0,0932106526712388
0,0417639317572248
0,131920267409037
0,0885026017445726
0,0846171364592726
0,0566557360528334
0,0760261338356086
0,0579805606186419
0,0837575795950605
0,0462608543057309
0,0963381848285199
0,0969899733299651
0,0829699343275715
0,0631385236438468
0,0769484483196137
0,0437927464569316
0,098943385439181
0,116723358910469
0,0790469877521902
0,0779037811590893
0,0742260034188087
0,0551564610129741
0,10935949829193
0,0996171351656612
0,0771727417520941
0,0619778574727347
0,0668972616213109
0,0474137273887974
0,0586869381438466
0,105676997065751
0,0806311266222668
0,0691283068510554
0,0695924848119744
0,0645347496743744
0,145827450674221
0,0756699829894645
0,0786286529758414
0,0561418306439275
0,0707646497057421
0,115357311782441
0,102331785884308
0,0465488764709142
0,0880224254094775
0,0842758407457331
0,0668825876146052
0,0617070593019222
0,0683495254156748
0,0820714057806453
0,0776566497367168
0,0172292592515919
0,118015428390389
0,13614697923106
0,0910320169201278
0,137551449564149
0,0860966920617631
0,072072972531321
0,0695777442524581
0,0566994754776672
0,0596330341340369
0,0559012280344464
0,0658557048347058
0,0649886083565824
0,105324513270135
0,0549816099875838
0,0779785628905761
0,0910300335025612
0,103633054451397
0,0452733297797018
0,143849693051695
0,0802122683122495
0,0569591204579612
0,0990151799313521
0,089408181610042
0,0573252060572503
0,075633105245047
0,0917316803355876
0,0639048353752044
0,0615516967527355
0,0639546213824838
0,0595715813214776
0,0911204140146559
0,0628180236443948
0,0734371154831712
0,066028445931232
0,0526855091309909
0,0627720882822295
0,130315765587777
0,109251093497695
0,082135896550955
0,0624364573175106
0,0390226735979549
0,0920994131284056
0,113737458059693
0,0612011996173902
0,072762287962218
0,0516450267099426
0,059798432859774
0,0537698141868257
0,0642101284599412
0,0504986156457743
0,0457530987321602
0,0992085926289931
0,0971469012504905
0,0634836894042484
0,0636617793028814
0,0566079455525887
0,0679391536247007
0,114690027302752
0,115039938132015
0,0578597043899859
0,0690936088810381
0,055069513235585
0,0898877848333761
0,0818749322135388
0,0731973808065294
0,0605774423974074
0,0702995780812577
0,0579761586629752
0,0668872121767265
0,0599122265009815
0,0670796216368872
0,0503353908029695
0,0688241268081973
0,0591923773691687
0,0650613814773065
0,0698046802287657
0,0776298041250729
0,0583993436646434
0,0679410582922981
0,0449990309435593
0,0777689367242326
0,0898516445332251
0,0684713831977565
0,066342227789379
0,0713472333572136
0,0607499347508466
0,0644150859503985
0,0632752868133187
0,0664336494249801
0,0559256413933324
0,053105064658938
0,096030964791775
0,0869800171662909
0,0591993441607629
0,0646519996001314
0,0677901762823696
0,0899159625708611
0,0578487292574615
0,0734038270000711
0,0495190509268583
0,0667500953184065
0,0499941507348821
0,113711059038286
0,072906676651726
0,0701076214429857
0,077493657311178
0,0865355237117961
0,051825870233334
0,0721720689826886
0,0354462172035817
0,160645211431766
0,0840842983583866
0,0563557350124406
0,126493962336338
0,104995974853071
0,0762806189136713
0,0759718485853539
0,00300797250784807
0,206262959475508
0,133983213621585
0,0838194617981392
0,0651311516369118
0,0937072307209758
0,0555399809587373
0,0678802078615944
0,078273128126536
0,0826327887644345
0,100915744390694
0,146404796417829
0,142541949286676
0,0672567629010215
0,08167281647504
0,120401183491752
0,0645782575497379
0,072807208976271
0,0565428770293198
0,0719813486317981
0,0697111985108926
0,103296084476988
0,0779270306025441
0,0858891143045528
0,0622021441926943
0,119914494763174
0,0759798027070604
0,0744793450952937
0,0702535638553121
0,0929829296184964
0,0615774865465524
0,078106009950553
0,0585130374599157
0,0868591888850537
0,0572635136375047
0,0602653232958066
0,1256463821
0,108541708797707
0,0617550329893289
0,117007354703322
0,074920978465075
0,0782281940831298
0,0634803640140286
0,0695966578368606
0,0555586128017864
0,0714376629718268
0,04804467847942
0,112220758769795
0,0775763073315736
0,0688308664216309
0,067724402456788
0,0657179020399586
0,0654083849749324
0,0792164571511131
0,0653435279477029
0,0741918755112913
0,065028403254801
0,0668522260585181
0,0800967442760703
0,11833245509945
0,052950531865215
0,107412227156271
0,11691105646087
0,0830340023864821
0,0672356356226041
0,0745038070617681
0,075959768265957
0,0740755917353657
0,0725989594935314
0,0802978854323621
0,0708228493564993
0,103342361541184
0,0853871445776988
0,0836365454230801
0,0749026680422764
0,149633295069877
0,153212273424842
0,108992154923397
0,0777310130243993
0,0796417802339104
0,0985880666600604
0,147607249298081
0,0884930208093138
0,133636549548921
0,0808178738203421
0,0908770407588316
0,0759179119662377
0,0945328422649692
0,0852406938171144
0,095578926737357
0,0929650708730938
0,0990976651544673
0,083854491522881
0,0973085171272898
0,0880685934903798
0,0952134574674722
0,133977278159439
0,115448116010073
0,0902403889777743
0,1065909699852
0,0854378522273038
0,117795927900338
0,154664872213879
0,15292889352275
0,160483308935556
0,139661447264863
0,169654468794758
0,127861633359113
0,112925102541306
0,112911120281077
0,114526123570559
0,121792758996048
0,115036950345194
0,118299346534533
0,106872821064869
0,127637942091867
0,127564518793931
0,121656341110275
0,123604324196281
0,121783070197765
0,140798390345665
0,148095974816098
0,1291297891217
0,134628001010761
0,12392272822852
0,217604405399773
0,186568382902188
0,169099006344675
0,139565440663053
0,159517534615313
0,12739398549894
0,159060547847952
0,139696989259191
0,164917643413808
0,148899059194043
0,20172093722461
0,18481005823171
0,184059904199723
0,184978054079802
0,173705433139504
0,184976313276268
0,189145207978856
0,179283129534999
0,222970983259661
0,176075396419456
0,177672125327905
0,187684929200612
0,223380809569291
0,183921216139114
0,220184651800194
0,172410440434434
0,198152742375506
0,184576173220423
0,198149732605296
0,183649404649338
0,216021078059952
0,207162146964951
0,219580972710466
0,211543428471465
0,213951557473589
0,211746577446503
0,235257472921822
0,217737162982853
0,232155797562168
0,229742637440311
0,230804139522351
0,216510253283885
0,213714289493449
0,229419713381392
0,283698717467037
0,249048116840971
0,276996457780393
0,231274113443756
0,238639328606016
0,230401647695989
0,246386595406347
0,23203718811252
0,260269912771994
0,253508083068585
0,259261865818526
0,248201565613723
0,270655934649774
0,265979912896113
0,275695674123912
0,258625170792603
0,275034487776056
0,266074906216435
0,289716702856166
0,278365488079331
0,298590249967448
0,299923215480132
0,351161894019314
0,330866883737599
0,354169632253352
0,302483188537027
0,312623971591265
0,308961629862585
0,313858476245466
0,297673448468159
0,342470422598558
0,319701809996043
0,324258452320628
0,326301910160873
0,338790099731542
0,328214519715644
0,340486835654139
0,341617539914207
0,361809957167136
0,361436939847108
0,36284097971223
0,344953331090329
0,366624169460346
0,358371748126317
0,382546116585827
0,353330071829301
0,382431647083602
0,385074295372412
0,384745516993116
0,368383599012084
0,376239307685108
0,383274901070782
0,394795124135585
0,371961229454986
0,399088098615389
0,394571646317381
0,405295625348836
0,397052457411344
0,412267586407587
0,402993663236709
0,431776215921374
0,424093558264672
0,427836072154822
0,430580393845572
0,453797940301048
0,450011628948384
0,462632252450705
0,429217964822662
0,453876735968504
0,45089497694242
0,481391694418727
0,458015136832766
0,480295266526679
0,478534750140931
0,489065496995806
0,472413116500189
0,472047103488866
0,462085073545129
0,492828680238493
0,494108216578064
0,502683064068991
0,488469031134715
0,528007707382758
0,51110043620827
0,533463425419695
0,526287720412288
0,529407032435071
0,509565802890831
0,524927360646289
0,506759396970249
0,539177961017318
0,527664257229603
0,542594469643802
0,541248057929368
0,582133601495788
0,550789227245391
0,575167423555492
0,581809650734314
0,59685069362056
0,588998879432532
0,590135319436392
0,553468416605595
0,577188046786462
0,574509877045417
0,588359380319469
0,599269800096669
0,612147686901851
0,601908228818738
0,600497144398792
0,608844380955976
0,63656085563237
0,597833805212694
0,610819127473476
0,611041666332165
0,647469696261938
0,64143009436563
0,656643456578356
0,648200735834713
0,665778665319395
0,656992502039566
0,658404831835792
0,647022765577233
0,670419188181309
0,638540352562925
0,683331912086267
0,663344465569104
0,678080855636168
0,667585903125069
0,695443338445926
0,679743539110169
0,720544111685094
0,714358768367405
0,70620556297154
0,723169885718695
0,722657576238633
0,690285625524743
0,727887168139549
0,724154976313977
0,754503410157247
0,752282044711461
0,745103304372745
0,722518096790206
0,740965769510343
0,715373236864779
0,742255060737484
0,760312313569295
0,791142646494805
0,736404731795776
0,755373180623152
0,768438660366224
0,798981324878056
0,801638864222019
0,799704669515626
0,778882110731753
0,779246054823371
0,779295416199067
0,801730565613003
0,786169340731162
0,814114294333545
0,773553815816469
0,814400501978179
0,790562338912644
0,782453328207981
0,835397293350595
0,839677490433622
0,814977853880351
0,855178317430712
0,8614961335785
0,83080863546003
0,794442073893712
0,845913605955428
0,894356788153921
0,885463114119563
0,858561922910601
0,916538545273442
0,898383419446836
0,874011162116983
0,884014779901522
0,875682712689109
0,907374802256723
0,904545364668917
0,863975775933106
0,887907403765662
0,870579910491085
0,913817755107234
0,867721589143713
0,919428544635939
0,895601736356969
0,856388110830686
0,909419144457525
0,891719211896525
0,922639660927497
0,95593399592293
0,941610358607514
0,927993665345562
0,900485040834676
0,93221567808177
0,931803871842136
0,913184389397901
0,893777907256643
0,91156078124164
0,920668430210852
0,913865603495832
0,925715421485302
0,978034507210509
0,974324750438974
0,979621520677282
0,935361499265322
0,943196635658415
1,00059198329042
0,992367817456769
0,967638898144341
0,982944637366231
0,965238578980604
0,970964000506998
0,996188972466083
0,974561713184575
0,989737321072282
1,03402616612266
1,00636676742281
0,956679218413677
0,993044483092446
0,997117216866076
1,00394734822322
0,99509521364849
0,985668778555105
1,02614447976005
0,99745851696186
0,995620949628286
1,00319236729053
0,999459998619415
0,979714426604308
0,983698836956318
0,982304970045053
0,968591380345925
0,992313905327758
1,05779562147581
1,03690939700807
1,02467631372437
1,07754634373817
1,04919101530007
1,05416767648913
1,04167877455721
1,03534815874695
1,05369944853946
1,08207184477378
1,04532967547555
1,04349385662225
1,11418097673933
1,06479917188579
1,03869836681231
1,08281796322663
1,00014701625322
1,00261498130644
1,02873120634505
1,08426849821661
1,09551433920805
1,0680183109021
1,01849140083107
1,0391427986346
1,06904861260657
1,06072453027055
1,04858388017811
1,05960128222953
1,06944896419086
1,03841084578635
1,04877713609589
1,05883072077467
1,07886827489898
1,09228890482323
1,11339126284927
1,04496616339268
1,01200945559357
1,04331216788335
1,03830134286484
1,07775268948186
1,0997737091867
1,11084051479502
1,03881604526898
1,03301152221645
1,0969319833924
1,07701891002708
1,04661491317181
1,01324128054816
1,05380184687194
1,14047924083187
1,10849398301476
1,06593593392694
1,10174568023224
1,0822238712185
1,05686223975396
1,09967750189675
1,100552825868
1,06142890113392
1,02540764788784
1,08480706767558
1,07027724758525
1,09567827388346
1,03570612802511
1,03004573753838
1,09320673192857
1,05390599063752
1,03382402753815
1,05754392646494
1,06504682798693
1,1039002272077
1,04504481794597
1,0727343342945
1,08810095686053
1,04856778174388
1,02028821356145
1,02282324904083
1,0214249902461
1,01535828149072
1,07200764339157
1,08196656126209
1,02856277355592
1,04101800837458
1,05326163002534
1,04707189161614
1,0533864518086
1,07656309028677
1,01753171934375
1,0651465438944
1,0523056183621
1,06197866533759
1,0332205056003
1,05641419619856
1,05040948945657
1,04665614652866
1,03528587339685
1,07882651212421
1,02336845176734
1,01449560824948
1,05161760357339
1,00149461963157
0,99413967740735
1,05508090635099
1,02650645936919
1,04515763854862
1,02258274672394
1,02482309067438
1,06484427016166
1,05956932534338
1,05363244936136
1,05923082124083
1,00099096233939
1,01374733975019
1,00199303553289
1,01115339763534
1,0210634563312
1,05496317466248
1,01534110589832
1,01739127841138
1,00967474996994
1,01337658740943
0,99239192785542
1,02476627306
1,01998167277829
0,970455465171978
0,952059356322944
0,989065337208034
0,993670529475981
0,985260094127386
0,974272409907237
0,958217795459928
0,989490129027711
1,00180074881618
0,981348327234744
0,988896626317582
0,94124125503979
0,948063705350795
1,0014225121694
0,990878993308551
0,959936590108816
0,953678883134811
0,948385813692507
0,98685975811512
0,961262595009068
0,916856135259146
0,93825721680953
0,925802947722757
0,944427690051887
0,946596511634049
0,938695482276458
0,988596444090029
0,931591820724092
0,929066214551206
0,952338008397391
0,928851645531382
0,90687911100056
0,914368861832685
0,917886202633267
0,955319965105988
0,914911595834553
0,910189968793159
0,902266583556523
0,896316414541081
0,901304148696429
0,942905820189397
0,927381256506853
0,911483601963677
0,921769605068216
0,8905572134986
0,871956483939795
0,924477334997718
0,919962996754408
0,882942088190245
0,861107925564339
0,885253459238264
0,869181377544245
0,888962592350102
0,864793994674476
0,86248373658646
0,865198265184869
0,839138186286289
0,846020617204736
0,874553550581327
0,853366731127951
0,84537327022929
0,833039371142931
0,852453830441626
0,81746939738313
0,818768192296568
0,814854771390278
0,83772246015829
0,824520680293783
0,820598927917059
0,818147826632919
0,812389553985297
0,803686749593635
0,814788402946006
0,810164759274162
0,802733504220228
0,789953444320408
0,802152622462554
0,796135438532699
0,807730328598363
0,766651783509578
0,798898166724755
0,770978853476252
0,786134933594254
0,786274545577201
0,789605911128208
0,75875291581833
0,754904338360922
0,760346271516848
0,777985224274462
0,766137679416511
0,756794108804411
0,765706772438768
0,746413142801893
0,740082837292899
0,741510421100015
0,738806278088343
0,728512148513241
0,72549316289925
0,741247398088647
0,727881944632906
0,71994917884141
0,723010508644643
0,724599917916867
0,693239448320688
0,710038769780367
0,711520118824726
0,67646074587188
0,676111397482673
0,696989399064832
0,675024796974826
0,684658265877163
0,68387716604806
0,690306932776
0,668166601488997
0,681721686768502
0,672115704444188
0,663104072563559
0,647320002170803
0,650656993989318
0,65304058891516
0,661007848918222
0,649429342129427
0,636626833607812
0,639103896668058
0,638153220044776
0,630379453607859
0,645557214897791
0,63328151234997
0,635777960064895
0,624885323515559
0,616930242298939
0,623318806541862
0,609860580653632
0,607566187540227
0,614135250690746
0,603315362454169
0,611816012186302
0,595314686592893
0,599411576370254
0,587757079799642
0,597734647760227
0,572579312659354
0,580640531953505
0,583959203493781
0,585975254059763
0,570812421531953
0,57929382458583
0,563191180700112
0,554405672115435
0,564187282287185
0,57628576260957
0,547318380259633
0,557582915067389
0,552050708444129
0,546603624516982
0,553512104375767
0,549569447457581
0,546647427175107
0,543235326980461
0,539148641306872
0,533860615462426
0,523946132855358
0,531893029421905
0,520351838894277
0,527492101146681
0,519993614003882
0,521006755367355
0,524048899257539
0,514988001732099
0,507894938744901
0,508252905581182
0,512077807937876
0,503743666666043
0,498787298757674
0,503901346351786
0,491205875402367
0,485679264821143
0,487126031675641
0,486509114110287
0,47944908383673
0,479104485106096
0,474649013499162
0,479441787364578
0,473884351342395
0,472142919242073
0,475618689751414
0,470555497262535
0,4596778861745
0,464208356597137
0,459422010707086
0,457836158260899
0,46249506297492
0,457062756632859
0,451836688902507
0,450840458532323
0,443018197241948
0,442926867003255
0,447404873514267
0,442175811362021
0,439126795833472
0,436228780348413
0,430716929968215
0,432680662274186
0,428157717282573
0,429892526114932
0,426944561631958
0,424710329537869
0,411505726165411
0,420892660207323
0,418832604511747
0,411037772500469
0,406020551049164
0,408974441244864
0,408663988751998
0,408758678115809
0,404148314584586
0,4006109804502
0,399382772204992
0,401293136753039
0,393344620681135
0,391884786263701
0,394268626098546
0,391402471577161
0,387479164103202
0,386117722001321
0,383767587549083
0,380040280804885
0,381999759734077
0,385501399465359
0,372797520738333
0,379231767563612
0,368909434249212
0,371184832178531
0,368648511399448
0,374544859505763
0,365767275464298
0,366386511505127
0,359174383795706
0,352950176510724
0,357481482825708
0,351161552763293
0,356624870084419
0,353731721751263
0,350940023866395
0,351706389455101
0,34412971613298
0,340561707915508
0,346078658384485
0,338486896104973
0,335974115019746
0,336330503988997
0,334062808300976
0,333027846510578
0,32907811953941
0,329092665264723
0,332821463978538
0,328483704044228
0,319077083465246
0,328248574694491
0,329157854929051
0,327044216571907
0,31974116155445
0,321581540367833
0,316940539638393
0,320525924252586
0,318383313978082
0,318558162489019
0,314142692632156
0,319777951879528
0,308850785661514
0,31608825836726
0,312845408243332
0,316110934997484
0,311462128851521
0,312126216447258
0,303177022621233
0,307030015050004
0,301510058528474
0,314824029028765
0,311093497202546
0,309741662930659
0,309425371611214
0,314496291015371
0,311359300932767
0,311309051544213
0,313427991685383
0,308630814639877
0,314333555398577
0,312585725268206
0,309655677965572
0,314571505264641
0,313814844605812
0,316493886499273
0,319425543241062
0,313724746943427
0,31551945115369
0,318528759229202
0,314631290786168
0,324539429064863
0,324072200049395
0,320884799726212
0,324723492622401
0,320824026617321
0,320304352482684
0,334448790205432
0,326082097202623
0,326974994653449
0,32502743511289
0,3323329363626
0,333093461169646
0,329683456018212
0,335355101826408
0,345744961328519
0,347083354678668
0,339553538902538
0,349124275423742
0,354255116169781
0,355504219008729
0,349490143053998
0,35483633171898
0,3537513783126
0,356336361402863
0,358128198542906
0,365463555545398
0,371771369415246
0,371166407599456
0,371435739103467
0,371562790534365
0,381564667077621
0,385186259652667
0,391795401386456
0,393602189851275
0,392332966833838
0,391091340432505
0,395623715341431
0,404397415359485
0,406817634981347
0,410041239562279
0,411903102798303
0,411594236682613
0,414089202884488
0,414532881338087
0,41742964412674
0,42749661165654
0,42244393161791
0,425260245440418
0,425506319117135
0,426390306317181
0,443992272151527
0,424282669127342
0,434982686554906
0,432886255758572
0,43174421548862
0,430594420880849
0,439466835950457
0,427098907350379
0,436826498806806
0,427186758988797
0,431694413092063
0,430675053744128
0,434615771418843
0,424669832471585
0,438173101171122
0,426749708904735
0,425838834029138
0,429994806163148
0,428704060287034
0,433109412750071
0,424896001676319
0,423812363306982
0,429802721782967
0,426316478388369
0,425073996398888
0,426471800299827
0,432005426306371
0,432992969017639
0,430196245747008
0,425597888900462
0,428900238911332
0,422078665754337
0,424599011284872
0,429812100331757
0,442592348720477
0,422679205207042
0,426452754825719
0,4333210613994
0,428095771353666
0,424184827465315
0,429578185863256
0,426006145310996
0,442917274802576
0,424749526519372
0,440896700349095
0,428680079501872
0,435707406264982
0,421631860011205
0,432195160022188
0,433349705032684
0,423571080011579
0,424577647381845
0,422179444653686
0,422171968151119
0,423525382613877
0,417964197138731
0,413553416158234
0,418462995613216
0,42093781230715
0,415323630004516
0,412234367725904
0,40957777920293
0,405679299619301
0,409344882947498
0,408242001709135
0,401431408845259
0,398016176809765
0,398465833743412
0,396014087424936
0,391663700203747
0,389901985702143
0,385820693771547
0,38739704056812
0,377242271903557
0,385106163546585
0,376252822538405
0,372442420856962
0,374147295389873
0,362863869160271
0,362942252380464
0,360433448769328
0,353966532775914
0,361306214053277
0,349367591305074
0,356092312250057
0,343137197496935
0,344887528100925
0,344804991522132
0,332829333943459
0,337866712455344
0,326049855224224
0,330340719909813
0,331066720904172
0,330940658976246
0,324983694366365
0,319781859524723
0,320954567821075
0,316670533895652
0,321373955613884
0,317244510047405
0,315755150515573
0,308057581105972
0,308148622575212
0,310270990949387
0,298899188255981
0,306965966511777
0,303616157027606
0,297974623248961
0,300069628297403
0,29543532980909
0,297808688949363
0,291894038762374
0,296846877303694
0,292282742254956
0,29071377758505
0,292548282667323
0,286207462332165
0,283725306219911
0,279095656972532
0,283342631228242
0,277871640919228
0,279503402992148
0,276864131810121
0,273641110310046
0,273891737640428
0,272458486959666
0,270162641846796
0,266654080323283
0,272846533843722
0,269253903663808
0,273991697546047
0,262481481691963
0,265247268705126
0,265818542756603
0,258936295731756
0,257413306769493
0,261697019947973
0,254788821078815
0,261416725847096
0,257230487949192
0,253097260833841
0,253441385998686
0,253097815806909
0,251365352858137
0,251608093053701
0,248355240045383
0,250720004797726
0,249716124396775
0,244772626637075
0,242210828203673
0,242910658496912
0,243989327472376
0,245450851123966
0,240461275227325
0,241391214902019
0,237680944800865
0,236564243634995
0,236860802130003
0,239811490515569
0,235115764252813
0,238232344862123
0,232660715801742
0,233689972860287
0,232929587218574
0,227676361896024
0,234231971494982
0,236040691388476
0,231480820749194
0,227281967356096
0,232377558589196
0,224887610313221
0,231143461425978
0,227626495033681
0,221853046397986
0,231105528598938
0,226860650376673
0,223517350957064
0,221976167038431
0,226202075649969
0,218076727614125
0,219614784292363
0,220530500335845
0,224790529344658
0,218503066124094
0,22021133373773
0,221389225881652
0,215668356403359
0,214677268039835
0,216107005473011
0,21772245389355
0,216926110293715
0,211869085145898
0,219137708970104
0,216164260821972
0,211337121577905
0,211464315344295
0,210017024089414
0,211127746831516
0,213275311415319
0,211178218326002
0,209555882835165
0,208825175744711
0,208670015313303
0,205605158435414
0,207613412511716
0,204011199509709
0,212664075753469
0,207519199954946
0,213694376866703
0,1989186093381
0,202651811437424
0,206477108264958
0,206979516899952
0,209703183527509
0,207848809069874
0,207258068398763
0,20225359657936
0,202847600971041
0,204801268437673
0,20229871528898
0,204779082702707
0,202224108948595
0,20437147106566
0,205661032797693
0,199557902205372
0,200205712289183
0,204723054662645
0,201134038605389
0,200923692344289
0,200301344271885
0,200440907572162
0,196005018931968
0,200791732053652
0,197579750548138
0,19684542697082
0,199953247008534
0,198055170773586
0,19365095595507
0,193326376683058
0,196309388894401
0,196598518260957
0,192508152783218
0,192505759124613
0,191591189981367
0,193633611394511
0,196863033089789
0,190320791066981
0,191259823925515
0,191343427486024
0,183931083377135
0,186762947397784
0,184798266045118
0,185214166851143
0,184353267245521
0,190578091997139
0,183411962428413
0,184631595370094
0,183677613102538
0,183719194991565
0,183002209095193
0,181761010348959
0,18165821716179
0,181108585849883
0,179312463705154
0,183040891025843
0,177416534469893
0,179802721634632
0,178099853215835
0,182352909897952
0,178830239210041
0,179700959859318
0,176462983130598
0,180003748156696
0,172780849222318
0,171668923313139
0,167829039886486
0,171644243119113
0,171824246644964
0,174737604211253
0,173795787579647
0,174472401389347
0,167360813022355
0,174689845055695
0,17221648086769
0,172368066452405
0,166547288630127
0,169551968516204
0,166718888482977
0,172669067040322
0,165863572925864
0,166326783978584
0,163638108000322
0,163449106388547
0,164410686533506
0,162179003839398
0,162584094449733
0,162088520845225
0,163454078336038
0,161603633396729
0,157770268921247
0,156104847683246
0,161333670270694
0,158895250132351
0,160583107324134
0,156753215930464
0,149007524757796
0,152290115112486
0,153102285151411
0,151710504075979
0,150281045494708
0,152252031269408
0,152550847821104
0,147100822100809
0,147119006269848
0,147049998230805
0,146778517524201
0,14463576473211
0,149692032962744
0,142783280837813
0,146136940404442
0,139780113383982
0,144676314109816
0,141889057502608
0,139113649885232
0,140836105357312
0,141144695409424
0,137004721897883
0,140037274346142
0,137127496090263
0,139212513426511
0,136849263001594
0,137203233051287
0,135380726371597
0,133113312678699
0,134064135343263
0,136400498437875
0,134225140562832
0,135284565210687
0,13287608226389
0,131719466838131
0,135068549354363
0,131509005561456
0,131455118200977
0,133510250450487
0,13100446565175
0,131380248470074
0,133565766492432
0,130641126956208
0,128989067357683
0,127735900911067
0,129584697523666
0,125567446494148
0,128290598735601
0,124969447533771
0,126094167517402
0,126905087698218
0,126925365404587
0,126549265819867
0,123395652918809
0,124157485180965
0,121492906318985
0,123682508328762
0,120476252269728
0,124047215254517
0,121380806283313
0,119944816554149
0,119034908831766
0,122488844890475
0,122105246071645
0,120731127904517
0,117466504454817
0,120890801326123
0,119344087443478
0,118136766390039
0,116344844512894
0,115359529929483
0,11615983727771
0,116017984870047
0,116172475461594
0,117374332347742
0,116540797591288
0,117769835108357
0,114261432267846
0,113445236679414
0,115088607347556
0,113987596446979
0,117280226697013
0,111547197106649
0,114602745662111
0,114273902740075
0,114014053616914
0,114398811715013
0,109824975294633
0,109801794430181
0,111298057597728
0,111202342714416
0,107021491504869
0,111145656109723
0,112218142981522
0,112094489120068
0,11031685878203
0,110678297944097
0,110400240850826
0,110320496925149
0,109911697481109
0,113892132242624
0,10599204844608
0,109359645744608
0,107376297039071
0,110895756047788
0,109366478039774
0,110964203634989
0,107641262176575
0,110390268831718
0,109043982144434
0,113039508335687
0,106520047424649
0,107417297537817
0,108339630091603
0,105286071565467
0,107235157954295
0,106479181776291
0,107925461135595
0,104290971759805
0,10528034418108
0,106990360972017
0,10488908590836
0,104361963903261
0,104290203407963
0,10032617127092
0,10246732248174
0,101548014736692
0,105664935928761
0,104212158765358
0,103352809481701
0,0994139715227145
0,101393561362653
0,102438880972659
0,098910783084487
0,0993283598305071
0,102373590792589
0,0998040568387203
0,09837567497396
0,0988301380519708
0,0990233338884065
0,0994119774665477
0,101192615887247
0,099779209887201
0,0997550429420961
0,10165378843515
0,096340543848385
0,100504112143868
0,0986138495158579
0,0942649798998269
0,0943067040292096
0,0979558533352397
0,0941588795598071
0,0981752071492628
0,0987851363793741
0,0972938418480479
0,0941263221732404
0,0979592688451013
0,0942412724290422
0,100142854739179
0,0958672246822147
0,0951779464632494
0,0961548763980328
0,0966619841524179
0,0933719713846106
0,0983083660201604
0,0977642597544135
0,0948989171877244
0,0946256957299253
0,0934677901725117
0,0967098111385984
0,0964257632964357
0,0939964027703449
0,0935179089620406
0,095156559598638
0,0922231740587425
0,0943210376224957
0,0934266398129017
0,0907139489678494
0,0932203505375772
0,0887076887748285
0,0917233012261198
0,0883968927353721
0,0904347996151046
0,0873839735966506
0,0895768171941334
0,0888726407380668
0,0871058512914849
0,0840061583127348
0,0893242391795248
0,0871120842320895
0,0846446145532014
0,086475101198283
0,0882044630196143
0,0845290138170652
0,0836168888565862
0,0840300868292498
0,0829299302948315
0,0838755921671684
0,0858148171238071
0,0834616242577884
0,0839237281835826
0,080456818012857
0,0839396367469767
0,0814121092765875
0,082192111481168
0,0803807201058596
0,0821120037712972
0,0795484515167287
0,0807447780409532
0,0791762708492725
0,0793087597401882
0,077681432568809
0,0815963156038896
0,0803178284857117
0,0812475523346368
0,0796610109556371
0,0774077543353988
0,0790442740161422
0,080265743699133
0,0773339792982713
0,0782712925936206
0,0770977268147496
0,0770928840820135
0,0764130934420223
0,0782230839997971
0,0762067640167333
0,0788357047221778
0,0754432480418722
0,0758738680897616
0,0730686675727109
0,0777842524549242
0,0762043224227242
0,0735195880937654
0,0735389938978083
0,0736025340446568
0,0739056924356873
0,0746198634287132
0,0719511250750553
0,0712962180100817
0,07166015907181
0,0733310829637885
0,0708192252376074
0,0738373913464837
0,0715972689016823
0,0704556179874408
0,0711255891599611
0,0734757342013827
0,0692351531056498
0,0709933609783049
0,0688766291568313
0,0702993972540434
0,0674589989261329
0,0683950476886197
0,0662340233092182
0,0688597936839148
0,0696508156258834
0,0694356964234312
0,0674416245825459
0,0683584291711435
0,0651978653222892
0,0667247991727379
0,0662305943867775
0,0658266977929232
0,0643922932841871
0,0657835071724711
0,0648504875755003
0,0660751372011246
0,0633683686101746
0,0659020250859087
0,0634378015497572
0,0675605042250781
0,0655663597320257
0,0688328708908136
0,0639316172162281
0,0649647640806597
0,0670932778810014
0,0631213042521855
0,0638368481423467
0,0667147793225261
0,0684209637517751
0,0675599635245714
0,0629768913270128
0,0671335544632896
0,0671199225427222
0,0670875145199471
0,0658461736652219
0,0673059342265524
0,0680198450384045
0,072091810756684
0,0680116848779333
0,0730550805805652
0,0706919895149259
0,0726030060768107
0,0720319808957008
0,0723680637253708
0,0682528596061137
0,0714739140476382
0,0656596003728274
0,0682355535201137
0,0653635924741756
0,0706298688134206
0,0701703039055716
0,075715874864206
0,0698338648314702
0,0693142505689813
0,0697534821488409
0,0660954061369799
0,0643559769742513
0,0727886705593069
0,06455542215389
0,0691151581917197
0,0675402598974722
0,0698302347768637
0,0640165450796325
0,0718681362297931
0,066053842175584
0,0746739876779154
0,0668186155170278
0,0664233732814701
0,0621352953344761
0,0680140157108819
0,0611888554924507
0,0667817068937154
0,0651237204974984
0,0652249595341403
0,0645567969192884
0,0638446165266154
0,0643399096564271
0,0703839349981865
0,0672862540790866
0,0661796810944636
0,07269609268539
0,0651559941228167
0,0673431396990595
0,0597495968500887
0,0635627333436919
0,057172944832427
0,0710356864593282
0,0588534435589179
0,0748240765181014
0,052222182555594
0,0759323587355265
0,0476751394754247
0,0813594666600254
0,0508471813557374
0,0853862107795892
0,0388443998683147
0,0917861932038672
0,0438619335022889
0,0893219098871832
0,0374703045973948
0,0953685736921839
0,044055596549525
0,0837303558696852
0,0501274248565251
0,0791536986175603
0,0523579055360983
0,0702905811691272
0,062878834087026
0,060605455564507
0,0636953677729161
0,0580871274441681
0,0681617913460988
0,0544968521357942
0,0672197811916116
0,0547493735749172
0,0610833472027587
0,0574325283099753
0,0567562207226508
0,0611669258212531
0,0583831026158949
0,0617772311490677
0,0555030333668803
0,0588286861080132
0,0564760780001265
0,0558762209763606
0,0577170405352852
0,0561186696189755
0,0552596139161392
0,0544703370518768
0,0572241868829422
0,0546669558877849
0,0540671302209622
0,0547723351940123
0,0548565947849715
0,0544876832081092
0,0547904931339678
0,0542085800573941
0,0562940732493429
0,0546611833627486
0,0525542868017705
0,0517751932681423
0,0550632554600379
0,0543581407237618
0,0555960632833584
0,0554355362039948
0,0558680711739277
0,0555192257613946
0,0562859151001941
0,0512291677669438
0,0559385238091769
0,0551743011822751
0,0560844558956985
0,0566886418919976
0,0552862908820853
0,0559097285092895
0,0564684839370583
0,056299006709395
0,0571611979702417
0,0543391986550612
0,055905826171768
0,0550786701431186
0,0558146898032932
0,0546899277481241
0,055433754832093
0,0556277557278571
0,0571266408865464
0,0563725781422379
0,0553236439235694
0,0547734722963045
0,0568278428004904
0,0550074993745698
0,0555713119108519
0,0547530510175287
0,0553652267943454
0,0547236124559046
0,0546425226566682
0,054574581355566
0,0562218920376686
0,0530721880048992
0,0549621914517753
0,0537101173511799
0,0558682762677008
0,0540841362771176
0,0563431671099464
0,0542630023098936
0,0558232999692419
0,0551125554824159
0,0562070771718151
0,0548874853762165
0,0567693432571789
0,0530257259561006
0,0550644996237307
0,054473459392792
0,055318136122402
0,0521102958957615
0,0554373706720901
0,0535630614127902
0,0570918989845776
0,0563716120246358
0,055275536108729
0,0537867911237828
0,0582864913759172
0,0553129368913087
0,0562312496749883
0,0537181055002762
0,0568782238160533
0,055033636671118
0,0557996679369935
0,0544694671838485
0,0569881712543197
0,0543924155803514
0,0568633718772529
0,0555493119706106
0,0548880174091037
0,0553545000733822
0,0585351104298913
0,0558925385503939
0,0564706172821645
0,054852728224274
0,0572291335779087
0,0562136376000703
0,0576850006045923
0,0572533227834601
0,0580261396777602
0,0574907443181676
0,0587091911887455
0,0539575514611586
0,058947922057554
0,058475192991187
0,059422435710296
0,0547606260809297
0,0617333328156846
0,056381702905115
0,0568913037559666
0,0559644756390674
0,0579477604005583
0,0570285758631032
0,0583077340992574
0,0569581802629641
0,0596865241115194
0,0574557821479451
0,0588544179019511
0,0561522123021828
0,0576183600901076
0,0566234108697746
0,0574713507373589
0,0561939500077026
0,0567129890647947
0,0579237858578882
0,0588027643558838
0,056429802010642
0,0577007474534078
0,0562078886228438
0,0567858747388046
0,0577062103879026
0,0584985038637196
0,057383066621477
0,0620839317576036
0,057277859120037
0,0600792395612817
0,0598697936814777
0,0601294702558633
0,0581454123649218
0,0594172672782356
0,0576413811963339
0,0611606236791918
0,0588175555926018
0,0605497406651635
0,0583451236911912
0,0601621540611398
0,0582945405525751
0,0587802714855897
0,0585096498523012
0,0596205109714378
0,05990248815125
0,0628173857674068
0,061316589155581
0,0629926871994921
0,0614305468995787
0,0626861001734743
0,0612507882427133
0,0627278215991212
0,0601783851842894
0,0616816907149279
0,0587617025350246
0,062654231164574
0,0610818171980162
0,0606406357017638
0,0594897011460556
0,0603554843270895
0,0575411250803729
0,0615360183046714
0,0599903735696742
0,0612789028493557
0,060092594257904
0,0603982277639082
0,0589781515842995
0,0596130470756938
0,0585915318496079
0,0593779036373037
0,0562177378093351
0,0580898353664509
0,0561203545709667
0,0613041996787587
0,056742488567967
0,0565495631556975
0,0562544670058978
0,0580043689977428
0,0586227180326148
0,0573581564056657
0,0542926973411955
0,0586090220776252
0,0569763738026531
0,0573041900331201
0,057908168305273
0,0578124176708972
0,0555518641275633
0,0586243951487272
0,057378529220923
0,0598009197641844
0,0551785998460639
0,0569439372573325
0,0548982926475713
0,0552785845513476
0,0545065565547212
0,0586359419891779
0,0563200922308749
0,0573400860120536
0,0566680579923869
0,0591246854425835
0,0566661916363337
0,057147255938241
0,0550454871662257
0,0554168465945882
0,0553874596675808
0,0587517156648167
0,0558308549614052
0,0578468411752096
0,0551056438953943
0,0576179697648392
0,0559930983034654
0,0582485588915415
0,0552149689948919
0,0558772223947542
0,0554780962629474
0,0595131428102394
0,0556174954758649
0,0576793921339959
0,0553987262467449
0,0587675665544408
0,0550165424250649
0,0564786250169391
0,054665836409493
0,0564195364900934
0,0535805239874606
0,0561302879743245
0,0542483524778656
0,0559870410692908
0,0540129557579055
0,0559096678984002
0,054436012117099
0,0568170169510636
0,0520775119666556
0,057317909301201
0,0525672404945412
0,0565367123866951
0,0542909891374493
0,056468314153634
0,0524706134389398
0,0558102654995809
0,0542960087518195
0,0564506247675541
0,0559451473206472
0,058485368539638
0,0566692444880528
0,0575133155222154
0,0528702076889209
0,054167467855303
0,0532656741072707
0,0553235534940875
0,0500267385397609
0,054639442771231
0,0521938238856138
0,0547597492648239
0,0535066278408724
0,054263002017597
0,0554674670628158
0,0552520391088846
0,0512737728010754
0,0570207431668644
0,0547400036449098
0,0549478709563662
0,0515920186257844
0,0538303887019962
0,0529042633281046
0,054819911207604
0,0536447878023706
0,0557416054123891
0,0566630505752764
0,0567187661724075
0,054772784446664
0,0558137445832912
0,0516503221550481
0,0538447343894242
0,0514051303887594
0,0535503367323947
0,0526016786912526
0,0531134244915157
0,0508503482735207
0,0528305794407944
0,0520354459488715
0,0553322264109667
0,0489403146892258
0,053928259581383
0,0518885863488097
0,0529548041149912
0,0510840576220816
0,0524926848702547
0,0494859530617103
0,0517903545677148
0,0456680464043208
0,0519318961710378
0,0484452712987825
0,0533535629451858
0,0478814571690399
0,0563167781118261
0,0480197199748434
0,0518543383134366
0,0464347924969777
0,0499353238156447
0,044391155497869
0,0509792467958542
0,0444345576724775
0,0496955688738743
0,0474842467928426
0,0476672076033515
0,0459226971713427
0,0483007683689384
0,0449378331509493
0,0486586016490882
0,0446291186018865
0,0489252559038987
0,044744777009378
0,0490016987158736
0,0458349592217683
0,0461289194710705
0,0458540103712012
0,0495663579543249
0,0423762434317397
0,0484099665796804
0,0488080480430795
0,0588671556500786
0,049918564473265
0,0450444642466733
0,0490475823657549
0,050406543143505
0,047395132284579
0,046444661111647
0,0458742933134713
0,0446709576507766
0,046867375017784
0,0471201634208404
0,0461324631231308
0,0451620285166688
0,0441472410595272
0,0453838989181182
0,0436159546277916
0,0473141699398857
0,0443273602449675
0,044073675702329
0,0454299545107272
0,0461237578191835
0,0443091723952503
0,0465154063415122
0,0435263025526231
0,043417214978242
0,0464456003314497
0,0534275923064996
0,0535345682290522
0,0472926406850927
0,0441256133035358
0,04280854210257
0,0449105817715939
0,045701140884075
0,0423839501682346
0,0437370005034234
0,043302701762921
0,0427527507625006
0,0406422903186319
0,0444030839738564
0,0452218146749532
0,0443181021812252
0,04359199630051
0,0425097334845312
0,0405131579808312
0,0417765554819229
0,0424785214983823
0,0409401895753672
0,0439507533541135
0,0423848015373156
0,0449792147765068
0,0444315216451027
0,0416272156391283
0,0520316734905274
0,0576228675156838
0,0548507478538818
0,0374812854670931
0,0478279273118091
0,0387886217825377
0,045517755604377
0,0375591462930077
0,0446061963344726
0,0407205891791299
0,0448386164815685
0,0407707554099025
0,0449691006330846
0,0399414288443754
0,043363132821515
0,0376009143519473
0,0439508785349987
0,0396390877681462
0,0463452707937353
0,0389718341919539
0,0421251682503843
0,0459235554848619
0,0582175847193767
0,0482670380581489
0,0465056056542427
0,0391493109390595
0,0499772249105628
0,0480783626094227
0,0610361811404886
0,0362290068604459
0,0459528308472318
0,0395166858781762
0,0444722677258968
0,0384808440577232
0,0413778206446892
0,0432109980970378
0,0481874772374357
0,0456880501224913
0,0433496520208456
0,0430491732158812
0,0416964804515383
0,0415943587918498
0,0413157280294359
0,0403007894519598
0,0443386113135161
0,0374314128555193
0,0393367275684094
0,0389263392443011
0,0416404383410571
0,0358417956228367
0,0412191489883913
0,0420522763754583
0,0481798543495967
0,0407948415990108
0,0418165770637315
0,0415234665138109
0,0389748232260891
0,0467879734132869
0,0533973174972738
0,0482814057059491
0,038632517603503
0,0423174307334867
0,0390250433907683
0,0435190579223321
0,0425486809168844
0,0405247003241059
0,0401024263879701
0,0411100506497496
0,040618219427514
0,0394701725292858
0,0400320330530971
0,0383214339217472
0,0395941533214913
0,038339697429651
0,0421991737452675
0,0377835007984569
0,0422736582207952
0,0359082328642388
0,0481504814278774
0,04683232012549
0,0676041990145483
0,056042746278786
0,0557485021578964
0,0490016843340381
0,0414207792530667
0,041812519961992
0,0406970341702839
0,0429045457239227
0,0409409858943006
0,045040079331066
0,0423869668885314
0,0455752660268588
0,0389190568424547
0,0416327677995425
0,0383947027505073
0,0402942186649281
0,0398766167821607
0,0416979132100955
0,0366803473910403
0,0420953149000552
0,0342867855633765
0,045768143586089
0,0451860635194001
0,0567107216347339
0,0380337717830442
0,0494658076732485
0,0527570420889525
0,0691703750505015
0,0544617023368941
0,0413840959090537
0,0474738919552889
0,0378030182402286
0,0436262287831061
0,0405173961092581
0,0469752702364357
0,0419629931398676
0,0430114593735845
0,0396136613944364
0,0464683505731735
0,0373534486987526
0,040211660961116
0,0488201408868711
0,0678361753986299
0,058576899136087
0,0444922009445883
0,0401234196536916
0,0540443575040484
0,054530222862054
0,0589806745439615
0,0392342754048202
0,0488772167896341
0,0395577058222057
0,0462415404247976
0,0386373131345149
0,0454309951265972
0,0453950591343576
0,0454139474578506
0,0412791392570622
0,0436330567298146
0,0429475430819882
0,0452317270258918
0,0479140623135879
0,0581775359189734
0,0486209623649191
0,0486466348372396
0,0453498471628535
0,0509490905323003
0,0429790287614334
0,0458713257613853
0,0411706125667383
0,0440320805711855
0,0564452334643181
0,0586308178967178
0,0557733738889305
0,0597522291414783
0,0543219466246638
0,0494511913214596
0,0425533126484457
0,063356035294404
0,050542479270772
0,0472179994140192
0,052816569499252
0,062023397509031
0,082434566196148
0,0535128214442404
0,0594607898073219
0,0378071789272511
0,0545347010529821
0,034677020802187
0,0588097582639821
0,0504784591877782
0,0600873103154426
0,0409680012835135
0,0509753613790753
0,0534502187119165
0,0623293408781989
0,0557557302387263
0,0502756634454526
0,0458295208703636
0,053172072711091
0,0637533544884035
0,0522547929778263
0,0576377489744835
0,0514037554445414
0,0997262965306564
0,0753204048187108
0,0556388880295669
0,0572578247176879
0,0686447584484326
0,0695771960534315
0,0466879128392409
0,0535685651003451
0,0514557284287144
0,0460740832883268
0,0631479382000476
0,0699297941770567
0,0684169198944265
0,0557240706041479
0,0536579024591125
0,0587647989162986
0,0622957699891361
0,0704954446637116
0,0521933106994121
0,0594977327555992
0,0497547061438466
0,0651854349118255
0,080176632431872
0,0836186682662307
0,0831452092632362
0,0753994886383387
0,0930475663686961
0,0672892586178607
0,0755761933062728
0,0599021428336724
0,0834130370166045
0,0805663017898044
0,0714340144323628
0,0532262279688616
0,0849759502517398
0,0757505933726002
0,0844530217432266
0,0579060748802001
0,0730321120735395
0,0604976490652644
0,107988890124591
0,12045957579102
0,112079718126153
0,0711184017769994
0,0862408785535359
0,0869475565528621
0,0854971245501201
0,0650160790089437
0,0734570056315715
0,0715950748348225
0,0722119774772588
0,0731493458504643
0,0828304166238827
0,0804783098093798
0,0841709688572287
0,0748823758516142
0,0852778940834646
0,0897479396538244
0,151934640715604
0,107393978178001
0,118772518844421
0,110106647017472
0,127902842617344
0,0933718605164929
0,0905493731944987
0,0875696983397805
0,102965649658226
0,0966730647783185
0,0883691623532475
0,0964436967343636
0,117487530607838
0,114447794251037
0,124059935797
0,102656565674871
0,120769647277835
0,0907259304297587
0,143870402160871
0,127502357008899
0,171188001239448
0,11527519872222
0,133240938309308
0,135153084068737
0,181963729273098
0,142918715425501
0,12893748487181
0,126992553323674
0,125205094075803
0,127541484940178
0,144458419697133
0,146402132424333
0,161376112249071
0,143198693551691
0,154372912301258
0,148437409037099
0,245748898360333
0,230413310032391
0,182150522772055
0,171386380223773
0,193975724547286
0,189759929424421
0,181747436465161
0,177836018811773
0,183797905709377
0,207766405962427
0,219956594233662
0,219206933396848
0,192810947162915
0,227721557740703
0,220050081437076
0,232842904267896
0,245465391612394
0,267883527604422
0,238147780754683
0,2285604142157
0,24430908517667
0,232443976218499
0,24677064195069
0,257939836355076
0,279237939605888
0,254655066794917
0,260991536202302
0,254953599978691
0,26120731666535
0,268086753380886
0,270943248231659
0,276626502015534
0,304482725325486
0,328271595893983
0,424188675374025
0,32294477073945
0,297416055434518
0,280167896972869
0,299057584962388
0,301664621072882
0,328134912775926
0,317141017941057
0,319909449228257
0,292278921858042
0,286827158662245
0,292570201417445
0,282031666900389
0,293027007722916
0,289894540744272
0,295181247645726
0,30429794626997
0,301583864088812
0,340393098321598
0,343609740856487
0,312623885881756
0,284435730672933
0,295308063762032
0,277750571058592
0,295010091973664
0,273215045200055
0,306580538978275
0,294002303936761
0,300490985844153
0,275803814439385
0,292577184982004
0,297389671224763
0,321919553392023
0,288742855146125
0,293536864667192
0,282742998651238
0,281352498246229
0,269849409325459
0,301893054876681
0,300628334720327
0,298993848347293
0,260206899839634
0,275865542966756
0,267074218089058
0,270939957334239
0,263211145152778
0,275544872049479
0,2618550662369
0,26779502419215
0,259649828974235
0,276361523562548
0,257362042746858
0,265796851261956
0,260430303977285
0,270593864432393
0,257141255266225
0,269173467485058
0,258115765452803
0,262209504840976
0,257095850365572
0,267609075266456
0,255977610649855
0,267927387313037
0,261105100108837
0,262915869871167
0,252285771837279
0,259473689831651
0,253708841110833
0,259678013305963
0,251421493947281
0,260379325414176
0,251612180282716
0,259753876228977
0,249427282181698
0,252324781189128
0,248830495902068
0,254356110096409
0,247432883466201
0,250057850360681
0,245349435276475
0,243861628647233
0,250285688200455
0,300123385213309
0,272849794429218
0,247279413017223
0,234119351589374
0,243956256993403
0,222724173642869
0,237916703302043
0,262358447099116
0,263429427783682
0,226478963408092
0,225929147177931
0,214817538574734
0,239624666674493
0,216892807923067
0,221226961534158
0,205119919495447
0,220083051701608
0,21503918268242
0,279294901278751
0,279298455950311
0,28438650496835
0,227337314229527
0,204796160124683
0,222543146708876
0,223762211766377
0,204312294972791
0,188003223615704
0,18592138710175
0,24192247053066
0,208159330873414
0,192003661586645
0,181346825471673
0,186267173892768
0,215809516236413
0,217775288032591
0,205755933049142
0,213437032030643
0,211067761001389
0,205709982085785
0,21800928639971
0,268723760874591
0,208146257034734
0,180536138471552
0,173782220556276
0,174824978833721
0,176872040114858
0,223622256408775
0,185002150525542
0,192970291549046
0,161809085791669
0,166042424677925
0,16369944913285
0,194976903454116
0,167252478413783
0,193928057554542
0,183935070185793
0,170749310633235
0,166777189840732
0,194540551607272
0,206749641667006
0,226821337883607
0,175286026057536
0,156930940837562
0,202084952564167
0,201169007995745
0,178379726958464
0,175486751108471
0,147773489666378
0,167695676258791
0,160805488625135
0,160959113359113
0,17735981508674
0,179242639332153
0,197318661085604
0,213123903671937
0,244715282002695
0,217621685491523
0,170006789488923
0,151276323957929
0,14532877505493
0,162282982649329
0,148165596013487
0,153936369913136
0,189112973104362
0,160580677187607
0,163171283364167
0,200188322540539
0,173917267175841
0,161466375587275
0,164203204373266
0,160686339156086
0,171347148132329
0,191743646607715
0,219249573087126
0,197007279664177
0,198802211343975
0,202002933055874
0,18951405527478
0,183098006365572
0,185231139131142
0,188713416513045
0,198586675684354
0,211365283777878
0,203008466836166
0,20809999662455
0,209184486298763
0,214563565546269
0,251995708789227
0,245141162331243
0,235555132882635
0,258508429044673
0,271854832739213
0,313641955944277
0,264792087647034
0,259292087635707
0,253734478404171
0,264473142633498
0,261674170378418
0,26351129881362
0,289884454852654
0,308631155696616
0,286018260587029
0,289293055040225
0,286468130793278
0,293321654441794
0,297540916146276
0,333958949809426
0,322870354098496
0,386007158849676
0,357738667531746
0,351578023682917
0,316933250767548
0,314424374311547
0,322981138014758
0,321995396485281
0,315665501104209
0,319366031742223
0,321745262745847
0,347602300862473
0,323738638985352
0,327594002051135
0,328975199495241
0,330981048450971
0,327923495947969
0,332929103331868
0,330465794173753
0,341432521082165
0,337566200214968
0,34428424738592
0,344948490112163
0,416679369654719
0,370935221181291
0,364392105169494
0,357388223454657
0,371276564541373
0,363164956865515
0,368623247252279
0,391822870538242
0,385536549914209
0,375578143588653
0,381362926470935
0,378223140744028
0,378503280621183
0,396866311320267
0,417584700152358
0,392098162739018
0,405142553810427
0,390294428339927
0,430430818263244
0,429319166758561
0,432535773406852
0,416229922638409
0,420120022113501
0,401845087727783
0,408174277831096
0,401182155678912
0,415938765854412
0,41153785492384
0,4135640714109
0,412743544536908
0,41098900785595
0,409099073286897
0,404497118518116
0,408825179534596
0,432733279994787
0,408143470061596
0,413018887177148
0,407060002087491
0,407655223916639
0,398251876454471
0,432650403793655
0,428701602114392
0,413391771427378
0,410710551499982
0,426121018505679
0,42089260221222
0,421015850561875
0,400691598533111
0,408263768622588
0,39950435812428
0,41357625515433
0,401625441839054
0,429499626000864
0,436865355399902
0,424016100189223
0,411596783656356
0,417000862144304
0,409875265982271
0,419196875888147
0,417765141100699
0,423023674562345
0,42616548153442
0,435158741073603
0,43649272493907
0,429868196246098
0,435852369103074
0,451764550907705
0,458999637869215
0,44735376691905
0,430740812592791
0,440279084613558
0,430368653801437
0,433897624775243
0,429194505376203
0,42523258544151
0,417659343515657
0,42258512020587
0,41045511366496
0,41984941960306
0,441684594120331
0,416805826913496
0,412272234978223
0,406257340509593
0,394452926829779
0,400884083711112
0,393596998644355
0,387602454671106
0,387481407160234
0,390384406789828
0,383082918004175
0,386595535491438
0,376183505042327
0,381616829819459
0,375606489934427
0,379602746079861
0,373145140028267
0,374960236067547
0,369372149428416
0,373298150043112
0,366344710028758
0,37265730529869
0,367919971719707
0,368418719663387
0,383983550829786
0,392741169897672
0,390327739311514
0,378710636026648
0,375522699695496
0,376396369301642
0,363088347645517
0,374690521442535
0,364670124963324
0,367660072109938
0,361726060658119
0,365729140489145
0,362192527016654
0,368571078278378
0,363548746486297
0,366069898325162
0,360653172864517
0,363605070164582
0,359865539500832
0,363405514768625
0,361602546974612
0,365288556657184
0,357483857589484
0,373333007763709
0,364691187667354
0,367976202092222
0,358117578349346
0,363030724103239
0,360541780144487
0,363122356633589
0,364114569910462
0,360448511645066
0,35648771886297
0,362519416354817
0,355955078600903
0,363856663259623
0,353657056886263
0,357109343102286
0,355757350018779
0,357257076857463
0,349586907089022
0,352135263378793
0,348084114930082
0,34588765878013
0,339861237210583
0,340220925604912
0,337975438394876
0,33831119938085
0,32890546718434
0,332088294736551
0,319384469098066
0,327169397584375
0,319993338614449
0,317996465940403
0,313180886279168
0,315088898776529
0,313896052663031
0,315016554038537
0,3079530536303
0,307030291258375
0,30466565356997
0,306662448145779
0,302360408530034
0,302002195183294
0,305450048611124
0,304095395698555
0,302960899492495
0,306535843339533
0,304538641687832
0,308188882807406
0,302597042721994
0,306299331406745
0,307681095901096
0,310021595231626
0,312289835443412
0,312304758477397
0,314986340637037
0,312423568235982
0,313961357190766
0,320172108496761
0,317389344631558
0,321652816833096
0,317301756668674
0,320829469915866
0,322190917971521
0,325330304498504
0,325047798956551
0,327875829927451
0,324351403119762
0,325434922514495
0,322779002121471
0,326386045439196
0,325360977108732
0,325448988957088
0,323189812931106
0,323809035751695
0,32176224699021
0,322550738452398
0,320175153317647
0,321210454861879
0,318666834674005
0,318238875786984
0,314046190629863
0,318739608988867
0,317212395060338
0,313413806867757
0,310084402142167
0,310960731282081
0,310048267795259
0,310474947156301
0,30786906832011
0,30766276836778
0,30401344798164
0,306530021742207
0,303535022153671
0,304433282326666
0,304345034486573
0,299996045275762
0,298592993322042
0,302467907094209
0,29632328131572
0,295014536819753
0,293591711781571
0,296282142834903
0,293710050105898
0,295995311955403
0,290726633379213
0,292407957202487
0,290666480917318
0,288071823389224
0,288790589242152
0,286743016478121
0,284149464509194
0,282566540035134
0,277910948757472
0,277248546175045
0,275980320726889
0,27197882511287
0,273743047933673
0,270742945534508
0,268356930274288
0,268041182656435
0,266592917612935
0,266051413067813
0,26419953069057
0,26427173279412
0,26267370397789
0,265702536916342
0,260972860053149
0,262146968943944
0,260193595896169
0,25862679479268
0,259340733322901
0,260324422763748
0,256146764207308
0,255240897931322
0,25299915660264
0,24845617981233
0,245110039438479
0,24308969453591
0,238869055196148
0,236384312032968
0,234744617194412
0,234808459612436
0,22802051309883
0,226881931018812
0,228152758634658
0,230976187766376
0,229043212016954
0,235749177123129
0,237799521670769
0,242205242454775
0,247431588253421
0,257476942156167
0,263252615203845
0,273333332835842
0,284571781798875
0,294116570722029
0,305565746858887
0,32198042455881
0,330770000782333
0,343486663133695
0,357683538350138
0,370224352448725
0,381181063877247
0,396884491600465
0,408665087963776
0,421618069214152
0,436880180551625
0,449982026505795
0,46113730425183
0,475282625916089
0,484686493267197
0,500091700316458
0,50917670268881
0,519748406484484
0,531660179914189
0,543004395928605
0,547660614419353
0,559510124595024
0,564932401667913
0,572607307515297
0,573220770655703
0,578969184522919
0,582947043299005
0,584672166315253
0,584942712663128
0,58905878522653
0,583595283138574
0,585126175666395
0,58707373820346
0,584561995178087
0,580564385114157
0,585970926952563
0,588138604511015
0,579590935401408
0,585320844538816
0,585507142793434
0,586759471209592
0,584592996550967
0,588219291734242
0,596322038727678
0,600128897091255
0,601788609171696
0,601176831059526
0,613518448232023
0,615725210872663
0,619225788948487
0,625284211754622
0,638184633479206
0,641264997550074
0,653885731678575
0,662496425220311
0,675523401541192
0,676139119321415
0,693333688015648
0,695457385711353
0,711609474333212
0,707858970459546
0,719856623339654
0,721138291852399
0,726638370086668
0,735259468597512
0,72996789145207
0,730769643174176
0,731571155726412
0,727777403435892
0,732228894978348
0,72637322522584
0,721136359997504
0,721249539481479
0,721968641585913
0,728936197194586
0,731095859553764
0,732127674163405
0,741012268259924
0,748782818617147
0,765066796363566
0,770575429526824
0,777859080144538
0,792186418046667
0,797866399357565
0,809209841696908
0,824976172845299
0,832400275933237
0,841661950739131
0,859266099510072
0,876185874097269
0,886549130831518
0,909134786073912
0,911369201432791
0,917353898050085
0,943505581555224
0,96117895642144
0,984363289769607
0,992280301079809
1,01236717285671
1,05272426760546
1,05809640374254
1,06515371322001
1,09647435500419
1,10531950142166
1,12273807934539
1,13392018995702
1,14627718432413
1,18436974236721
1,17177866768945
1,18115654655621
1,18202228172055
1,207809560979
1,2121723181457
1,23267574419251
1,22654284549164
1,22868027304682
1,23299554344643
1,22161322216921
1,24011407162672
1,25045279990578
1,23293661029911
1,22658069781409
1,23988487182252
1,25093084312196
1,2213300419939
1,23351920674176
1,24319477576438
1,26032440158059
1,26628270933817
1,24663879226508
1,26695448399187
1,26949927635207
1,27493793580666
1,28837562940618
1,31791394885366
1,34587509811771
1,34502883068532
1,33993326745699
1,35230125613645
1,3650953807619
1,38051624671741
1,43410796221748
1,41135055188768
1,44567227516591
1,43147047765743
1,45281991276349
1,46139334271903
1,48145782499691
1,4575902275117
1,48820192419676
1,48391416946792
1,54176146817138
1,50905870193807
1,53932635676504
1,54453445966182
1,55268032986049
1,50983452575379
1,59545911007345
1,58893051747641
1,6261290212284
1,5848172774891
1,63830719688705
1,66301069525169
1,57856547897975
1,63909890752688
1,61266848657691
1,63138565412164
1,54109830800562
1,62474914648676
1,60526591896219
1,61950505846448
1,57423000930773
1,50911162268468
1,50822255646042
1,47936783806157
1,44313578907654
1,4310995771451
1,37973977433951
1,32728160131744
1,23057022889195
1,22079724808178
1,17741772152803
1,14088718779288
1,08219782022473
1,07969546058073
1,0558887421782
1,01097258217323
1,00185086898111
0,986398266135598
0,982410378906014
0,959588595291008
0,958752571298621
0,95108021983804
0,937324736647881
0,925409774601291
0,909582524948862
0,903752518189175
0,875392351672361
0,860225252139704
0,838708936995304
0,831895024619164
0,799249522601245
0,790808838508353
0,763217062323424
0,739700729804035
0,717461290349509
0,701905966239898
0,667415250318738
0,637494728023912
0,614020530668806
0,589088278408754
0,556483989820245
0,532014192311471
0,501978197157127
0,474829060960431
0,450381869617742
0,428709200625258
0,40469674465436
0,389562139584653
0,370343709407064
0,352699390953721
0,338543275661819
0,326486352858782
0,310337553087644
0,300861085365272
0,293436714190933
0,281038971602237
0,277996842078942
0,269467697449764
0,261852964109292
0,262400997236324
0,256071317880289
0,255263084883072
0,250017777902941
0,249130097476959
0,251235098235356
0,24974981454294
0,250054303617683
0,248796290193458
0,250264158203695
0,258238719767183
0,251384056541228
0,254605951776356
0,258243371221934
0,261786343258947
0,258704946028222
0,260297395523066
0,259900472665755
0,261678689416073
0,259703857832481
0,259377234596291
0,253890846257406
0,255920487801324
0,254882422485229
0,250107415072245
0,251534147236619
0,250508087523019
0,241007964133924
0,250660217738683
0,246784367415264
0,246668966346425
0,248906014719118
0,251134875248215
0,24826187700673
0,25265429748208
0,253588196817669
0,255660615624707
0,260261573181202
0,260991453211901
0,261910736992285
0,264267549752563
0,264369747043825
0,266850445969984
0,266991440997657
0,269591848916623
0,270655034437814
0,276910980053449
0,274260218089532
0,277522435632765
0,270674753156648
0,278984443923717
0,275542879161263
0,278297499041134
0,276139879426935
0,276975205503221
0,281134507252029
0,280897168510209
0,284086161323661
0,285421971653235
0,284286841521259
0,291054206595349
0,29461391728179
0,307033750200125
0,306584689080075
0,320572602058674
0,329657586498196
0,340805427063336
0,346729040731268
0,356942957430638
0,363247615534297
0,375434006872951
0,373650483062453
0,377121952168251
0,371569502395002
0,376159185788768
0,3712843404582
0,364219075480144
0,359114081501014
0,356632028419149
0,343246981901367
0,34467052895413
0,333592104677565
0,335952040274526
0,331576219385119
0,328824552577147
0,321988017538416
0,327211928963543
0,324284945397203
0,324714546703361
0,327431842208309
0,325324376643331
0,327030026188308
0,332423283879581
0,320906278002265
0,316990600834745
0,323679948233107
0,31600329762138
0,308110048109558
0,312899720829861
0,308634946504502
0,308098746835298
0,3039970736183
0,303080414700304
0,293280334405194
0,292419359505221
0,286137836618644
0,289313414233463
0,289842365703916
0,286240723804931
0,290220075603446
0,28777829330929
0,278742726375522
0,281624256572987
0,271847805760084
0,274444378333658
0,276684070160623
0,268658656874677
0,268615006773656
0,268267598086733
0,265786725438968
0,272306940393736
0,263473942369096
0,266620967362367
0,261269575965117
0,271417395763967
0,245159650575043
0,254215997435077
0,25600567803186
0,247665970117561
0,255054991498323
0,24816011858532
0,243688565617205
0,249334811456425
0,24323917337834
0,245436740322864
0,245877764440364
0,241974248386783
0,23549026972376
0,238430935965007
0,233721829607998
0,244569238208739
0,24094981347746
0,240767907101261
0,237225706248618
0,230524859004561
0,233502220921483
0,249003048802016
0,239343415652036
0,236237440424434
0,245491004267982
0,248445527194028
0,234814349413038
0,2415258655397
0,250986346065482
0,249878555280563
0,24566862142671
0,261366965491443
0,248999652055377
0,25656708735076
0,257002096280896
0,257988331208223
0,256169120363573
0,267098378711335
0,276594277976564
0,28075011014026
0,258923626572244
0,283485607057944
0,277189568250421
0,287089945555657
0,288494144409619
0,286691836949719
0,284284940921009
0,305650804643075
0,313624514678979
0,311125658279167
0,326564784039057
0,340762276566339
0,340218370852364
0,366057662874304
0,367843008353328
0,380965564536565
0,385743883584021
0,396303785130154
0,423294616636624
0,438946089666765
0,414848943474252
0,438582689355371
0,452250626221129
0,464255537658939
0,45453887005714
0,461802360854023
0,467392031570335
0,456888684627444
0,448811492372908
0,435534471925489
0,454422176029464
0,459224798777894
0,444036641840567
0,44068661335679
0,450127239482427
0,44857373185453
0,43250681229887
0,450278500120348
0,437778917606686
0,448575699331255
0,441488813938681
0,432599501434355
0,432706498439557
0,418749389723481
0,401019674475295
0,435062280443564
0,401130002380562
0,415740461761013
0,419080331244171
0,396934478021391
0,387387291060988
0,406156343423867
0,40293949473544
0,380530919285493
0,37994054286196
0,401815476225084
0,384071456903308
0,374983980075262
0,364948005887846
0,387611853764495
0,388045269756322
0,392004659599666
0,368998824146915
0,371368945315675
0,384220537725364
0,366458107429928
0,358696016430164
0,398550991932182
0,387304056783378
0,413897759640455
0,389600095462557
0,388238303729797
0,400402216790051
0,390621585404289
0,372795982380624
0,385703427636773
0,406538975999521
0,389729740356794
0,385793403672646
0,407135933064061
0,40100077697953
0,390184992994862
0,374304779350035
0,375280109362211
0,407077911842142
0,426094105663185
0,43486559406956
0,446300463588513
0,439158511902912
0,445632662980275
0,436127870442931
0,438731112645239
0,44144415329807
0,460425912065952
0,439425830757302
0,468319326226814
0,445794004144148
0,452236286273827
0,498341377394786
0,502461095588324
0,500244813449546
0,538807710716863
0,506698986078629
0,505982429360145
0,553812838315337
0,581173241370775
0,476584892741376
0,511197249495973
0,538354908420666
0,614527437159147
0,552795321613151
0,525342041991459
0,574197006365991
0,651648192993772
0,568692160186321
0,583925896891857
0,533068679187691
0,545609607120366
0,534862813392559
0,512357179492118
0,49372507003947
0,536772729850959
0,545612711371553
0,538348630013923
0,506580021538908
0,523642443587095
0,505292215132671
0,483183627385927
0,480902163894555
0,531026193504461
0,532511278427715
0,484525579269505
0,563990482813102
0,584077230394723
0,541437590858398
0,538031266815508
0,438259513343254
0,53363657192977
0,604712932780765
0,450223185069626
0,441586357231193
0,537524000804114
0,502337407532159
0,463598483407384
0,569464557055809
0,666508339534659
0,529406770122812
0,543802472629828
0,677756536657852
0,996598275795717
0,518379567195179
0,445116791741047
0,667273712505319
0,544648207718461
0,377393616426779
0,499124284118451
0,508939973769451
0,534429306984589
0,438029655037454
0,545684376049111
0,537580770358241
0,548553514453798
0,361408591800977
0,586827555630916
0,734512434683213
0,573547418218683
0,923384049412557
1,11569544725814
0,61119369377728
