3596
4000,36533379555
650,420452594757
1
2
2
0,0675254983396192
0,0729270386492559
0,0647427717279177
0,0743364112517052
0,0629368128355202
0,0723587728159135
0,0703706489511182
0,0774190986974365
0,0646294877228553
0,0779179683079149
0,071389479057732
0,0753671616713182
0,064934348729635
0,0690683245383487
0,0685125268032607
0,0671897034942844
0,0667598536806916
0,0803786923232745
0,0672846161016907
0,0722358480049508
0,0652579525540249
0,0740049300588176
0,066839452632845
0,065764250420426
0,066890611882394
0,0705544962773857
0,0642501439029139
0,0762256261052803
0,0740071754062849
0,0737448424293818
0,0591969057563381
0,0698949663200789
0,0741830502794006
0,0809517977040211
0,0629504110519076
0,0784874008174317
0,0661141611652785
0,0704022821735553
0,0690605754212207
0,0804994403484024
0,0769760289737055
0,0810791123994695
0,0640478608038828
0,0748204342663291
0,0753852602874108
0,0790699716760898
0,0675800648453456
0,0740077177229021
0,0653949183277807
0,0742908769226409
0,06802899026309
0,0729196179950544
0,0681313443855292
0,0883827436463245
0,0737228948512013
0,10291280119554
0,0764779249802928
0,0720962565988069
0,0661054366997035
0,0860705823031203
0,0797925853333037
0,093551560131528
0,0708024598349666
0,0720406413093645
0,0688241420734646
0,0720692416598027
0,0632342751948417
0,061906793596627
0,067839672846732
0,0784095243332492
0,0639187454120997
0,0965478615165847
0,0950652507713858
0,0813350843654702
0,0755295422921211
0,0833798716111903
0,0664695789446392
0,0695467367427064
0,0646401496326007
0,0873617447888111
0,0880448978643786
0,0812836762614854
0,0655987982835642
0,0633105192363505
0,0738403918297066
0,0935259868139953
0,0698199126627831
0,0779964383457757
0,0991087633674645
0,0863236684789746
0,0697154212063825
0,0654738183638824
0,066707425406971
0,0648112942345227
0,0647731360060994
0,0656583882618374
0,0598157244191882
0,0636483289774364
0,0662569969934073
0,0693323445341245
0,0845169021534488
0,109998627454541
0,105338828719419
0,101762305179975
0,095249402312398
0,107049572756155
0,0639420326405983
0,122833720971292
0,0943452561206335
0,0804474303061782
0,0714655369577989
0,0697657873830106
0,0759375008656054
0,0768479104094582
0,0671162971650435
0,0926661888483003
0,107045083760194
0,0778263975561606
0,0655509802874536
0,0684132094476972
0,053410321631528
0,0991384380418355
0,113041509593528
0,0859176662326936
0,0807118484026059
0,0737091054324051
0,0692746366823661
0,119926096967508
0,111975390127138
0,0800307221603846
0,0667176677497892
0,07212281624033
0,0477975045769896
0,0784506217206997
0,115189393891091
0,104170203422038
0,0696833003566841
0,0742452131703982
0,0834816260102658
0,138913063760792
0,0940847475775547
0,079156894042133
0,0596325418422173
0,0825148435117709
0,117074531775199
0,0979971713380816
0,0679077034066571
0,0944143964621623
0,0844865785138866
0,0728557846770203
0,0578883179301243
0,0765520471664971
0,0757694329406705
0,0741082548163937
0,0439057407685976
0,0914350210824235
0,151470603869828
0,139782533982496
0,11743511273051
0,102475967196977
0,0647549966295768
0,0835395672910849
0,0605007250324237
0,0769970488826824
0,0583243108250446
0,0727787384454476
0,0765327067074166
0,106543620273752
0,0619064781905107
0,0940187333162302
0,10727457401519
0,0999432800232503
0,0793114325158889
0,145345699194466
0,105737094437143
0,0752698142589636
0,101088122747257
0,0914664783077618
0,0607523524005149
0,0884860372694196
0,0939123564977562
0,0820031924370675
0,061976920694348
0,0694629311499817
0,0705292629731439
0,0958919869642798
0,0708372575953907
0,0807165962210736
0,068288366200756
0,0698590606734026
0,0742231486081288
0,156638809863752
0,108548874936192
0,0974865175418901
0,0545195797796165
0,0603668682945885
0,0879085577386533
0,128163225579288
0,0715264546016119
0,0700216455875558
0,0508549387593618
0,0609781050752691
0,0554470082631542
0,06481534112269
0,0416555044010241
0,0642626750395243
0,103615172714015
0,110831980848991
0,0625283883679041
0,077729634543266
0,0534560059751615
0,0794380746335753
0,110995951062828
0,121692854975838
0,0669490279892505
0,0735613444818237
0,0696824119810581
0,101318412829375
0,0861062290760143
0,0807423772809755
0,0688044754527003
0,0739311927556125
0,054656344903427
0,069047160090702
0,0585469162457815
0,0710217866703552
0,0559036489419841
0,0702476194494603
0,0534660710705675
0,0751465885349179
0,0722701229751448
0,0820500407041413
0,0637967184965062
0,0670407096588454
0,0526920304491702
0,0904330575212439
0,0891108684446904
0,0807452402247431
0,0583111844979108
0,0737953027433154
0,0541046156033113
0,0754322024790495
0,0582329617772331
0,0704510718249736
0,0501042785014738
0,0778514537863112
0,0873415073608445
0,106791116324818
0,0564084907381284
0,0839340461909707
0,0723607215575302
0,0997353128452952
0,0557303663379663
0,0766952807009874
0,053486441140464
0,0645228237421491
0,0639263190130636
0,12663840262385
0,0736766441188966
0,0759454653179267
0,0785924576095488
0,0864503266537428
0,0616247364556052
0,0643708053844008
0,0619746810936014
0,150924962532673
0,0863200935259187
0,0910657167884095
0,12133884224996
0,122673979501213
0,0735702806480532
0,0647681356737163
0,0440472265909629
0,192817427498506
0,149258097168865
0,0912185771012784
0,0738691768706134
0,0872718438580156
0,0704489453478086
0,0799426992298077
0,082090374084397
0,0940184899478635
0,104500516586105
0,1812780859906
0,10909757898583
0,0972857927752691
0,0823138902715123
0,117813372641243
0,0700531106223844
0,0784137277625929
0,0569312792153644
0,0771541643597221
0,0719747482507101
0,104827883312083
0,080797096132559
0,0831121310460429
0,0794295641501729
0,102345088832372
0,0825207678640651
0,0734819696398501
0,0748288329615577
0,0804288817837545
0,0703011688279754
0,0638563150984525
0,0671509257457719
0,0842885858578974
0,056349413774589
0,0869690023675138
0,126943693154799
0,101119815125413
0,0833590251682496
0,117817610021352
0,0825432673868795
0,070522944658996
0,0644740910128651
0,0664260049081139
0,0621082866231779
0,0673672018576997
0,0561565841659133
0,0972068365193902
0,0770504957732437
0,0673920784186404
0,0594234295633677
0,0682432151472791
0,0598421694560536
0,0745496895737713
0,056061273435929
0,0751184317250669
0,0565661087838523
0,062223619336447
0,093059642219262
0,113436211242914
0,0724922977210436
0,120974531573322
0,100352383675672
0,0906511474440117
0,064794981941514
0,0743325003793816
0,0608981147205217
0,0708347840116083
0,0643060649027426
0,0706651874927742
0,0719290223174726
0,101296550662685
0,0687134161276089
0,0842253108682539
0,0710572409662505
0,178530165084071
0,13784151450748
0,111491779963002
0,0640937557466779
0,0761834119067417
0,0929027466045728
0,130219264171908
0,110614195277495
0,115796734133249
0,0815841854681026
0,075302329441477
0,0730535002223188
0,0741360929391165
0,0698435118137323
0,0735239093140452
0,072625424847195
0,0750593946275076
0,068847416609413
0,0803334634749322
0,0590907258134212
0,0854564720110935
0,113501536809022
0,101966252878677
0,0772137943402294
0,0762476491844417
0,0745195296874969
0,113061885667067
0,125756226934412
0,166590514276692
0,112737279366391
0,164148221565352
0,132865980121677
0,115156723045852
0,0774683279748228
0,0890011166185395
0,0828623447410224
0,103723867127937
0,0817945885923908
0,0946656706355753
0,0666322698984972
0,0952658075143679
0,0804485606022973
0,0923737834587605
0,0731966686035599
0,104288451359495
0,100432385285344
0,105316803707666
0,0805368575316125
0,101184832273027
0,0888493687827
0,193566384067227
0,148892283801331
0,124507020075064
0,105624371357093
0,101529381419666
0,081708200231789
0,0995563822492432
0,090157714684583
0,113183728203578
0,103254238136558
0,153404389376727
0,126169376878339
0,144074558419379
0,119485030897033
0,12149957184439
0,122715759970826
0,122514700165183
0,132172443580236
0,167028116306741
0,107666038441829
0,116504385914351
0,143766255768197
0,145822123747174
0,135093611955259
0,146591733550674
0,112979792402194
0,128309458970235
0,113988616216312
0,138895817654155
0,114176760323287
0,155852709535774
0,127504070413686
0,13792543602987
0,126386390302826
0,136751622472791
0,122253764466207
0,167066124953986
0,123418206459351
0,157911085600667
0,137014932422744
0,151931057035831
0,118749636067109
0,131392346409264
0,150681540445126
0,178231385858134
0,182053163708836
0,192002040367619
0,144915915125071
0,145834110276207
0,137250731331718
0,146135250956434
0,139838177900682
0,171765645784247
0,157826310049892
0,160529047605378
0,14772296151032
0,171601549591002
0,15481587648138
0,161842253207387
0,142238586081736
0,173365222760533
0,149903433497825
0,179462664726367
0,166795115664194
0,187112764442686
0,193624922961322
0,214425254143186
0,218508148081563
0,229575926785337
0,182645114620668
0,194543644022617
0,183114563438469
0,190648887571352
0,184767824220496
0,208846861622725
0,188884439596958
0,206440760979345
0,192389996788666
0,2005765371214
0,1861208491284
0,215288390571942
0,196783694392155
0,228609996015641
0,209184717181958
0,229499726177224
0,205849073642294
0,222413589619683
0,218101734047991
0,240272000428045
0,213336388095857
0,259367737543744
0,227165310675241
0,251450233191849
0,222314083419935
0,238997143545947
0,224768867612502
0,250157764419483
0,216386607904395
0,25017258891194
0,246959019803488
0,257273670087175
0,226310888031644
0,259055384715186
0,248012339537891
0,269147001817675
0,238979589314118
0,262948010943495
0,254502716514745
0,278774461716882
0,254022979523968
0,286282007645582
0,273310192796433
0,288615550675373
0,266805502248864
0,298513982153686
0,27048739913544
0,295048982197194
0,261503327837449
0,29632480824932
0,278983546919466
0,307579063011147
0,268225372810675
0,313173169379758
0,270534446390391
0,316053829458185
0,292005222861981
0,320769912298979
0,292134975932813
0,339863206600281
0,308791701685596
0,324626326066852
0,292715835431441
0,342710527027324
0,312311446161492
0,330487064040112
0,31903845181742
0,345003651573999
0,324035846813453
0,337933840425086
0,321226647389556
0,343233772408835
0,330045541524436
0,363406797777081
0,333334786875964
0,366391312595343
0,338089236552191
0,367744908298585
0,348198013541622
0,36063323201691
0,351762350633334
0,36928498504802
0,34532151783091
0,3624070432379
0,362822109899949
0,383325824389869
0,359254045572371
0,387376456532689
0,378808138865426
0,391482054509397
0,363412066257855
0,399760526009581
0,384510399577655
0,395244535452293
0,375556819753081
0,411183524787882
0,382345720381896
0,427228060873277
0,377896085305042
0,423822236053664
0,399808631456202
0,430756925346768
0,392295814588255
0,420073964906621
0,400505574035239
0,436345364594298
0,403749861959467
0,434548037081753
0,42639067211284
0,454130413658328
0,434619907121087
0,450878174885925
0,413602267472886
0,450443803317162
0,444438342223394
0,466146419115247
0,443464609736707
0,460290308850469
0,439884632337137
0,467143531806894
0,437739200952957
0,471812547282853
0,433673382205935
0,49739996357978
0,468226101618053
0,480627079969162
0,459724361272041
0,495419010778434
0,468296476393842
0,486974378101747
0,461918031645909
0,495916847284469
0,455021319869578
0,496266344601441
0,467070161005604
0,487135207601951
0,467162743656026
0,514150263645538
0,478553854094036
0,526772821300746
0,471242008679744
0,537416126812724
0,491654173280341
0,510996434142697
0,487253717647546
0,527877740382891
0,49673986119143
0,540770149863364
0,511093301079412
0,547832412274038
0,492135680266147
0,536536257536307
0,499587939989296
0,514984938675808
0,509428572071563
0,553810676265469
0,508903955555682
0,54898873077973
0,511019069202095
0,5580594426668
0,510721372776455
0,542032262956831
0,513227279338774
0,54624417847792
0,523124390780785
0,538847409835521
0,505987167765898
0,572153840291321
0,530800428076586
0,551791603852564
0,538268411921695
0,560370002996909
0,548127796491017
0,577437238893396
0,536960542186627
0,583395382186517
0,540115651247869
0,578186855318149
0,542740812731469
0,592917377899526
0,546998814153671
0,603829818449428
0,550632674742383
0,586832839941711
0,589180004884255
0,593145398311231
0,545499158171498
0,594536227180619
0,577378100850745
0,608628645103517
0,571653419138867
0,602969675681407
0,573384335589402
0,611318966413012
0,588551642329135
0,603147129771079
0,569395769757817
0,602613414714759
0,563888759351393
0,611591112322101
0,587838601976506
0,615679370841568
0,587038316288181
0,609419029504105
0,587238471365329
0,628607389647884
0,605125912114717
0,598819615829263
0,574104429375844
0,601665437463211
0,597584824352059
0,614755423479885
0,604642145343071
0,650389980853038
0,597580799237079
0,625213268380376
0,585149680405595
0,612327255961421
0,592576486636359
0,632371694782131
0,602794248805889
0,640639084259262
0,586373836870332
0,632722266160849
0,607685232249924
0,638046258072782
0,587130200453009
0,633542484273935
0,631418545658368
0,628902347711887
0,610750999883352
0,648442291239108
0,609619971263057
0,634884192362332
0,587300943590725
0,648642645220724
0,608043241265249
0,624298733585914
0,601598410607495
0,643552125488225
0,600792004848864
0,648693156751571
0,587260287428023
0,634369427685129
0,60914408921507
0,623157615896018
0,622526466816578
0,644458736995023
0,61367189364259
0,651973046113678
0,608837861959768
0,638462326374792
0,606560816622766
0,637431090806191
0,620274497143036
0,653254041318099
0,620029149698808
0,63032640104996
0,605036083107127
0,62465202105186
0,601212598300894
0,650707207153754
0,61520592204129
0,633254683977678
0,614145107619237
0,645996689041908
0,622339899327277
0,649394413105179
0,599795093333737
0,641225089829963
0,617114845485971
0,624831402503669
0,621903963033486
0,647710796843775
0,609422017173873
0,624851136532801
0,624742231599019
0,620820861733214
0,596246680960841
0,615168001068284
0,613284135350299
0,634424352788746
0,60305866878575
0,638352054534381
0,606857996804121
0,631664907950689
0,605317094422189
0,621101531497792
0,602216761348725
0,632994826356178
0,611458277187564
0,632282449289202
0,605385037879058
0,628558045395577
0,613421778308738
0,598131245433378
0,623100997597645
0,629110264402886
0,593155953478427
0,615407503670195
0,593319701938288
0,600470461948076
0,598954825102869
0,616091961846691
0,589126892841563
0,62163216820732
0,589749373933599
0,626146564431238
0,595311417302591
0,600856184026766
0,596369330803101
0,59536954940657
0,581991201255775
0,606165002283335
0,594695367134517
0,609580991115138
0,599937345734641
0,607175917239636
0,595005868757478
0,616611196535148
0,583098053360992
0,608633921443581
0,570672912174689
0,588383614873726
0,578899697269311
0,603290985042631
0,589629291758976
0,591526484245367
0,578828860121387
0,593764921983167
0,569825886669739
0,58213448259696
0,5764862153347
0,570854864848537
0,582668079574793
0,568276554931752
0,559223480729583
0,578067218673761
0,568818365939212
0,578598841755961
0,556763399052111
0,561581987588564
0,552873037184408
0,563973230841895
0,538860567713651
0,569072143143089
0,549092861293753
0,555503080849359
0,538793938346667
0,561408078222114
0,546390078946513
0,571969502650118
0,53046328195301
0,560400576682497
0,536287997495834
0,540852021615062
0,542437410486809
0,553387408150863
0,528009120974592
0,549187836985636
0,526067745598105
0,523011043818394
0,519107396627816
0,529542364973114
0,526077986301388
0,532584148602237
0,510925609971878
0,52920521453328
0,51406137401127
0,520166937632102
0,506648437250649
0,525747614515634
0,501596169905872
0,503173228820205
0,500488580238447
0,513163648824552
0,506589061884422
0,522499730769563
0,499195735796517
0,497210374836176
0,485972040677531
0,510283157800241
0,489158422287256
0,507170595072947
0,476791124638601
0,489239357857779
0,48577981197165
0,500676265594708
0,469670807943263
0,473174481240462
0,46982972947258
0,478010165833572
0,459852138805203
0,480987519258097
0,458332051381606
0,467361347981364
0,452917577291758
0,4644864794496
0,448747118101397
0,459916172361779
0,440308589232147
0,445989701443465
0,439671977357585
0,458444703914276
0,440719581463718
0,448089358457193
0,424876299665122
0,453721155090413
0,43056532137195
0,442551887390028
0,424055275177482
0,432974172020753
0,433192898337518
0,426736610925866
0,414232746577239
0,435816337549098
0,411987536567097
0,423812144603669
0,412926227412521
0,417256488882885
0,407867380737465
0,411790998642224
0,400126505058281
0,411093567594313
0,400550806033538
0,41309955829359
0,393197604455859
0,406856653177638
0,397113265961575
0,391909070988585
0,388916698874718
0,394900723313751
0,370061436953638
0,3934828709882
0,380611785723358
0,39460873889718
0,373696486775371
0,375730859413534
0,362468159181213
0,38137904258678
0,363068378467205
0,359802682762197
0,360777630974851
0,367443302947517
0,354567410045904
0,368436347653255
0,344461660130501
0,354595011288555
0,349344505001578
0,35549574886556
0,338083498547734
0,353823208382306
0,330272633382326
0,343990061090741
0,337972123943933
0,347207938874968
0,334286769548294
0,333726401956733
0,324507128578828
0,330618235396842
0,318862239723674
0,330105209037654
0,316560218869542
0,326786023765826
0,318580923230503
0,3215432651451
0,313533765143714
0,325454446435241
0,310303666557894
0,317838535531015
0,306079606814185
0,314301002069212
0,30431375154283
0,302866615851748
0,296750252554206
0,308207432312096
0,28239945493506
0,297297784031852
0,290777258140991
0,305354490608652
0,282193557692703
0,293291029336921
0,283824698004785
0,292861273866238
0,282141714484124
0,285983075495562
0,279365364625506
0,291985457593207
0,27541340769738
0,284411558927337
0,270901852748216
0,281924342963769
0,272361490449136
0,269629878940255
0,261958887797329
0,273020006305538
0,259262332724514
0,266675524179424
0,255600971521626
0,262577719218378
0,253900317201587
0,257505310219767
0,250216790558923
0,259093848563939
0,251069846175419
0,258985502892761
0,243392776048538
0,248637331233269
0,244877671047073
0,246542163049842
0,234712256327979
0,251550414599721
0,232327833671795
0,241442400131862
0,234208794829557
0,236046294680135
0,226877684210056
0,241877640680965
0,22800229617889
0,233675264768202
0,225165321964245
0,229313941879798
0,222340326755663
0,232893384865487
0,221310270948037
0,226427482494963
0,219802758943208
0,2231910583384
0,215443468010507
0,215293514752861
0,209390259439206
0,215687875102503
0,213256404504416
0,217417087523614
0,207868279225665
0,208698979413937
0,203899548500455
0,213195087039703
0,206823919959994
0,206149277422787
0,202109299788234
0,204531041601054
0,198579692113984
0,203824151292967
0,194694710756964
0,202156470927382
0,199494848447748
0,199246617281632
0,195080315499938
0,197474186351001
0,193549926887016
0,195372954278629
0,190672949593499
0,195257833424134
0,181050786840623
0,191679834909959
0,18569411122736
0,191422678502773
0,182585598052485
0,187779940431075
0,17719116704934
0,181838438697802
0,180054937907601
0,178934049007715
0,172643995950039
0,179079028380084
0,174172608927525
0,180855137315303
0,174238027231086
0,180418228866169
0,172452850382559
0,174961021989579
0,172298240245443
0,175376437616937
0,166524987667248
0,168498496085478
0,158453495105912
0,168238951513908
0,166856458332321
0,168245719004423
0,161582917938606
0,166568682872824
0,155755715340378
0,164383929651382
0,158784715399803
0,162861072424905
0,158530404510193
0,156648952195435
0,154044717762619
0,161277765400458
0,152123206890274
0,159269325786438
0,154192753668465
0,159510697561322
0,150791803745115
0,157835251295225
0,150625326480859
0,154618460245988
0,153650791009493
0,158356106607672
0,150845461831198
0,156074532915703
0,146757731103777
0,155480754063961
0,150723617276906
0,151074362251872
0,144437600636589
0,153111832454295
0,151680942811001
0,15192971698504
0,147568601142699
0,150753435050073
0,147472245921865
0,156851999068405
0,145520907885179
0,153645704280234
0,153298601360615
0,156969474564103
0,1492314529517
0,155617942937528
0,149515984697515
0,152680123993161
0,153043111366668
0,158063039053381
0,145405889602011
0,1590653066508
0,157986598690532
0,167431947959412
0,159364081458046
0,160457062701886
0,157739304971092
0,160585707923788
0,15604574139636
0,160821561650595
0,159236047553745
0,170604693103249
0,165023019721024
0,16669607981583
0,16514765106286
0,171465862926942
0,162513971587623
0,167508930536215
0,170174069863493
0,174873406987897
0,164903806895675
0,181923421108564
0,174571580869055
0,175912830592887
0,172187063066364
0,182575102804203
0,177900699919357
0,178900682205912
0,174374506616563
0,188450522032362
0,180744075973226
0,188765621586307
0,187875487171557
0,194433864383785
0,189303671756025
0,199846088116242
0,19511663244233
0,198084884655667
0,19456686204037
0,201211950971973
0,207364424986815
0,208783253600303
0,195517332537433
0,208537033586352
0,208246822931156
0,214184882545062
0,212730113954833
0,222381448593219
0,209668059063194
0,226353771003146
0,222233350843538
0,223260290858164
0,222443905959325
0,23335001316241
0,225572522734927
0,231949518783427
0,223349686604173
0,227410323498159
0,227364548525745
0,23539557032152
0,232462288308496
0,235318155400436
0,226250003065058
0,234652501891128
0,225209423701073
0,234527798700362
0,228189576734448
0,231243969871854
0,224891748710043
0,228334605398427
0,224954928384445
0,228863764253317
0,224268950175237
0,233770435371214
0,222948247060098
0,228942648560833
0,221222702919419
0,232492972362437
0,225128705461509
0,224510524426333
0,224344301361716
0,226494368760215
0,22804572523831
0,226798544316937
0,219950248172758
0,232300192327447
0,223837299192396
0,228290233838293
0,220943657002729
0,226490622053327
0,223200391387478
0,224772397769062
0,225253866264094
0,226233561497091
0,22073005697492
0,228054610387461
0,22032169127259
0,228528096978333
0,223082706311161
0,224133776290941
0,223649479774633
0,230939669761301
0,225364022776565
0,227963113405023
0,220553510950627
0,220842949029435
0,222087582667835
0,223138289691508
0,216400865546044
0,220021690578034
0,210687219875015
0,218528760663551
0,21030779275035
0,217190018835889
0,210070863514033
0,211359010842626
0,212724461869685
0,211666505877875
0,208054763653283
0,206847820568324
0,203270473844583
0,212447849481509
0,202832426416885
0,205921053395198
0,200233446354476
0,202795333038517
0,19571131161296
0,197418590110392
0,194887946473239
0,192870783238674
0,186047798883477
0,189569611522284
0,18631950050642
0,187171363172863
0,182574670869187
0,184453839618821
0,176802713852017
0,178234704842254
0,173998528478963
0,176185378776925
0,173386893045085
0,171762049471514
0,168418916180859
0,1700937073503
0,166870612141472
0,170143378714888
0,162855783816044
0,161396135692444
0,157153399550474
0,16134847550272
0,155701688942147
0,164025779348977
0,156325124783303
0,157740462838439
0,153974226384216
0,153640708418039
0,151610101607706
0,157668329754982
0,153264734874445
0,149793752854946
0,148652873079253
0,151634821686509
0,146893425448416
0,14869581589325
0,142026508436363
0,149642638289995
0,144186580787096
0,144289139907043
0,14518976027351
0,139955561396243
0,13624744628998
0,143219076785981
0,142717719596129
0,14238172597305
0,136883825530191
0,138335072685151
0,136873182855706
0,135068303005766
0,130282415336216
0,138854963106692
0,131196042080459
0,135224496811041
0,133239438813287
0,134609702946233
0,128187131499909
0,130436947262385
0,124589925182516
0,128121751981851
0,127906069647695
0,123657886840885
0,124737225306465
0,127205731208396
0,123525666894334
0,126614864965194
0,125069638710457
0,124575598660671
0,120497640040735
0,123160284845432
0,121860669822105
0,117858732997407
0,117640446617694
0,12289638620604
0,117104905823745
0,119828525194591
0,116438027942786
0,117060051159839
0,118359873716029
0,118890452049962
0,114711946971946
0,116766547386084
0,115431158495
0,113787238521999
0,112800891549155
0,113386048824474
0,11433222529037
0,112711492406429
0,112907194055068
0,111978920395055
0,111835683643233
0,114430683685245
0,112885105705321
0,114236155900462
0,112903416085512
0,113591453724408
0,114851628879871
0,111172812053888
0,109052713958586
0,111527513251928
0,108161085066756
0,111209153076194
0,108823698252004
0,108622178916006
0,109422177653286
0,111991396440352
0,109656258827092
0,110555453202007
0,109623416775433
0,109912836222565
0,108205897034337
0,109070014426566
0,104633438888241
0,105272863305583
0,105182386832906
0,107892807562237
0,103292833413186
0,104766595250686
0,104406108429186
0,104754530741741
0,102261826364606
0,106116511925047
0,104445995849148
0,103304361017329
0,100147501050941
0,103171496071708
0,0997613790664819
0,10365642844498
0,10158386986312
0,102487430191849
0,0991767760198001
0,100345590258282
0,0979718439759372
0,0997288102425864
0,0996601676075558
0,0996033213141954
0,0994417322242192
0,103163690017415
0,0990557987660959
0,0991444888783999
0,0971711504567787
0,100090875120162
0,0995204819873357
0,0987292402349401
0,0969095494674261
0,0998660667909216
0,0975271453338879
0,0996481517187819
0,0979469557247808
0,100011479970925
0,0979563781114236
0,0996370871143179
0,0980479704940306
0,0977229840549884
0,0966542246847149
0,0980444344339708
0,0966928225496682
0,0968526126100104
0,0959618514731421
0,0984632844260216
0,0979209647112317
0,0978854203567422
0,0967919447104615
0,0967658457240168
0,095203876033418
0,0994699168491613
0,0977707397995891
0,0962035729467792
0,0954910439427503
0,0964992020145218
0,0942529819249423
0,0924199920254738
0,0903720443463226
0,098149026811309
0,0962861984129171
0,0955435644873235
0,0924096473443632
0,0950373146714216
0,0914354116248566
0,0943657696726525
0,0898085293077915
0,0927907289768083
0,0904421404904608
0,090228505799823
0,0911194124966383
0,090040644509791
0,090427200957519
0,0932331745025366
0,0855714935137542
0,0890361873513525
0,0874646154598282
0,0890715288647257
0,0859550505205434
0,0882440521441958
0,0873480031420988
0,0858378191949997
0,0874497288252838
0,0867991647932275
0,0902486335679577
0,0898669505698095
0,0855909140567406
0,087614190725711
0,0876333651145773
0,0858689485422814
0,0808845734214002
0,0864975843583341
0,0824773295877025
0,086144709631309
0,0857655426264059
0,0865964899036585
0,0837299610497923
0,0854156529904217
0,08296921235524
0,0827489976041258
0,0834787069994628
0,0841159117219926
0,083345381876996
0,0830978016222717
0,0850779485485708
0,0809268029828628
0,0817113140274211
0,0824888407873307
0,0800923924222531
0,086892328517953
0,0813237965529336
0,083178586217884
0,0785791981573644
0,0828998075332899
0,078016577939556
0,0780397227901992
0,0754395778627073
0,0799306065256798
0,0814363544731687
0,0796445686221092
0,0773762667527658
0,0765348850580757
0,0769367262674574
0,0761297076626519
0,0767865409224445
0,0756780103956693
0,0761766354061585
0,0786246204785641
0,0732450433262107
0,0740954594896503
0,0728123010834415
0,0744057650988119
0,073668751957813
0,0741458212942903
0,0686638014757213
0,0725495560610655
0,0676598568886572
0,0708952636902987
0,0699728181429845
0,0733511337643015
0,0720382825315264
0,072357666363032
0,0671254684325161
0,0701965313753645
0,0676915782423128
0,0694092314532433
0,0714339226955446
0,0681547362226841
0,0694798181048584
0,0683060609391983
0,0644837305884313
0,0691944989927828
0,0694345051938495
0,0675946917575062
0,0669504668260845
0,0707916819463909
0,0695264426608542
0,0664671832854104
0,0652128581673754
0,0657686412571352
0,065235406942961
0,0672551734716066
0,0666622332831146
0,0674961005858966
0,0657631720070455
0,065722035486813
0,0659032781324442
0,0671831114964096
0,0663611814743416
0,0644264815408833
0,0631483412804183
0,0671278913297602
0,0648760182461925
0,066874978663259
0,0639981085338096
0,0641031840336149
0,0645025974653373
0,0656102983054332
0,0633401695672232
0,0616679618526298
0,0628399901995983
0,0637795451812278
0,061471811207056
0,063396762185603
0,0632022154774898
0,0624847223606182
0,0618048165734157
0,063576691236127
0,0594461588353304
0,060056072100392
0,0577078391132421
0,056874169754761
0,0600794544238917
0,0588982727438829
0,0607684588021498
0,0616946175786108
0,0585651337427607
0,0591677027732838
0,0581086786343512
0,0605755235807425
0,057939493052504
0,0617017129744016
0,0619168204302471
0,0565864450890111
0,0550520495036695
0,05911786896417
0,0596098689944471
0,0606193796734478
0,0578574937392377
0,0579687296889563
0,0582710886243605
0,0565320518474065
0,0564887150210807
0,0587797545649788
0,0589185255780145
0,0582935157142603
0,0552217154204291
0,0558601555953064
0,0590558425052553
0,0602158904710121
0,0577810296255536
0,0600664055275175
0,0559962396148651
0,0562682344474014
0,058320359053439
0,0594768958332862
0,0554498478564786
0,0584827160767318
0,0584660872553489
0,0570140212380375
0,0610684797091657
0,0603072889508913
0,0563978549585813
0,056649556782664
0,0573702240056976
0,0575475410246921
0,0571575499223813
0,0570421448877207
0,0549940537005603
0,0571469893065728
0,0560480513671999
0,051465057241996
0,0539257747125819
0,052858168044574
0,0560834910123691
0,054172758635752
0,055367550140688
0,0541420039334744
0,0555422250706476
0,0540758000929357
0,0535871205538387
0,0554821832439034
0,0537100640338545
0,0498716980110899
0,0515111867973217
0,0536763350171509
0,0538022955261288
0,0540548478739745
0,0523804513563082
0,0513240282806294
0,0529145507342941
0,05143649351855
0,0516849884807646
0,0520109992939064
0,0520600322597122
0,0526524722352453
0,0522063216420481
0,0532455054259436
0,0497178300661612
0,049925396344838
0,0504626428782098
0,0523997173331051
0,0501219684995337
0,053410613267028
0,0517636315826139
0,0551903350852568
0,0501796444424701
0,0508867348008988
0,0489137441832799
0,0510403863392705
0,0531237111664144
0,0508945088262357
0,0517453593026033
0,0538529655180773
0,0531551306683574
0,0519803255911011
0,0507189324925467
0,0522226614326025
0,050772280856382
0,052820811434287
0,0513013210533124
0,051435204458115
0,0506317167546711
0,0512614393252559
0,0502014338990756
0,0510919304451648
0,0513413245296323
0,0523003512965385
0,0481309309064527
0,0501947047646927
0,0507226084009993
0,049700531056388
0,0482242243463442
0,0490596872447939
0,0492120646441802
0,0513248395174883
0,0475502811563718
0,0463868285447351
0,0444635016159645
0,0459801489273681
0,0507127214993755
0,0479636935896643
0,0477673536509117
0,0464703829171995
0,0471213842826195
0,043873787813156
0,0465779511911864
0,0456917828558355
0,0459407453439538
0,0448164217388059
0,0466757416147326
0,0455759340327159
0,0451697577206552
0,0454743089839505
0,0455685537238652
0,0427711320721587
0,0449227005079816
0,0433051877324848
0,0437013964770349
0,045732268756616
0,0448640969030754
0,0429140081426404
0,0425910382696699
0,0456570200073743
0,0457750636337855
0,0456750323669405
0,0451188345903137
0,0433718631466253
0,0454360626286747
0,0436282923602287
0,0452916224899018
0,0438067555281906
0,0432950273495282
0,0437247508339887
0,0410031687656891
0,0434854932528836
0,0419797650779205
0,0439247633219581
0,0428251809321979
0,0436173853036121
0,0418663613503287
0,0453289270352198
0,0438988691130844
0,044397610702641
0,0431287872700473
0,0429044313448949
0,0434738096246776
0,0428631439178863
0,0391532062537434
0,0401792157698299
0,0401220500773105
0,0430706505390128
0,0410045820824273
0,0398086174005655
0,0429630653655062
0,0408598659216495
0,0412497881404876
0,0397735838305286
0,0414511305247623
0,0387337252039804
0,039580807026854
0,0408354383378377
0,0408709035581716
0,0384853609467747
0,0375718590284069
0,0385037159800392
0,0381597035175362
0,0395165819091291
0,0392878582205076
0,0381226361217122
0,0373220146600044
0,0376031326928929
0,0389022782198657
0,036475466765389
0,0388807427753263
0,0375557883431866
0,0370674143126511
0,0372135697322955
0,0373467688036568
0,0385393282190693
0,0378849707144425
0,03861064378905
0,0350326677109325
0,0357630654895282
0,0406622892327662
0,0359770531330254
0,0381334490768398
0,0351232641739405
0,0402647883128955
0,0378285194327457
0,0407067668646537
0,0390251943626595
0,0391669873459853
0,0406226851405271
0,0401376271519431
0,0412174239108569
0,0404752406311309
0,0402099386086788
0,0449813358420213
0,0433529659510598
0,0440309418402361
0,0450755830698434
0,0416991435675094
0,0498138253715432
0,0456923350384274
0,0510882673943318
0,0512757883528378
0,0446552213795735
0,0347420011435947
0,033094615023517
0,0362202244383338
0,0418321590538403
0,0443568782091523
0,0387799524419527
0,0377010652808113
0,0383377512333497
0,0430858495611206
0,0364527472707171
0,0422052514510157
0,0404078776102225
0,0432754090194803
0,0396954707657387
0,0392736574824411
0,0398204739630451
0,0364467598968965
0,0461633744859251
0,0405066600249348
0,0418966963350774
0,0434416678146856
0,0411146841229805
0,0357590941908537
0,0365951849078281
0,0351047640962983
0,0326608641385981
0,0347926377974249
0,0317691956444641
0,0341820778769985
0,031408837502125
0,02925127602758
0,0379872682445149
0,0354499090310868
0,0382213088949037
0,0429458266707008
0,0396547811081066
0,0403331957168676
0,0387368507090695
0,0292288780851275
0,0319110066605487
0,0359030287030016
0,0445965650851571
0,0418025264872542
0,0510800854258845
0,0350553776372451
0,0344010306108997
0,0393309424848581
0,0539770480805942
0,0380413831864064
0,041668851948153
0,0339136624452347
0,0569023303877474
0,0403016367554628
0,0381157706120052
0,0386830909208995
0,0522534997604962
0,0390327783810805
0,0390444763076254
0,0420818969436273
0,0406259446951433
0,0380356647091803
0,0391872396890404
0,0426565518805489
0,0372928263873509
0,0419824031925485
0,0383440297075719
0,0371285915571918
0,0374955661905888
0,0353178581745182
0,0418272816911459
0,0333020565497076
0,037762980733126
0,0345662111477953
0,0363679441279879
0,0369688918362671
0,0343081633993429
0,0345342825249302
0,0349655583329389
0,0334073860636284
0,0316653821610802
0,0350784628494589
0,0330937391875691
0,0318446427748476
0,0369281565308262
0,0310435493466675
0,0340866459620631
0,0319738267304384
0,0312259344135297
0,0307896947380303
0,0321671992582811
0,0325529231745149
0,0340119484574651
0,0304090904404416
0,0315069795361069
0,0303719432746474
0,0330003404541306
0,0320451002379398
0,0313400313782532
0,0316740391220072
0,0332016453729563
0,0304831224272755
0,0332759452932023
0,0297287695950999
0,0331401704391135
0,0319659335471002
0,0309620180208099
0,0310284948851738
0,0323362172729324
0,0321320630337882
0,031638981512302
0,0322204457139837
0,0315621633291921
0,0313603971258506
0,0326621344460404
0,030750158638246
0,034060735457053
0,0333394038419074
0,0319664172930589
0,0339397385450806
0,0309996481870471
0,0304316653970503
0,0319060632090746
0,0304525279601493
0,0321977974509575
0,0324407292303956
0,0298628133157945
0,0311950847336005
0,0306135912378883
0,0325318494852679
0,0306631096823062
0,0293489466779172
0,0310928765803858
0,0291846781246527
0,0300191931158548
0,0308993307122325
0,0325601758124915
0,0298149446323798
0,0314838223807254
0,0323541295613106
0,0313649192484759
0,032836045082482
0,0295420587100112
0,0316053802020346
0,0320165122294533
0,0310714945051212
0,0295571288341288
0,0314883968728189
0,0308697121458617
0,0290152055774712
0,0286566200696343
0,029867360075469
0,0322437803817744
0,0309276561621515
0,0297939515482669
0,0295975914056889
0,0310634356567217
0,0289838447182888
0,0304027602763299
0,030924952853554
0,0314301479781945
0,0302206376423428
0,0321030237936573
0,0303329120504874
0,0306306639631945
0,0300323602596989
0,0313534355807548
0,0314134557653508
0,0328077932451654
0,0327584294366802
0,0325669685779221
0,0297757967769947
0,0322296190702487
0,0308301040134216
0,0329431684877596
0,0319962214157005
0,0300556669950154
0,0318755621277274
0,0309270038834476
0,0324459083052835
0,0310109085432317
0,0312319657140212
0,0312094149090922
0,0329470406430026
0,0326295701848424
0,0298348781918052
0,0342095827558031
0,0307756748644902
0,030730933500806
0,0298880498714606
0,0306731452719856
0,0295803173237028
0,0311134732750431
0,0303907382950994
0,0316744543499848
0,0311056232172637
0,0299107804431395
0,0310693000137327
0,0319730633625184
0,0334056697545445
0,0312952378357773
0,0300190595127061
0,0322866073374222
0,0315998705767226
0,0318359988752335
0,0296946185800082
0,0306869423150116
0,0307477293234308
0,0307979379078603
0,0280088134337612
0,0311105692483068
0,0307532247951605
0,032777510073997
0,0303932932179916
0,0325228785625336
0,0317122103982812
0,0318573263599872
0,0300622032377518
0,03156554322817
0,0289391997565551
0,0316116601167944
0,031946507367673
0,0313567457692017
0,0318017321685391
0,0323334578440954
0,0326974440982922
0,0324595385638268
0,0314368928524933
0,0290395429760314
0,0339764986572423
0,0318800424139571
0,0323839683434019
0,0349391433025427
0,0319677163779631
0,0320662165022641
0,0329837584417847
0,0331169178272126
0,032454743690793
0,0329212540031882
0,031144340932689
0,0332864533510729
0,0309752211657416
0,031446792483943
0,0311897526227576
0,0312070238975537
0,0307270887208681
0,0314307622676294
0,0315671475220442
0,0312177845086679
0,0311062865783048
0,0313915401425234
0,0311240453044288
0,0335257037244581
0,0323041963853413
0,0296170443316991
0,0306271063789402
0,0301155338986265
0,0285806837645934
0,0330699171165836
0,0303615755850283
0,0288718072870979
0,0293923943798839
0,0306732970161232
0,0300086839086784
0,0296650252476438
0,028369435155788
0,026362335756379
0,0297690292852246
0,0288752924992017
0,0297023442587658
0,0300313957440318
0,0299474202189024
0,0301162333804442
0,0316376484928578
0,0328950168023635
0,0315462938792089
0,0296503874478326
0,0282931428212368
0,0315528423632922
0,0280096381445989
0,031728976636087
0,0299416710532123
0,0304058322735152
0,0302774296553337
0,0304222021235475
0,030233216415038
0,0291401858036949
0,029517623018616
0,0311448759615173
0,0295198952923205
0,030236250387849
0,0309120589531141
0,029914770562825
0,0285764233105546
0,0288194094575648
0,0295481810638389
0,0314897190454032
0,0304940304745376
0,0307309124160645
0,0301361375531676
0,031923437476727
0,0286549728278342
0,0289146094690305
0,0281129151033682
0,0312671697959581
0,0299079075180607
0,0304162828822081
0,0286121637234622
0,0294892631607918
0,029460140631475
0,0293015523631465
0,0280278089143611
0,0297733096807451
0,0270313050308124
0,0296792801015669
0,0289468153220348
0,0298911708405424
0,0262397537877249
0,0290446707359356
0,0271023520005714
0,0308476593180647
0,0284563042460759
0,0281735906169626
0,0290436712995504
0,0294966160918413
0,0276239839196263
0,0295828522449391
0,0323109222133609
0,0319836085907887
0,0301234404828243
0,0276129886054409
0,0263924498879255
0,0283848465510491
0,0271210200400913
0,0292642841807469
0,0276803345725641
0,0304689857361771
0,0270343907906888
0,027236125352528
0,0272818734126979
0,0282018779255953
0,0304785804031243
0,0297928336860932
0,0272718181429798
0,0285825465994145
0,0301794736091532
0,0288464729131684
0,0263551017615179
0,0290358348349393
0,0276701987875971
0,0320107310497556
0,0299358919898577
0,0300180101729533
0,0336945148937111
0,0281691113282798
0,0292361957383593
0,0282155007038731
0,0293695446873352
0,0279154313723106
0,0259882540988242
0,0293419489119572
0,029674968575863
0,0289659134601669
0,0273522978731615
0,0277886820185484
0,0291532584849
0,0292573860921782
0,0264938299665904
0,0294674752204891
0,0285744475649445
0,0280289281018044
0,0258398121533928
0,027147505112752
0,0293364251508646
0,0271145349589915
0,0259723824104177
0,0283213342387799
0,0279167408308542
0,0291301099167191
0,0327128174175978
0,0310109758934314
0,0247551709989221
0,0294176722324821
0,0237683035246463
0,0275986306096488
0,0230683023620072
0,0263933165807664
0,0259964992615119
0,0272824671568153
0,02715349578851
0,0249659403595467
0,0242951728110705
0,0260887884040059
0,0246896627894623
0,0276557038279565
0,0236424390343838
0,0256372524664389
0,024817833968994
0,0276757093100389
0,0272379057420965
0,023928064585899
0,0223547274003489
0,0288018543670301
0,0239486135085543
0,0273987033046549
0,0291822836111802
0,0444332421667556
0,029231124093296
0,0260776686289414
0,0295379733048124
0,0325693616281811
0,0266944081667269
0,0264283829457191
0,0250021506732572
0,0240408568302791
0,0266730729760008
0,0264574997778868
0,0245592649224022
0,0257801743244588
0,0248212979480797
0,0253374942903091
0,0245219696464046
0,0270156868127368
0,0258747811515837
0,0234018622167159
0,024076242708912
0,0260736949187977
0,0237534422041397
0,0271213072048297
0,0237557097219549
0,026665102012414
0,0275609932295976
0,0387380221328802
0,0345006317090751
0,0286432706648099
0,0255331973434501
0,0243194105643641
0,0275561691544022
0,0245239990086904
0,0253683065559804
0,0244389905277926
0,0231212958262779
0,0245034931555465
0,0245611746752861
0,0239343554205947
0,0259163816581345
0,023633757025438
0,0251820320490417
0,0232872894988376
0,0231264813503452
0,0220418793968461
0,0247763420538773
0,0248937494891601
0,0273383791436132
0,0250435188804696
0,0307482156305526
0,0257290124085044
0,0263025926728782
0,0302752895393153
0,0510310557437313
0,0333910641618268
0,023908404902075
0,0261228434343564
0,0248212969751841
0,0257234057799279
0,0222107043570501
0,0258841573649679
0,0238120715997046
0,0255987253265801
0,024543916525167
0,0251586163795653
0,0234413971987206
0,0243373858618414
0,0229829862662351
0,0247346741091074
0,0228917574473022
0,0269580485301199
0,0234922159404128
0,0246544334886919
0,0300463229114651
0,0430985659969361
0,0362805191578403
0,024831996150021
0,0258218667491117
0,0268889249249648
0,0377988521939239
0,0454307925230747
0,0187350098203778
0,0297969230912209
0,0209647837269726
0,0291153659773435
0,0174791267306929
0,0263914777982113
0,0240391781813864
0,0376259245881922
0,0253101197009699
0,0296098673899152
0,0238907921861369
0,0217742813409252
0,0236957144825813
0,0245731202968082
0,0231650522677438
0,025312635178475
0,0226597245842107
0,0239434399343462
0,0216640843456148
0,0236731841430372
0,0190338705061395
0,0260657678980617
0,0244581571009874
0,0361655322118829
0,0227175771833496
0,0265949564978151
0,0199914703960398
0,0250975891277646
0,0291249675143135
0,0472857032266915
0,0260608946921352
0,0265342064382923
0,0236021926847108
0,0224122222567852
0,0275031964567187
0,0253739846921263
0,024220723804464
0,0230348476372541
0,0242521454102702
0,0223327826282248
0,0232592461220959
0,0240300048437578
0,0245009226863707
0,0227378386416734
0,0213576179627088
0,0241877070042368
0,023308217249511
0,0240069671141665
0,0242254704784773
0,0321865478460909
0,0364534472707398
0,0627297563815856
0,0392245470014327
0,0454884367078061
0,0292689779890154
0,0283773813646344
0,0229739898286367
0,0275396217708839
0,024491265449628
0,0278611097690893
0,025268790272829
0,0285480788352809
0,0265472204976637
0,0246314486411354
0,0231446769650197
0,0250391399874551
0,0211309589132497
0,0259909126823408
0,0221158900976811
0,022686117840626
0,0234100223943138
0,021227424628314
0,0272374948076798
0,0318085417681083
0,0411376967562125
0,0226871098081454
0,0415767649694588
0,0355597379844071
0,0676596411446702
0,0296327169495215
0,0334854726218543
0,0256417416006316
0,0232191228292893
0,0251302146891425
0,0262348998935122
0,0320440649598292
0,0259300504239259
0,0226555142351486
0,0237816992693868
0,0286983648068818
0,0232787327493344
0,0230765475665021
0,034652138373402
0,0588926716333243
0,0440614748544223
0,0239271881315981
0,029470711999094
0,0316094341588407
0,0537659040955045
0,0373602911247581
0,0228974269502198
0,0343964932840295
0,0208237722583034
0,0300013350489223
0,0205977109799498
0,0292956713794797
0,0268645483163227
0,0295895390411438
0,0218938388019889
0,0263528211063964
0,0238418181163957
0,0271647185985721
0,0322257570465218
0,0393066447676427
0,0344620395020911
0,0292608847777653
0,0267531842691826
0,0356215121856732
0,02318534024615
0,0289650478369285
0,023047251247429
0,0294654440640756
0,0367423442731014
0,0473742231623408
0,0367587027303959
0,0422319811373043
0,039257180964615
0,0294142451557608
0,0266454879028523
0,0512700727474867
0,0288413173818935
0,0387128815947312
0,0260801883097459
0,068823781516839
0,0517817760710122
0,048656823120357
0,0369778823313479
0,0224168291519198
0,0326200423179752
0,0192456911033235
0,036658404273054
0,0297983257885776
0,0461805617620183
0,0136331657493174
0,0397565234392226
0,0247750501562184
0,0522097794304616
0,0287649360027881
0,0344265852146439
0,0218790228104498
0,0358865155381567
0,0330914697886549
0,0417568826636875
0,0297369067171907
0,0494290801828544
0,0854089154123038
0,0504558419479811
0,0428631192682477
0,0346360055932599
0,0568465878745008
0,0512848130540691
0,0180381453214202
0,0400716956387048
0,0199984072143224
0,0325510848122043
0,0352181942445679
0,0621642025292259
0,0507010758358008
0,0285327004616057
0,0364998409220659
0,0398200833432093
0,0434739215030648
0,0554622177905889
0,0243351989789474
0,0381661245327708
0,0250142609910914
0,0533675843585719
0,0441512316054333
0,0872637241909881
0,0389297679686999
0,077973832016225
0,0594813645214069
0,0571490739026006
0,0447158235757855
0,0455680300554679
0,0545375800917977
0,0647556958985694
0,0394119524119734
0,0388873561530726
0,0492789000046506
0,0631616035451976
0,0487091364935447
0,0342023608960743
0,045706415241422
0,0344545999386964
0,0806685409702253
0,119637284146025
0,0793512428984302
0,0451485922091732
0,0545797849940168
0,0639236206276616
0,0581737743926128
0,0321729900704348
0,0429105411398234
0,0371481338311691
0,0380844347408133
0,0403729528527888
0,0480704999825106
0,0481091091046124
0,0382383075801906
0,0462596305256642
0,0418949128900006
0,0733341486238846
0,114514529462081
0,0831324193542276
0,0848101272420398
0,0697694356458242
0,0981909727436924
0,0511768675396327
0,0545307734627593
0,0444162638667238
0,0613385271880475
0,0540740161231503
0,0430789511150976
0,0585942378477357
0,064638209168303
0,0805966399712699
0,0681785221585393
0,0733627101661315
0,06697816405249
0,0551273933995338
0,0960031424857553
0,0695199848636756
0,14556508604821
0,05376277934685
0,104683177835586
0,0684277214232772
0,147377295648733
0,0885526937523177
0,0694276069646316
0,0647853726070004
0,0678531226905431
0,0636689111945507
0,0852729853690526
0,0840372748461764
0,0960957805975991
0,0741623523973337
0,088097888973232
0,0747306601811303
0,208991075014681
0,155303125945987
0,115871691241351
0,0934809711244372
0,11854345999843
0,1081568151982
0,102115411375791
0,0836082003831137
0,107454978741459
0,0976863742810083
0,142092241466455
0,124974102367972
0,0980109057464104
0,127481362476786
0,112060784758659
0,148825457675327
0,112035631016071
0,187089929296593
0,115782393371963
0,130739630934889
0,116810461887959
0,120661230185412
0,130699768266177
0,138414135269148
0,160769282303491
0,129331493603279
0,134127889672962
0,126086084438455
0,132941294946839
0,136300609541018
0,133724221381553
0,153132485874713
0,168647296675685
0,244304545354708
0,193056315481653
0,209043824046763
0,145672462715695
0,149117530834438
0,15783759217336
0,169229906798188
0,204798026749549
0,163358345677866
0,189399684009591
0,145418559703325
0,141961509898723
0,148881149449488
0,135646783599078
0,148490287635131
0,129707330721755
0,15452280337384
0,144203847002096
0,187544571449801
0,151083629750946
0,216006489394603
0,161774711756206
0,136400329467908
0,143656593476169
0,138895945035293
0,136031621760612
0,130908753300834
0,143635029910558
0,14643610904553
0,152627090715035
0,121344945595346
0,149360361874238
0,139028195639437
0,176842406981839
0,137769619376028
0,132209278992207
0,135860867226934
0,127360326439799
0,13565225252209
0,143550401601555
0,165179557320595
0,152313050443247
0,116928783651809
0,133185874415088
0,117085240556579
0,125093406648176
0,118405759083586
0,12990075333841
0,117066548726538
0,126853976456376
0,114130809893293
0,129497299486795
0,107195795503025
0,121177147285283
0,112816663571035
0,12508284856698
0,112140464957105
0,12428266928578
0,112692177101829
0,117356964634227
0,109746864257182
0,119248799342199
0,111484503407751
0,124582965913772
0,113644773577241
0,116691353816355
0,108448121803808
0,117596706843654
0,110154703334148
0,11649352164813
0,1070922819252
0,115827564186644
0,108477429759025
0,114377490410024
0,10810750439198
0,112190928232034
0,105903280286288
0,110770967874517
0,104296475933472
0,106337081518716
0,108351746489211
0,105930318573985
0,13454454638342
0,124834985438991
0,148916350680174
0,113749832271535
0,104694553637896
0,108252004125432
0,0913737282341749
0,118153171818152
0,123669782127577
0,14788424218322
0,104201288046335
0,10301061493782
0,0987723649566099
0,119254450184819
0,103744072793496
0,11021380969184
0,084247366917934
0,122328491021959
0,0665055474623541
0,229843006982336
0,173847920330502
0,197171566692812
0,121886918481072
0,107857690146674
0,123197758959498
0,128216698494514
0,118128982026314
0,0826975145822577
0,109024282374374
0,125377961801403
0,120792516150671
0,0935865681588397
0,0876439238180567
0,0998052715955952
0,123228072019262
0,1309150278794
0,127470509465935
0,125715416462704
0,131735016631553
0,141654694871819
0,144536620743636
0,221999069234977
0,124880534600519
0,102167506377955
0,0885237391989726
0,0964606093662666
0,106070076295179
0,12842961170208
0,127083191804008
0,101854136169211
0,0899696685698751
0,0841182841179205
0,0960971844760743
0,119283726839765
0,0966972130946057
0,127997441300442
0,10073978179083
0,113731391495023
0,078192799019984
0,139480040816649
0,126503175808037
0,168824759854843
0,0962646389897383
0,0944877870081641
0,124553531674041
0,146400381301226
0,119584281955411
0,0966071632570891
0,0792106857228079
0,102073267843337
0,0924856094916685
0,0994710502219856
0,0970593629392858
0,126530944885264
0,142597433937001
0,170991620203411
0,193725620327273
0,153294815199666
0,0988879309289653
0,0808688196012888
0,0711885548484413
0,0955162222105163
0,0680348631640663
0,0910166727759172
0,088341173581124
0,0961568261222049
0,0939353330145867
0,112699627022931
0,103836132420511
0,0808666348806164
0,0791162944596776
0,0822187089801753
0,0870686883117532
0,131434726291143
0,134252102751838
0,118168755830262
0,108007179453954
0,115932178445087
0,103047028816124
0,0863437419224748
0,0947264411082121
0,088368938768456
0,102237753259621
0,109340600255119
0,104425109775561
0,101898542849026
0,099492358465711
0,110164818246615
0,144848077595199
0,124054404250508
0,143394700918657
0,119752695612724
0,187307097834494
0,17016437227968
0,156295618216083
0,134112374764616
0,13045215869148
0,134802591846146
0,127810664126686
0,135620832945873
0,162434629690594
0,162013777413356
0,158548623490259
0,134858059240492
0,152568991562692
0,142625972235879
0,173264248053966
0,173090423742606
0,217064726802638
0,200933524404821
0,223962474153729
0,203569447666513
0,166242140367196
0,170145094393865
0,164971975304582
0,172683679942205
0,159074937803964
0,159670352267272
0,183814569632494
0,184682034419565
0,178963694223926
0,165178748993747
0,168991833314409
0,16486951287478
0,165087126209223
0,170317694142653
0,171270010532716
0,176255140537125
0,172240063910855
0,172653134280913
0,201432012848875
0,222761041167741
0,217238860043878
0,183640182617191
0,191583185656406
0,197436310195349
0,185991339856259
0,193174457949441
0,205445025371332
0,208607839437376
0,198674465770836
0,196426136532149
0,196641376300447
0,19066842848514
0,225258561230987
0,215303738349734
0,217961149246831
0,194902983989521
0,211601088368187
0,229791112358545
0,243526766252391
0,251347822357829
0,222544138543755
0,229627915096601
0,202447552456352
0,212706805176594
0,199180902700846
0,216808993716519
0,208087926368659
0,217066901037178
0,206793084099443
0,211476529312785
0,20688042564985
0,200697385604084
0,219437219209054
0,231075979715799
0,214975881336247
0,200396806944142
0,205006149839986
0,198774192401294
0,206087224076525
0,226526200707523
0,230162650682735
0,215887441111127
0,207143883636683
0,228755113738807
0,232767559227239
0,215873670537869
0,201017338504058
0,203026712293295
0,202751435645385
0,201060374650709
0,197914855123026
0,226238309764363
0,230935607395176
0,223844899715504
0,202509869124904
0,21215840724664
0,196294491057397
0,211321154820385
0,205973080546805
0,211538124508085
0,209006228267865
0,220438028457814
0,216209225083005
0,217343413592136
0,213834155956736
0,233333446373964
0,242971548452464
0,234758449551051
0,218337373967041
0,218822664348767
0,211702684136104
0,219014740418965
0,215232640946513
0,217319638594898
0,204108535339494
0,212999096728124
0,196219572288368
0,228097849984243
0,226366674604325
0,224194324190463
0,21232669676228
0,208948563057478
0,196142923784748
0,201185890452049
0,195602698002512
0,197077427621052
0,196377420514307
0,197933476938291
0,189337326128495
0,193330800153341
0,189231464724438
0,191156592117296
0,190154536560985
0,189147217909639
0,18577150786146
0,188531761757709
0,184480276960518
0,188738029344153
0,182164392685796
0,186042909929529
0,180101794557252
0,189838856420608
0,200435726125653
0,215065095735179
0,211666316211761
0,194495410337082
0,198321095973874
0,187431264560732
0,18339561387417
0,184148342962769
0,181749488738861
0,182919816017842
0,179301438565951
0,181455679563373
0,182258884493933
0,179042537102791
0,179327694755195
0,180636859533078
0,182080609867976
0,178028664375267
0,178095227968047
0,176149538014069
0,17859463353832
0,179265592456106
0,179490341955947
0,188939830881374
0,17936236266566
0,188095108675967
0,174750686201036
0,182095289423022
0,1741361900022
0,181826961127352
0,182224239694476
0,178211361253217
0,173733410033442
0,174852420034147
0,170640660795235
0,177919038408297
0,172521680253489
0,172784935842439
0,1716036544206
0,172966856018955
0,166770972414729
0,170006024743906
0,170317754904703
0,166145034231453
0,165136904026505
0,165943123054146
0,161256040249626
0,167046059370332
0,160542112245643
0,156675799870677
0,154188216676812
0,155804074309377
0,153292065345707
0,154708210720233
0,150811434316758
0,153068699218265
0,155901127162041
0,154303000504495
0,148746579655984
0,147838038656759
0,146683178453931
0,148695336058322
0,143222161790031
0,146617099166263
0,145548803654747
0,147409164479091
0,146592343712599
0,147958700464915
0,145341658925067
0,146695488659231
0,148191041016554
0,147227649597015
0,145042263313913
0,153485097950113
0,149355249579331
0,150930792824098
0,151811693102451
0,15398383040955
0,152958441757151
0,152432400023138
0,155961038217937
0,153560273914367
0,154546806434375
0,156363865287236
0,152744357861829
0,156090944584615
0,158827235893804
0,159586701150064
0,157982819763071
0,158116143439245
0,155983072281143
0,155539377263087
0,155730350636823
0,157271815688776
0,154686142590042
0,157839468263604
0,157020452456949
0,15547573271715
0,156703982401315
0,15657675773573
0,153027557568513
0,154168122876701
0,152955472217666
0,154066064975751
0,155997358263176
0,150941903689668
0,150546140773723
0,152380991532795
0,152062151967878
0,151611979661538
0,151453561925202
0,152807147162173
0,151053895550538
0,151151852206795
0,148444106408892
0,151192727711978
0,150146747315692
0,146441940773998
0,146306758790358
0,148348248129513
0,144536897951675
0,145823144299356
0,142673599544775
0,145504255367539
0,142862381084142
0,145285479377191
0,139718239873411
0,142815816915541
0,139925073513534
0,142484573375823
0,140995831385929
0,139079076332601
0,138176764265006
0,13657110746356
0,135180617451289
0,134728747009365
0,135590715156027
0,134605624143345
0,133865802270988
0,132253330373314
0,131578279997561
0,130175433926887
0,131016810326481
0,131955301955831
0,132101498829538
0,131515147890643
0,129569255183194
0,131799991675094
0,129879492058185
0,130243973880332
0,131858771834553
0,12942397316839
0,126558158493035
0,127380004929606
0,126303905346155
0,127424064828076
0,126273077545404
0,124976073892127
0,122552041774538
0,123719811249852
0,11826785742744
0,11888390394704
0,116081233456256
0,11831559376089
0,115847496786386
0,115537097426133
0,115095334606016
0,116865205973879
0,115564589137806
0,11767814762216
0,118522488729377
0,124465240926442
0,123025740847659
0,130526380465513
0,131167529177483
0,137961331292786
0,143076955319001
0,148784211071958
0,153906003132161
0,163184832540472
0,165766525267439
0,176443460525111
0,182950683252985
0,19122814810833
0,195943501854602
0,205710893166672
0,211860400016908
0,221825771793711
0,229224177807857
0,238754189658034
0,245881169165082
0,254437678128311
0,261292126490799
0,271986900120558
0,280091949457918
0,286662550368077
0,292130840831731
0,30216360425083
0,308568421290685
0,315126427679557
0,315323165287715
0,323416081798996
0,32598411563244
0,328539616715959
0,331177511594537
0,334646078580432
0,334278636851774
0,334104169058744
0,334612974158949
0,332290529084463
0,33457277681387
0,332402152097788
0,32638922543739
0,325963782199517
0,324857241048723
0,325739600787839
0,321866182540542
0,32862965633763
0,322318871309265
0,321652579908439
0,323060523705399
0,321666333680667
0,324057502907962
0,325558595786586
0,329575447769224
0,329635709731715
0,330676783576825
0,336513303369322
0,337384356428693
0,344224953930884
0,344912107065744
0,349518469356424
0,356543412616112
0,357989534253933
0,362441016322256
0,371045742734849
0,371214221252775
0,380772653991965
0,382756526441497
0,383740751696618
0,387733412884508
0,391426455349149
0,389731615583844
0,394808324196531
0,390840406161427
0,395650293216916
0,395290804634743
0,394646698755997
0,392631652001602
0,396780210748468
0,394885701478766
0,399028535470763
0,398921338435989
0,397185321709567
0,403483134082712
0,410864821944062
0,414776018189301
0,419922469479208
0,424990555972081
0,429068226567455
0,430783894718137
0,443189561864127
0,438893087887555
0,453969060391311
0,454277675244224
0,465256644855963
0,470269536400348
0,480266160169463
0,481904242882642
0,490419640422389
0,499397029081896
0,514649539316256
0,519861725215884
0,532000281853814
0,543653983926694
0,550646538903501
0,568804450535501
0,57900845789879
0,58836803007273
0,605969484780167
0,612656629333154
0,627970191577439
0,636934111181598
0,644487217895665
0,646341080880748
0,652950813483167
0,653799857490362
0,671012664087101
0,669971387635259
0,663729781593099
0,661336380592098
0,661589547519572
0,662842139746825
0,66216786905727
0,660410801440571
0,651882027838646
0,652077832974884
0,649612568268089
0,648800087790215
0,641918189450517
0,644550720693825
0,649128888642174
0,647019249486027
0,646065316649724
0,647365581736525
0,66017372145103
0,656140026142792
0,668251964533029
0,67255277763372
0,68005337896782
0,688165330447165
0,694031119095143
0,698401403679342
0,711254234887339
0,720242325269749
0,727710172374126
0,734373584272421
0,734458568387712
0,745457438911748
0,754689608997946
0,764834858793318
0,777159964488735
0,776471744077915
0,78020395992393
0,781712017740865
0,794686980090363
0,791750000218887
0,799311584679913
0,800157738539779
0,797142400604102
0,814469844059535
0,815620373096317
0,810743212150637
0,820413289039625
0,827876978989343
0,829433537975052
0,825832422428357
0,822486345161875
0,833229063902188
0,823713065315948
0,821313433295218
0,825388238314767
0,81599196728354
0,806938872587772
0,800472943136182
0,801297073862113
0,793352686029273
0,778866991410827
0,752904808805492
0,741019416432939
0,72033055818993
0,69609680734739
0,668328778372636
0,665600431633929
0,638573241770697
0,611708541037918
0,588769614216383
0,564592069294242
0,547003927449768
0,531198423473898
0,508264371953079
0,502178353058499
0,488264892463833
0,475486781285919
0,468102292269387
0,464698794769121
0,450160793901329
0,448180635400398
0,438527712832646
0,428023298848862
0,424852652925808
0,414993476530308
0,406674377926656
0,398639683441551
0,393107651910897
0,377976623231137
0,369770018183953
0,357982237047536
0,348663047163106
0,332264509786215
0,328336119949525
0,311071356307192
0,29769373975722
0,283473624606124
0,274117405194781
0,260780983045152
0,245674238866332
0,231045740534649
0,22245768064199
0,211635988491497
0,202010542916006
0,187179002516767
0,180174574335376
0,169080945176576
0,159370436584168
0,152326983740171
0,143739788668104
0,13933262923397
0,131901032078285
0,129998648643979
0,122276646693314
0,115860010017076
0,114377057098321
0,110333976136379
0,107691682405363
0,106339325296031
0,100857036952236
0,0997744837822251
0,101160230204076
0,0960063548434234
0,0973620300594283
0,0974819744743267
0,0951152193367503
0,0942889605882888
0,0951222198777661
0,0956405768008903
0,0959985499059142
0,0958531603161512
0,100872109648183
0,098474838094975
0,0990149735853574
0,0982041298351372
0,103003841448684
0,10119436583498
0,10212943938087
0,104468985697898
0,104959375949118
0,105775276281311
0,111283419341377
0,107741566319938
0,110637207388226
0,106264141228745
0,107877895194364
0,108033638757861
0,108649236545445
0,103642227686331
0,10560831006624
0,107018164020312
0,109126601884912
0,111199963426972
0,110592966189296
0,109831063679627
0,112984613201138
0,110756907582788
0,109831655652449
0,113243094969422
0,115579598901072
0,111664242577562
0,110262722569353
0,116347088410409
0,119655739219319
0,112868233408065
0,119986057674215
0,11314858206774
0,118441199510146
0,119739336621356
0,115257377590043
0,110322413083291
0,116912623595115
0,115165300095918
0,112082688744283
0,112438277170436
0,119122037678898
0,115068146073799
0,116747299806244
0,110884745090722
0,119025578956331
0,115766450678848
0,12010828801109
0,117752973658576
0,12560101882075
0,130855816113032
0,129211387466276
0,127934650590903
0,134964353576917
0,134178872457167
0,139795041825508
0,145989847644971
0,148529698763907
0,14616160226052
0,146374625297888
0,141663154480397
0,146485220660667
0,143326750609833
0,138051583781549
0,13994873561528
0,138146711802949
0,130118210067444
0,132282907357281
0,121774046310753
0,126419514657914
0,120522368978869
0,125540941787493
0,121089870013001
0,121170371702304
0,123108460876725
0,118375345146319
0,125184199777835
0,124851583040128
0,125656982653621
0,127287718398687
0,120936347021843
0,122369549550887
0,121220979787613
0,120542632113538
0,117974133550595
0,119338111432618
0,11539162146831
0,120636418305674
0,122514606913607
0,120374392446816
0,116142202445222
0,118819106799215
0,111300341966231
0,118986635417741
0,117766808856966
0,114375909916676
0,114935630061293
0,112474793565276
0,107828599697165
0,112422558881389
0,107844515968971
0,110118114070204
0,109980370602033
0,114072398965328
0,104612528191754
0,111849877001417
0,109176594624531
0,107739926062071
0,102340035413896
0,115420242791425
0,100674162321595
0,112139902371233
0,100211198297464
0,0999374869189032
0,0953472621242714
0,0960117164282826
0,102071772657233
0,0934945244654123
0,0948813310169962
0,105263615827311
0,0879455024453641
0,0972006210207029
0,0942778963920777
0,0931756347487686
0,0906739808584754
0,0947266229948434
0,0807107232433338
0,0935522969966046
0,091500767153181
0,0836854955810357
0,0879972428286123
0,084641722876476
0,0856020969285008
0,0958634827732389
0,0846499505115287
0,0914918196757197
0,0849350898691552
0,0916221842649599
0,084332726375818
0,094263134499889
0,0957751154790687
0,0976520696730937
0,0860351410522488
0,0970711749893225
0,0955688046216755
0,105354612212627
0,0999502644052327
0,0984661551901076
0,0903143125399628
0,107280946861364
0,103867460374491
0,112926347492599
0,0960379283652231
0,115255477962992
0,0991357735711991
0,104067246460686
0,105635983356543
0,113427124436052
0,110379521069541
0,119751233688434
0,122158137067018
0,117107020145487
0,128003543264347
0,138961699450717
0,132320058076179
0,149520817157366
0,145162435244314
0,152138622518602
0,151925693786848
0,155918522708096
0,160034339398624
0,170660937319591
0,155462600901212
0,177156648634912
0,169101409264505
0,173070123526248
0,183298525703942
0,182277692158666
0,181062371875809
0,179682071808394
0,180282195747679
0,179579425911141
0,170622127097781
0,17198387791694
0,168369750859638
0,17078334586669
0,164896404133218
0,177900977268043
0,166371358098863
0,171015910237153
0,157069315346793
0,168107394779519
0,175674596314085
0,185053138875566
0,172878606317789
0,170507212374137
0,15095855489757
0,171885943633597
0,157973563207318
0,181498531584274
0,180055975179324
0,164949096270595
0,168791909324713
0,166872249795652
0,17156493806226
0,15154005979053
0,147693782549118
0,171775246052321
0,161608192180811
0,16601894132434
0,143348741445436
0,154957507437675
0,146994689244198
0,156890651072423
0,143153904538406
0,138621883006683
0,149192875746384
0,160005535544199
0,13761345361587
0,161735124130778
0,14372839394847
0,166970028411621
0,157913231997504
0,165411387559697
0,158985593824841
0,171242967048425
0,165666003000253
0,166439555471223
0,165903185652148
0,167679024253939
0,152834296149454
0,157321613516159
0,154019223100256
0,162618489831983
0,160315065779622
0,154757045453478
0,156225276978304
0,171905087903722
0,171136735781097
0,163373774990381
0,152281673053135
0,16379219973733
0,17204086619051
0,185076960758948
0,15173586510216
0,188847628810109
0,173367330906908
0,179112955705775
0,177452146099022
0,183703647536136
0,192857554035731
0,1790266261442
0,196458111050623
0,243270760660081
0,191757323913201
0,226274016893293
0,215666466074142
0,236357702954521
0,240469368052253
0,236659000748346
0,228843823053587
0,260747489558594
0,220526856993883
0,21687584057403
0,181625586296419
0,253295678556276
0,197744329727791
0,211970257134176
0,204470525578725
0,242470938264865
0,204019983319224
0,217495091112721
0,173139664607218
0,225472135691222
0,233185523088358
0,216117793651009
0,198125527561453
0,217214353444135
0,196367596511714
0,229561247656021
0,187550740019847
0,224433163536031
0,259093361125755
0,21961982880346
0,240996158374618
0,208026631739392
0,204826436385119
0,22125200711046
0,148562472011672
0,258839797462512
0,268608396326478
0,211235995915018
0,229297346139534
0,234511015450655
0,163863453891061
0,175288968027563
0,144955436787292
0,225270630743353
0,169922896357084
0,159756477608207
0,193008595287886
0,233849420716102
0,280979079739132
0,246867204030064
0,205763429573335
0,181184690830633
0,180527400524953
0,33526691221728
0,132828152951905
0,239069134317366
0,151986751442527
0,278934022500664
0,104087948602074
0,303259068528386
0,303815388785425
0,127563123500315
0,298061979093382
0,45983780294359
0,454142704012534
0,226807118805576
0,0250817817540911
