3596
4000,36533379555
650,420452594757
1
2
2
-0,00279705146613838
0,0064056138844158
0,000107521541699371
-0,00204549814886885
-0,00218830581069597
0,00241410996739661
0,00618767520985241
-0,000995022778391185
0,00337334136074359
0,00113854419119428
0,000620395845272944
0,00142845962547984
0,000613038912795763
-0,00550802387077231
0,00615555247299303
0,00535473401358846
-0,00357366376671425
0,00369820727321187
-0,00294296369434469
-0,00126142079037095
-0,000763449062741459
0,000900500221098183
0,00217614118162147
0,000293714841420114
-0,00579092488778902
-0,00550539596098697
-0,00899155473010822
-0,00828440484728525
-0,000456571946863791
0,00272985530477749
0,00418445657528028
-0,00266898540756743
0,00173153997535671
-0,00180391153253648
-0,0013795761630226
-0,00424278813846616
-1,31650810578722E-05
0,00292211415013517
0,00160938667807268
-0,00110868017098264
-0,0021731244902405
0,00859931062963393
0,00459910018347583
0,00128977214535516
0,00753724963353689
0,00546719653601843
-0,00382257641424387
-0,00766357429389676
0,00186214973331161
0,00784084625914981
0,00460825438262493
-0,00222500201940855
0,0013522330140037
-0,00336625012363558
-0,0050317305472341
-0,00246242905668064
-0,00429548663029993
-0,000142689254976975
-0,00443675384086294
-0,00576632128772347
0,00164733603380181
0,00741358877978738
0,002937353573645
0,00376602029346804
-0,00267230819113385
0,0037817697373355
0,00505580039695741
0,000945517687095299
0,00388210736986907
-0,00575233079112563
-0,004102276614677
0,00507004493770043
-0,00138028265958659
-0,00087039751960112
0,00515565163034427
0,00212676513756471
-0,00708586813974666
-0,00332227807637584
-0,00184485983887701
0,00162992617142943
0,0043238512250742
0,00055642600534434
0,00382568204692303
0,0047431094033936
0,00378925620241895
0,005986372078743
0,00383210843470458
-0,00296028677744894
0,00507696880612687
0,00344585329256692
0,00354760593648391
9,65449337523042E-05
-0,00268470830076334
-0,00496329116815257
-0,00183820240457481
-0,00150995569773489
-0,000104842645754216
0,00938708027999277
0,00508512041526157
0,00405853649983223
0,00498219205598292
-0,00120245936049865
0,0076727619000763
-0,00166269466542768
-0,00904395044367459
0,00277404641969472
0,00581394690242871
0,00250692882292052
0,00168521847732313
0,0010486118821031
0,00710990384513838
0,00375597573705067
-0,00212446214443772
-0,000142570086654662
-0,00235406484787474
-0,0108816955883026
0,00318618237047266
0,00233962411396295
0,00511600933635069
-0,000308377437771253
0,00315353225927036
0,00830440845017624
0,0108362941506032
-0,00458435049794163
-0,00045176436261382
0,00300705337484882
0,00633498028750513
0,00486284722308976
-0,0003561342729402
-0,000686770378886817
0,0069851160693948
-0,00286716225533226
-0,00340247184920586
-0,00271625187246487
-0,00531555958536915
0,00328859805393174
0,00243703654180105
-0,00570762663493458
-0,00145531580043958
-0,000222887971619161
0,00184541654554825
-0,00693701816289422
0,000299955021174563
0,00346512643732755
0,00599572443261937
0,00176573383661196
7,19962305984147E-05
-0,00590770466729118
0,00598293208518687
0,00258102658325992
0,00173811071086221
-0,00669503884942733
-0,00106153176994719
-0,00413949578417481
-0,00780340003398961
-0,00746229019958422
0,00523206600101255
-0,00165681994073277
0,00727080313288785
-0,00214424238230836
-0,0054946091430369
0,00581117870206526
-0,00142853522132546
-0,000890682327685495
-0,00294341656823027
0,000920261054170387
-0,00662372803087934
0,00157936273069124
0,0068484544656616
-0,00334547925651636
-0,00398365110897682
0,00352120472080247
-0,00135230624955794
0,00170291386623254
0,00378398717111304
0,00417208806233268
-0,00313808539380521
-0,00170699097023897
0,00229790257454612
0,00510363824125512
0,00779116750158297
0,00848508970307206
-0,000171385975721572
-0,000980087452705973
-0,00540204186258072
0,000830226436967137
-0,00185240064107396
-0,000409693980563108
0,00292688150495961
-0,00598475983278489
0,000308823941223452
0,00132948097702818
-0,00100782285127707
0,00350601589593136
0,00668570923222498
-0,000221609577857901
-0,00603027088706105
0,00573978908635545
0,00249261169181113
-0,00100310612228583
0,00378754868176124
-0,00323780840251257
0,00583617728899952
-0,00405331828569554
-0,000674442782594565
-0,0080581206015005
-0,00157600614534411
0,00809754362208204
-0,00090438244074229
0,0018978603033834
0,000710608878313014
-0,00591636225612704
-0,00185566041169379
0,0119305923142425
-0,00367398175269904
-0,000270188447137961
0,00130359661681396
-0,00128735900210419
-0,000608264253430421
-0,00203866392985724
-0,00160680985874374
-0,00016369011680062
0,00063480814063023
0,000421198622089298
-0,00142365650406072
-0,000660240252687701
-0,0019056979722038
0,00330950257767401
-0,000446313915677605
-0,00386619264521637
-0,00183225540938839
-0,00151973070502286
-0,000101946022998825
0,0016796216150038
-0,00108958023690968
-3,30059266639003E-06
-0,00103843951064641
-0,0053820723708314
0,000464259550910111
0,00131310646428689
-0,00178008630856115
7,57236901293335E-05
2,8698436078948E-05
-0,00369268043637355
0,00256545933055438
-0,00148954774491795
0,00204259856590046
-0,00197851962224552
1,70855339865807E-05
-0,00695976383210215
0,00385552456519328
0,00517737183862416
-0,000318859701323254
0,00275076535412917
0,00228220023552932
0,00132200506524717
-0,00409124868834047
0,00511953249767065
0,00128609586058066
-0,00629540112646662
-0,00098172800825216
0,0139162010321152
0,00241658026282803
-0,000604420944633356
-0,000881758017187147
-0,00770330720920728
0,00983899397995787
0,0021731856366233
0,00668399447880776
0,000603618105148613
0,000401724838663415
-0,00359706641801452
-0,00874011700564455
0,000824295021608171
0,00869325576060524
-0,00252004036677543
0,00478762507822231
-0,00207123760268287
-0,00223134411044432
-0,00489972092932752
0,00321766587939369
-0,00165393360420186
0,00915808239735389
-0,0245349331668166
-0,00517042452153387
-0,00220427351491373
-0,00302817298124305
0,00258189684409013
0,000561337354404514
-0,00282750833717213
-0,00460486888339026
-0,00111367130091316
-0,0101033906963744
0,00258055203902649
0,0021458319803787
0,00240123547538175
0,0060022822508774
0,00374051670866614
0,00101567802126119
-0,00294415295532896
0,00456617872499999
0,00115979552091994
0,00575037348459762
-0,00432476349018733
0,00385596996019786
-0,00599217525104339
0,00312376097358428
-0,00443862418061763
0,00401724331036208
0,00782050600254726
-0,00761785476305711
-0,00103751321702035
-0,00253261164291932
-0,0014224264310142
-0,000412120762267932
0,00165530078498281
-0,00649893699605211
-0,00203275729366671
-0,0024342155920812
-0,00225853036396821
0,00219848812419772
-0,00242277952013142
-0,00274265426241837
0,00471036455343076
-0,00132444471052983
-0,000392438789620819
0,0013794628412249
-0,00283276957745135
0,00480771448779964
0,00132979984607254
-0,0161380555114539
0,00287047420924889
-0,00081172730049582
0,00352438430124848
-0,000229686904248114
-0,00147280219292281
-0,000801187407007662
0,00543881236396311
-0,00290476415089183
0,00104320772965239
-0,000431258576860108
-0,00152703477718072
-0,000433044842740585
-0,00404837062418494
0,00926372556014422
0,0022126505675983
0,00632436820977726
0,00520872136403344
0,00483454587511664
-0,0034169096163163
0,00538555719188856
-0,00475933309392044
-0,00121521377144116
-0,000283796348297038
0,00165572314300576
-0,000286119331469953
0,002509529575077
-0,00180374802353927
-0,00166416797137679
0,000250590728440774
-0,00168608701423244
0,000967415781622117
0,00142029022949985
-0,00295455725201526
0,00188067205570355
0,00061973698359304
-0,00182166143270691
-0,00711051120126529
6,60299641120272E-05
-0,000265094123324209
-0,00409619213587901
0,000326311294403371
0,00246284571067244
0,00676080470472923
0,0163325448715918
0,000906480469934099
-0,00274107070301654
-0,000466386252833242
0,0113065257562621
0,0062178054984636
-0,00364934143044266
-0,00250325508996791
0,000835230003521058
-0,000215004153115379
-0,00121068097990477
0,00201314145554333
0,00114913988682828
0,00237125922648971
-0,00275546970913382
0,00691228342139469
-0,00310389781058402
-0,00677842822695499
-0,00336006021947146
0,00854032445724084
-0,00125844117911916
0,000192900538509296
0,00213084477014794
0,00484450771479012
-0,00633580861326561
0,00249382359664102
-0,00446188623796742
-0,00489240833875601
0,00359762925102442
0,00502689661252006
0,00267802309073995
0,00328158261577994
-0,00401354544562927
0,00403961646070325
0,00921704920110194
0,00576015683180444
0,0010188944647514
-0,00548005355472864
0,00175836790738178
0,00880218838753798
-0,00166454119029841
-0,0071499610876369
0,00865214866131667
0,00112187073712158
0,000376448252096128
-0,00282275877178157
0,00602545666784076
-0,00112057704387227
-0,00759420410531845
0,00429815147591217
0,00672248724779222
0,00253027055650212
-0,00896008045191158
-0,00248590602329536
-0,00647092606022842
-0,00494999058850147
0,00574465582177199
0,00277592117739807
-0,00819374350101251
-0,00654921690103034
-5,38425815082282E-05
0,00255524361748242
0,00782299026240488
-0,00218489401367626
0,00572647125144496
-0,0017336112351393
0,000357014113976841
-0,0134774523237327
-0,008785129208483
-0,00132731343027309
-0,00279164440986139
-0,00289210636743928
0,00391057364998441
-0,00342999011112311
0,00277957291143691
-0,00575257886837195
-0,00338351407945165
0,00277156764795792
-0,00372939667893727
-0,000919194668016861
2,92748496167315E-05
0,000896170896844318
-0,00229777238893471
0,000826126179939304
-0,00346871520377517
-0,00515587509870848
-0,000156196581807464
-0,00114159252943
-0,00645017292699054
-0,00546989234844639
-0,00120717761076761
0,00605696315593211
0,00778190651346976
0,00357791933069127
0,00608009538549193
8,98736353444988E-06
0,00956142252114452
0,0079683081283553
0,00680541015350343
0,00171688846395296
-0,00392862973712012
0,00307057740613689
0,00087986331066218
-0,00996452915767591
-0,010923184321336
-0,00371587546528453
-6,5674608617809E-05
0,000178636368744686
-0,00545416534635094
0,00671242562956879
0,00499350436266334
0,0106522258060658
0,00839236382574886
0,00556293810799127
-0,00795514203367272
0,00215582368819374
-0,00707707702884308
0,00200664803697718
-0,010051042396146
0,00854345301220087
-0,00268597437666691
-0,00221123808091145
-0,00636016304581981
-0,000217140191668993
0,00134356042711838
-0,00266481641056887
-0,00420035827721779
0,000752234977001842
-0,00992506502493327
-0,0067560289941975
-0,00984776364974234
0,00418112116461925
-0,00603472487110071
-0,000262187947839338
-0,00505454354124658
-0,00164545457983911
-0,000949437059515207
-0,00147281702597806
0,00451607868554015
0,00614044690962221
0,00523659750306912
-0,00412555053463263
-0,00829316232442377
-0,00674812960002568
-0,00770135599209662
0,00278477630459993
-0,00286072680483336
0,00824158599868892
0,000897059219363376
0,00323126974310202
-0,00767232408775002
-0,00196653744118149
0,000944529335821679
0,00533361874103179
0,002696324544203
-0,004810611996518
0,00189125469055557
-0,00247382182711698
0,00296978817079562
-0,0090632281295341
0,0056505255191839
0,00651629439894679
0,003078620501886
-0,000867540804371917
-0,00418192178647527
0,00458422879197636
-0,00203866526092302
0,00644365638599739
-0,00902305923254417
-0,00417199648228645
-0,00312333153030011
0,0052472310526121
-0,000968816713358235
-0,00592619918914616
0,00339853031060256
-0,00378190648054718
-0,00149381155398586
0,00574666997356502
0,00153695421178788
0,00488304106053156
0,00350056577936029
-0,00652389938354611
0,00657187066981026
0,00901912035089634
0,00434158577209198
0,00138114748980536
-0,00332769474612038
0,00113049833977119
-0,00619279815598522
-0,00154318841046687
0,00790082574714454
-0,00104948566992982
0,00257477127972515
-0,0101195382012495
0,00153067824862091
-0,0025245000078597
-0,00371255317082665
0,0019822937314263
-0,00330278415479584
-0,00287925825357969
0,000591990826078537
-0,00129233361384723
-0,00366366379225338
-0,00580187502783141
-0,0100714857888538
0,00743083280792126
0,000514845578874526
-0,00358019428932548
0,0016782307275651
0,0113401377660987
0,00126163702125425
-0,00704026845177011
-0,0086846675743228
-0,00704247413187895
-0,00176345765022036
-0,000589949469078153
0,000742346964357804
-0,000594531056256127
0,00488436558108811
0,000920856249402564
0,000389686587863159
0,00239898687493339
0,00797328045751815
-0,00192569606399531
-0,00509957705518259
0,00457529463300509
0,00797127316920044
-0,000161594812846219
0,00127997403772357
-0,00608412049403548
-0,00354088501210238
0,000757476379823252
-0,00898926562637557
-0,00416344884754568
-0,00367713910721695
-0,0081586588794746
-0,000768158201699624
-0,000230594214332175
-0,00901502654555793
-0,000660977243869225
0,00578986330379115
-0,00221685086633016
-0,00499835311668727
0,00446943309909489
-0,0014961962134979
0,00146753201743823
0,00543376707105977
0,00351185546870926
-0,00176300396926302
-0,00585832598375724
0,0067985853466877
-0,00243493206994469
-0,00113751478488138
0,000168314327806507
0,000855607994463774
0,00425385746584037
0,0032727948455686
-0,00118448464228043
-0,00684444032216528
0,000110099845536909
0,000300259947565707
-0,00105250276553567
-0,000324029244522063
0,00835256048736345
-0,00565549369135311
0,00411760599961971
0,00570335684078036
-0,00508529658803339
-0,00689870078018941
0,00183698532516228
-0,000839876944545664
0,00214758993350767
0,00116376454476306
-0,00669447491269959
-0,00208873908936045
-0,0038413368251402
-0,00420114233729857
0,000895097867981163
-0,000516470307143814
-0,00259657079716183
0,00323031755774713
-0,000303008052287223
-0,000904904913966792
-0,00301422733983302
0,00141742608280431
0,00582686395788842
0,00818745272458889
-0,00333837518769429
0,0030572670609461
-0,00363219213037581
0,00211709656109633
0,00265799116193358
0,00490872922666576
0,00329591199178549
-0,00384492593230454
0,00803432777848613
0,00308820981903524
0,00953123260719865
-0,00548950662228523
-0,00353168547216073
-0,00292616427800519
-0,00072620013954559
-0,00391654708683503
-8,77857912332317E-05
-0,0044663610257419
-0,00217325087910364
-0,0097680656595041
0,000730343928053873
0,00193196705988244
0,00209065510986714
-0,0014838768701016
0,00108660003522443
-0,00360587342711668
0,00688034232846731
0,00297061262044841
0,000807575317683729
0,0015882271639895
0,00490947159641782
-0,00660112588755962
0,000422338665246724
0,00220574476266724
0,00518894854214486
0,00317538302612244
0,000758242436745124
-0,00303667537436331
-0,00483742454600002
-0,00561092879845023
-0,000275127821050351
0,00224150827168486
-0,000808091994539377
-0,000660414508209964
0,000492897800110681
-0,00398683721392182
0,00204212081949755
0,00634612544342388
-0,000920732852571597
-0,00365623137072685
0,000213151292253041
0,00171154516632999
0,00440580365932705
-0,0103489384195551
5,83747350321763E-05
0,00582489820362316
0,00205148526206657
0,00179560159624367
0,00170090354170121
0,00382917156137239
0,000357731184575308
-0,00253974043503159
-0,000525769296568548
-0,00258158896745395
-0,00697948515201557
0,00295026142683847
0,00357802276502274
0,00128237634463906
0,00814454618731977
0,000853386613300605
0,00286912788768066
-0,0023556091200366
0,00263597542949567
-2,79791115596117E-05
-0,00480132220122393
-0,001395443916222
-0,00538694497634181
-0,00335322709228739
-0,000547220034222987
0,00140006132394174
-0,000839803975484766
-0,00482288609767286
0,00304351289672245
-0,00213778886065223
0,0047279383810284
-0,00139906958958082
-0,00307591411042201
0,00298423141586563
0,00167524880294395
-0,00556769848612908
-0,000367859460190331
-0,00119683152251448
0,00500208634136614
-0,000807474740943571
0,00441246190816261
0,00260490588623249
0,00144181990910901
0,00288669467429654
-0,00104344772336887
-0,00426498487984447
-0,0065793105495163
-0,00339671497100312
-0,00258595101648367
0,00206958777118277
-0,000177289045182567
-0,00335130679250011
0,00254717217743097
-0,0059366815179669
0,00266642294304324
0,00452403038386285
0,00289113275736887
0,00397862281567193
0,00376729961940218
0,000886644072270177
0,00898134572933849
0,00378359876223351
0,00249851479048771
0,00287989790743257
-0,000818673016577647
-9,6885718804944E-05
0,00288272266022874
0,00234810819620825
-0,00179156219948209
-4,53691984377437E-05
-0,00162475563227598
0,00127736410566075
-0,0018560627133405
-0,00342578903382957
-0,00317968305805063
0,00150398503024855
0,000824595736591383
-0,00222626099458279
0,00219623697257521
-0,0037909251483306
-0,00228745577558692
0,00228822901146597
0,000487533968417623
-0,00809226150093469
0,0029882973310605
0,00019203979001178
0,00215448650023178
0,00436236659626324
0,00660467059035879
-0,0061414502527997
0,00148638634429518
-0,000254403687185141
-0,00060948319317862
-0,00102880617766923
0,00432355119246612
0,000687447629760179
0,00227838303656465
-0,0003852858837523
0,000839862869252674
0,00447102962998963
-0,00277624375549205
-0,00233036614356036
0,00344972289014447
-0,00116532104613007
-0,00262751628749287
0,00487043170004377
0,000296371442619861
4,24697403425329E-05
0,000891743979115419
0,0045587944070788
0,00227359660629121
-0,0020750665295085
0,000514963492797523
-0,00085557231253504
0,000290414518065696
0,00062456555128426
-0,00089780075935368
-0,000909849049276521
0,00387937882532163
-0,00423430533532182
-0,00396587536664761
0,00578410533024231
-6,92859090100655E-05
-0,0078795766043235
-0,000854247400634252
0,0024157734864336
-0,00209676636280745
-0,00300455402281678
-0,00311070776722402
-0,000530652195319453
-0,000420962923576485
-0,00123417545423909
0,0039822209304606
-0,000888520007211773
0,000361345127728745
0,00305774247334227
-0,00105761254034994
0,00641955673535367
-0,00438101187245061
-0,000939133337325415
0,000340301987940068
0,00181837980545243
0,00109850282450009
-0,00192737688905526
-0,00219794170297676
0,00509529500680334
-0,00140256428374018
-0,00287909443620691
-0,000313391158299895
-0,000308569427378601
-0,000857548474105168
-0,00153377040896517
-0,000490943251194499
-0,00036331730077906
0,00191016034985279
-0,000399875992185753
0,000661955226259419
0,00247242548420409
-0,00204289780291177
-0,00153014912741101
-0,000421660859104937
-0,00428596195336513
0,0023727034979484
-0,00563486956746384
-0,000171909984845716
4,84096620529199E-05
-0,000363924932073012
0,00356261279592726
0,00437951607577405
0,00414404696030073
-0,00180765553078908
-0,00156952708001016
0,00083500872181026
0,00276285596772028
-0,000856953843842565
-0,00302128514308402
0,00208106904448345
0,00140668298640054
-0,000103896480583738
0,000151173653634865
0,0014501916394758
0,000802643449085252
4,95125704147225E-05
-0,00185388020255891
-0,000206404595857824
0,00102733097352453
0,00186963398422232
-0,00153748855660256
-0,00263560363687039
-0,00151458050228714
-0,00089089033741832
-0,0003983560010221
-0,00188192333622741
0,00512812159752284
0,00387620892584828
0,000184943747482582
0,00302230566160105
-0,00254620492676332
-0,000758190040917324
-0,00705736381006527
-0,000313093394973929
-0,00216953392944401
-2,3435129667104E-05
0,00380640742000953
-0,000291592637793458
-0,00352413410125349
-0,00356140260813009
-0,00164303772916933
-0,00322487352059324
-0,00163023466475471
0,0024990865067122
0,000640869880619372
0,0035778760861155
0,000612776509559884
-0,00209470568524997
-0,000106528966128595
0,00253637517340077
0,000878983457111813
-0,00330972392501544
-0,000415816721855607
0,00460231499869507
0,000424518566174728
0,000145309349700767
0,000110466943607479
0,000397251348338204
-0,00211071090394322
-0,00369865013698873
-0,00142092321332709
-0,000818169614241625
-0,00505179292561733
-0,00282475449921398
0,00225956040166758
0,00396598891248333
0,000725666080414705
0,000450137329943354
-0,000137000801704458
0,00038351228265923
0,00272497050932343
-0,00115744769587748
-0,00108797997010442
0,000430096773122844
0,0013135698964656
0,000280969918098321
-0,000817001244075478
-0,00226283537830027
0,000851985575144886
-0,00105200503313592
-0,0010039283030411
2,46675435336973E-05
0,00129286816263523
-0,000376916525182947
-0,00307483669330933
0,00172099762499144
-0,00231269100409924
-0,00211852481173256
-0,00102187461617539
-0,00046516132044037
0,000341301124286522
-0,0042184720182354
-0,0016200961764475
0,000806894970079593
-0,00121290792274699
0,000941458799871809
0,000331262771053479
-0,00260447134288692
0,000817905431324528
0,000696856786829373
-3,05468339415061E-05
0,000405524810435336
0,00181920733038049
0,00287669826698116
-0,00173073535799729
-0,000474640609801968
0,00206695563914804
0,00196909512779085
0,00112345145234546
0,00197604360184408
-0,000646326485398241
8,38712471493046E-05
-0,000573507212327163
0,00214519826054497
0,000229555930489867
3,01670722812203E-05
-0,00347753336102154
-0,00340376978579429
0,00026941721592208
0,00222716116127241
-0,000800760316571556
0,00288436459866242
0,001569921323106
-0,00117578449127504
0,000201954663166059
-0,000103172955514525
0,00169605128095439
0,0013406359320764
0,00162921689969939
0,00202857247997425
0,00329668930988771
0,00372872917692135
0,000247093748579633
0,000459331545134084
-0,00148464114390725
-0,000815301891939471
0,000198434040197545
-0,0023433151903103
-0,000536154670782136
0,00176999675214943
-0,00154455197262894
-0,000521762074844044
0,00191429562873411
0,000174425017593267
-0,00031032934126399
-0,00128485255257744
-0,00168816688038364
-0,00115864761234645
0,000761365677404704
-0,0015123290437853
-0,00250578725349629
0,0025670869162095
0,00185152938505807
0,00138523345404374
-0,00204147584559438
-0,00169069539266592
-0,00282203987646508
0,00123862814899387
0,00417035268444068
0,00134077272960375
-0,00151342819799545
-0,00184354318819716
8,49762575611069E-05
0,00529100879765135
0,00247167737792716
-0,00106564708916198
-0,00077979593246607
-0,000941468398998441
0,000807273775848144
0,00159944213906469
-0,000305244530175283
0,000832745422910979
0,00166712273782726
0,00203124789502125
0,00160581810518209
0,00172412571851796
-0,00146786291121547
-0,000381729715316067
0,000384927603982653
0,00151253493064339
-0,000966163018380468
-0,00183125070225567
0,0016287828591254
0,0039954135788715
8,17688232160707E-05
-0,000126149915338874
0,000989224209585712
0,00164161066456839
-0,00229949198363662
-0,000416859074151296
9,10556655564296E-05
-0,00267828467564008
-0,000482701391171885
0,00204472240529669
0,00281395619709074
0,000404799861537215
-0,000595742577704512
0,000751095516354187
-0,000583253062965146
-3,40489073845134E-05
-0,00093922469758076
-0,000507180548072842
0,000888022063391671
0,00187035771371208
-0,000535452610573634
0,0016587647748803
0,00126904536017419
-0,000417163107863651
0,000806869675808526
0,00135280072379544
0,00022710476387357
-0,00173587652200389
-0,000775217525461478
0,000908689034519129
0,00171899388655506
0,00208781818401273
0,00229306685119487
-2,74517485877188E-05
-0,00123735796045056
-0,000342392863958963
0,00168155352403833
0,0030116882843965
0,0002827655352578
2,11160247437822E-05
-0,0017622528229518
-0,00188395271658681
0,000462932215571324
0,00170897203125324
-0,00103053669550141
0,000879938752643836
-0,00154733861244559
-0,00312134196451648
-0,00324841851654827
0,000495000567323738
-0,00161077433820272
0,00209635716427707
0,0017884294118665
-0,00304158141651505
-0,00369273392721734
0,000387540501016945
0,00200821085395481
-0,00133387206039084
-0,00175059873603414
0,000156747367002648
0,000255983316759346
-8,16260342116029E-05
0,00118563703200322
0,00166439986251932
-0,000345605175333634
-0,00347004170011614
0,00137189999945651
0,00222153642457923
-0,00190954474365461
-0,00295585660435398
-0,00636242793463975
-0,00244647856352048
0,00330572858506873
0,0027211239977232
0,00183636750683556
0,00434129290344968
0,00229871830591377
0,00304445078855925
0,00198282381831207
0,000884704015018271
-0,00122686319959497
-0,000628954211240525
0,00194674721872896
-0,00200526179517665
1,22053621676852E-05
0,000786715780443644
0,00140683576195682
0,00307671938417157
0,000892104556380329
0,00129235766087155
-0,00023249930026134
0,00222981694815663
0,000581651395900916
-0,00146079690347552
-0,000127127864665742
0,00258560657090438
0,00186687983016103
-0,000721525569828364
-0,000789787051124481
0,000415859170703544
-0,0010173192961437
-0,00103019950396289
-0,000471351792292371
-0,0011270422129649
0,0015063830867648
0,00387907361822995
0,000770508052594941
-0,000634709239724305
-0,00273941413270073
-0,00192602539836252
0,00225425856097932
0,00307569871209851
0,00117796307232557
0,000862007032602708
0,00101149511138589
-0,000500910444004867
-0,00117033738915025
0,000345790160339958
-0,00409956958268967
-0,00102747029946282
0,00142639099040941
0,00188879228925762
0,0046793947118516
-0,00123309394116576
-0,00396290586914409
0,00013149112913592
2,79561425415996E-05
0,00233896586161122
-0,000928172657010768
0,000214821949936411
0,000927579014278255
0,00106538987532411
0,00371680372762869
0,00211161462883809
0,000657975486130253
-0,000317094185952085
0,000673682685105523
0,000281928118259732
-0,00343015922135143
-0,000100295064742832
0,00173849586830494
0,00112999666803673
0,00159970297041003
0,00195172864522087
0,000621205653068498
-0,00202485285187628
0,00276667021477517
0,0019978466454353
-0,00261369679289073
-0,00292782342157399
0,000525230042001828
0,00215916320802822
-0,00212332563313314
-0,00088831574162578
0,00241291755174541
0,00312026950553305
0,000912007203272565
-0,000328468539150107
-0,00336481594705851
-2,36499333509743E-05
-0,00082855894360197
-0,00142273218156329
0,000810312213253509
-0,00275642918566439
0,000588828988791929
0,00503936720492853
0,001907846628269
0,00332665351904728
-0,000950731889807589
-0,000544142994855229
0,000976534109516934
-0,000424933598257732
-0,00101156577206777
-0,00119630108716154
-0,00169054500036488
-0,00185036899008197
0,000762242285738761
0,000502249150974218
0,00408135171540687
0,00274680698485162
-0,00145778583758678
0,000148327645520032
-0,00150239288102016
-0,00055041853920669
0,000471651605877304
-0,00323242654887204
-0,000276088933646902
0,00204836049483928
-0,00184160017073531
-0,00373184376304322
-0,00172345918506407
0,00172867354617359
0,00114190254143541
0,00146960710038832
0,00190999275403107
-3,27441757724689E-05
-0,00177112089541809
-0,000966623585679048
-0,00260689733222734
0,00151188129074047
-0,00147692214177671
-0,00292000645407702
-0,000971041574462817
-0,000695040794563415
-0,00265776096667644
6,35605521385291E-05
0,00218645057219345
-0,00317755526264492
-0,000866861522541847
0,000551925351565359
-0,000910932190281602
0,000332123544347366
0,00278081676985945
0,00608784907237238
6,15740716422177E-05
-0,00337369892397415
0,00175615187488541
-0,00144059230165106
-0,00140740055569569
0,0010851795079567
0,000250411502718575
-0,000375287453962963
-0,00137926970597354
-0,000238768677433876
-0,00114872143340237
0,00078878789002563
-0,000495751921945275
0,00141308316071029
-0,00158223317642736
0,000335182564439168
0,000951406735696845
0,000973479178940526
0,000181550460464037
-0,00112146559964479
-0,000278752029099857
-0,000842275682248737
6,79638058442913E-05
-0,00238729262428358
-0,002459410200436
-0,000731017202005434
-0,000219449376483125
-0,00120665138678888
0,000473359937875803
0,00152076498909091
-0,000322182970951177
0,00194591075040054
-0,000799546657364896
0,000316738229327585
-6,78168316532678E-05
0,00191305114446103
8,90532497233376E-06
-0,00195274900395202
0,000286180289548063
0,0016106645435069
0,00184467841121366
-0,00168137635165982
-2,69072744660542E-05
-0,000428776673313745
-0,000559049916821177
0,000487481123619569
-0,000528039610561189
0,000468738609410749
-0,00300688071400916
0,00102693447609358
-0,00222897889758738
-0,0041749950009743
-1,30431879670861E-06
-0,000517343222401052
-0,000720837480490672
-0,000595702962854261
-8,56610496145817E-05
0,00239651723371161
0,000643356610573942
-0,00419291118364143
-0,00126446665209817
-0,000976173032106358
-0,000433188925938212
0,00128148658143002
0,0015468661782746
0,00188925705728668
0,000450862163210205
0,00165105708052508
0,00180643097510913
-0,000733792991399125
-0,00145297597263234
-0,00163859221486451
-0,000268404442791921
4,53554873757108E-06
0,00451320597250794
-0,000495349278607412
9,50440448899353E-05
-0,000964694561815818
-0,0015824372401739
-0,000785413990334782
-0,00267713555236349
-0,000380608531062934
0,00103909258556988
0,000419335258919414
7,20337990053996E-05
9,21049546244518E-05
-0,00146519336052446
0,00137988445577313
-0,00038865005556594
0,00184562810030382
0,00134251157962269
-0,00119154293145342
0,000141061921797781
0,000802764271409177
0,00276566721939678
-0,00138729928200205
0,000750527366168936
0,000654328967225692
-0,00245759626446802
-0,000900495410226596
6,74124787969735E-05
0,00197579761219706
-0,00185629981346196
0,00032524907890992
0,00103471292618771
-0,00147345230575319
-0,00292295436267418
8,02799176167762E-05
0,000365717436959215
0,00182586690833755
-0,00112311847490931
-0,00114634632479253
0,00229450260525754
0,000596800454538794
-0,00269047437755941
0,000250316570739065
0,000594202255520183
-0,00183279946783573
-0,00208275991788233
0,00114261979720669
0,00225792590009138
0,00149630245695576
0,000395863879230584
-0,00441940717615701
0,000449852380160051
0,0013905258654027
0,000209310284708552
0,000287849208555369
-0,000377715209463892
0,00260574448080093
-0,000626429761217838
0,00182720899583031
0,00183781459559207
0,00270996248020265
0,00142770142286726
0,000296292093249729
-0,00196575466297095
-0,000757093653765873
0,000362744522900563
-0,00140952282866557
-0,00113778764227086
0,000361494609829857
0,0013017222942283
-0,000496644579378789
-0,00105522225752459
0,00126135975584749
0,000278841885203225
0,000356264618387346
0,000772172168113363
0,00256257167453098
-0,00134340482057213
0,00268564106104788
0,000996564021954002
0,00140927880504278
-8,68444824674951E-05
0,00191282986794726
-0,000341502356092033
-0,0010111993193476
0,000644373467944531
-0,000611066914641962
0,00177726153328307
0,00166185090553234
0,000565363941756664
0,00347548519150501
6,90511366166279E-05
0,00331674290654357
0,000545995988571449
-0,000814335421681502
0,00139870190987812
-0,000199338791839789
-0,00126753685064862
0,00168580851079072
-0,000768494338267764
-0,00192458783520918
-0,000527630688371981
-0,00035882604419235
-0,000359589179571407
0,00060205967166589
0,00274500642582591
-0,000623341823837731
-0,000443188351642566
0,000586782247567548
0,00196799233642984
0,00141171076768928
0,00101418097163361
-0,00144669447188237
-8,1431410691324E-05
0,00104501425173355
-0,000243155880510366
-0,00113144679290685
-0,00152411331210257
0,000755980104815123
-0,00140592429535174
-0,0011306551983115
0,000613328599801797
0,00226085423625999
0,00160982608849912
0,00226014630170871
-0,000644521433022057
-0,000107697533801118
0,000587120905634156
0,00143618752628297
-0,000960889732035922
-0,000509683684851476
-0,00169459402611888
0,000905120019054868
0,00175551108101869
-0,00251417403031609
0,00211862487047682
-0,00100387178854389
-0,000374095463412568
0,00103116893376596
0,000106357012642244
0,000444539952302677
0,00081757357703399
-0,00194648266629679
-0,00429022330839148
0,00197282924494355
0,000271014128568644
0,000961287418745072
0,0010951054273694
0,00213209714536521
-0,000638498911035144
-0,00181485224854877
-0,00313192384830438
-0,00147052800317217
-0,00136352562814257
-0,000854865596132572
-0,00012731897401741
4,48398771614705E-05
-0,00056274017511003
0,000235497500328008
-0,00220956546043338
0,00148112913283593
-0,00116824617808248
0,00129233754370631
0,000434856426288067
-0,00171062478249296
-9,32567047487721E-05
-0,000495871386645075
0,000233586101271843
0,000633364019597356
0,00192811385057459
0,00218339580167567
-0,00201298663715315
-0,000975138877829831
-0,00116203150941616
0,0008754363613502
0,00376497961077713
0,00188411841684901
0,000184599695839868
0,00220561216073138
-0,00209497028215829
-0,00204492902519271
-0,000284278241387698
0,00294095051255586
0,00116173409232872
-0,000285852883179963
-0,00439557066081111
0,000143424141373288
-0,000263855926495791
-0,00115707323014233
0,00076435242904812
-0,000247900706688197
-0,00190533183324788
0,00129645551576199
0,00216461840682586
0,00159218799553864
0,00282797152024115
0,00148481484651181
-0,00110503491572559
-0,00184583215770915
0,000441267472462162
-9,90384842935469E-05
0,000721162721351516
-0,000718733893274792
-0,00151784488749895
0,00235638034893278
-0,00267348960115702
-0,000853651076630987
0,00230288473775017
0,00237170283048044
0,00032686530051141
-0,00329769677820209
-0,000950104838181188
0,00186388131807816
-0,000238379770706907
-0,00109183118626165
0,000683750816221152
0,00142792347636637
0,00242926594683499
0,00204551558333434
-0,00118051088921752
-0,000391849494396196
-0,0012473085629711
-0,000550174237421446
-0,0001068702014372
-0,000778754272721936
0,00166538817063514
-0,00173542607448973
-0,00122974418482655
-0,00150421464282635
-0,000683380031218232
-0,00160719377739101
0,00119627495375848
-0,000860432697414198
-0,00335054202653702
0,000413118821165276
-0,00312737651084915
0,000333704346952601
0,00151762370499853
0,000902679800899755
6,18946672405583E-05
0,00169229696691587
0,00246956135652953
0,000761411283130324
2,68259355282762E-05
0,00210919259489392
0,000934555431296324
-5,54203546575526E-05
0,000612084647734346
0,000482250705484839
-0,000709975403840137
0,00114753340125778
0,0014892161579042
0,000446688317531934
0,000966756754699034
-0,000258882085774424
-0,000314332648604121
-0,000959700722189231
0,00155400504965774
-1,55999574162121E-05
-0,00393213938822013
-0,00133022274322283
-0,000779876766556665
-0,000938639895954946
0,000874584970242718
0,00128593188889083
0,00341141904032735
0,00097661372010395
-0,0014159449711595
0,000230272941526628
-0,00123068473665949
0,00136955972598601
0,00130906092584602
-0,00103551617391861
0,00142895173897623
-0,00209331688244426
0,000610226874555969
-0,000335893438840518
-0,000800937152994943
-0,00200936090243147
4,36802158924465E-05
-0,00123449460049697
0,00260867620161035
-0,000552222779499088
-0,00102232505448014
-0,00156475662627991
0,000231671339435641
-0,0013127863087151
0,00101505054172598
0,000362606170540448
0,000929222529057567
-0,000859825291026888
0,00114600360881165
0,00204437174110741
0,00181335287351805
-0,000815874946983824
0,00333182729879811
2,44489497855906E-05
0,000544161498534201
0,000403593416945277
0,000922526358514748
0,000178093608215142
-0,00125963740334739
-0,000758562470276341
-0,000420047506534459
-0,00158143274426552
-0,00252586559032448
-0,00154321193909888
0,000494269770646024
0,000280624879914111
-0,000926238492182609
0,000102746704478332
-0,00165114501249538
0,00170481885886974
0,00184298337322944
-0,00145959695771204
-0,000861855911649256
-0,00472309750616846
-0,000967129268877582
-0,000367914219480883
-0,000431379854959777
-0,000912084422618263
-0,000230446225626199
0,00134956935504716
0,000330115998757545
-0,000676523284359132
0,00101407176117667
0,0006053154973257
0,000694516546604415
-0,0027338874137299
-0,000508054675341647
-7,02451620196285E-05
0,0016348115412165
0,000689065374523977
-0,0011689926158661
-0,00211811546671052
0,00216456609342967
-0,00164759996955072
0,00178279176787141
-0,00204584724426591
0,000156704225080161
-0,000194473279237698
0,00127164993281528
-0,000410444995096531
7,28700851920825E-05
-0,00259379248952342
0,00219350162478497
9,84219628148894E-05
-0,000752805066782287
-0,000477398557188158
-0,000324372903531815
-0,00162249549649945
-0,00034824278127367
-2,11672521716559E-05
-0,000383792286394873
-0,00071174034073902
-0,000721401158471173
0,00197348608126328
0,000163969683747577
-0,000644840826051822
0,000181403702682295
-0,000612185996923862
0,00124019045847552
0,00170666966695608
0,00033955295351158
0,000566108401002493
-0,00189208887579165
0,00154382418837564
4,15325639062198E-05
-0,000717812422942921
0,00182501712224224
-0,00121849021941132
-0,000514788666756672
-0,00251311074575183
0,00206156471848511
-0,00186227022181938
-0,000628717083883097
-0,000269837958982311
-0,00187349481101359
0,00152746947445767
-0,00103460608985835
0,000566674252297448
0,00257349747863076
-0,00110406823667916
0,000354024239550972
-0,000834992437496312
0,00174613287347474
-0,00243493580257901
-0,000988589204924292
-0,000572942163504049
-0,00116429381617427
-0,000966198524731475
0,000387089347601358
0,00232997430106921
0,00138333009016689
-0,00486123869448472
-0,00244506893057259
-0,00316741168924509
-0,00135199946834162
-0,00359721647620815
-0,00416316160231779
-0,00185410425320112
-0,00415628399774728
-0,00182655125125196
0,000741215647800862
-0,00325593630379103
0,00223733917943794
-0,00370144818141147
-0,0050809532263774
-0,00625887719642615
-0,00241024116866362
-0,00327730118623981
0,00174357332703725
-0,00339417672579025
0,000329812333822399
-0,000526299407573903
-0,00111789565923257
-0,00321372314851781
-0,000171152798798923
-0,00316218457884783
-0,000957825685514045
-0,00104398306981948
-0,00264031206043881
0,000262440004999025
-0,00371775076888419
-0,00218159054158158
-0,0042974652224263
-0,00604669508231024
0,00094318660269486
-0,00484804236201814
-0,0020294654815302
0,000765231719469393
0,00215703087378377
-0,00230458121229473
-0,00211702745293799
-0,00367492691346532
1,63413553636016E-05
-0,00608634268682466
-0,00191163271833025
-0,00126702872227573
-0,00463484262720495
-0,0046754776785772
-0,00147312722369401
-0,00175677553144028
-0,00156325352337879
-0,00337077902347381
-0,00041074771513203
-0,00152723322735386
-0,00175165068632107
-0,0018808284370598
-0,00390697926239804
-0,00132947365972943
1,9758145942355E-05
0,00051588110786681
-0,00364972070196896
0,000305602750277137
-0,00176374680001101
-0,000171209292313805
-0,00450466635773986
-0,0011313428197848
9,54615416296648E-05
0,000809381494450978
0,00190816497913839
-0,00227615788404988
5,2763444598384E-05
-0,000174560608903693
-0,00147920149396196
-8,15315131167277E-05
4,1304169300476E-05
-0,000840189346006544
0,000408742965689455
6,49184265914512E-05
-0,00135479504003391
-0,00181128654746454
0,000124982445575744
-0,0019447028453534
0,000763080992623645
-0,00126781491979817
0,00132653659717714
0,00108525502098741
-0,00268619234739207
-0,00196514931616559
0,00169798718437823
-0,000516137913972493
-0,000464505117755234
0,000571729939872043
-0,00076969027968024
-0,00234413467982104
-0,0027829233457975
2,907881996562E-05
0,00137054810967775
0,000738431306658654
-0,00122743058475554
-0,000777064808415752
0,00121064350899665
0,000443730114499655
-0,000561266638961757
-0,00100666481166542
4,62590733788725E-06
-0,000389010158765209
0,000615676269529867
-0,000997222501502974
-0,000522845609390043
-0,000892763939690188
0,000398914814544929
0,000820566562806895
0,000788983764829608
0,000633513089881425
0,000486903243788538
-0,00157490760748005
0,000497373285734664
-0,000229762407359284
0,000320261498756097
0,000400880469449913
0,000298139356048239
-0,00357617729432873
0,000470691195231457
0,00372431781518045
-0,00168704703729812
0,000141734033386873
0,00224701383494342
-0,000471857030184897
0,00380518485670699
0,000255068679016295
-0,00069825022052927
-0,000998558994387876
-0,00231148055048832
-0,000394157785424955
0,00134235928113548
-0,00182169634291691
-0,000508000582344656
0,00133597851353718
0,00194979178365001
-0,00123380396191099
0,00227520310921341
0,000258777485773856
0,00108969579343577
-0,00223424038260662
-0,00146643573128802
0,000478993198246361
-0,000287274214911671
-0,00110854900438875
-0,0019037133361597
0,00182670337984352
0,000607333260310739
0,00337396058889452
0,000290219052068163
0,00130180475644775
0,00126488638170142
7,60825067131967E-05
-0,000374050171530274
-0,00101500805966554
0,000189985512727835
0,00190974418351429
0,000605385710306759
-0,00177528120958585
0,000389751599453121
0,00103431873678572
6,85047018361776E-05
0,00133194120841797
0,00176525061728182
-0,000305700670418334
0,000958553120446431
0,00127820882425814
-0,00186058012518048
-0,00202445673303587
5,03672545541954E-06
-0,00188506456499745
0,000696924718269196
0,000129323338594685
0,00103388250854631
-0,00072331940564241
-0,000124427200894905
0,00137543161229381
0,000781242049805432
-0,000101181925049666
-4,2926568521763E-05
0,00137625806867693
-0,000605959251139686
0,000593441091399274
0,000541835405644727
0,000187761495388913
-0,000987670378157075
-0,000211581480332968
0,000797258198739149
-0,000483678765476325
-0,000664272048816994
0,00129499124998772
-0,000198085893687693
0,00248015571890158
0,00151413003883346
0,000988698811028343
0,000841750442976041
0,00108915048205126
0,000419773722458788
-0,000974636657416884
0,00220687199702431
0,000691322470306561
-0,0012906827549165
-0,00172799666110979
-0,0017294468571926
0,00172796443712377
9,09350470002566E-05
-0,00172820120952663
-0,00370551381010326
0,000795801580214516
0,00102942527955324
-2,47307334056418E-05
-0,000731097317126985
-0,0016499022931625
-0,000155351199484756
0,000857505849443456
0,000214372167486889
-1,56194639171967E-05
-0,000533227765965806
0,00023787419182457
0,000725551981377387
-0,00249906493167703
-0,00022629564456783
0,00110466696994061
0,0015307777364958
-0,00284883701706658
-0,000618029306056702
0,000982307979776225
0,000329244497813265
-0,000792863406721535
-0,0018404979714842
-0,000129337031449561
-0,000937225749604252
-0,000458879254213966
0,00047668642962672
0,000244872241080943
-0,00102937857420667
0,000552649127169459
-0,000552858422354999
0,00149386103930795
0,000432046304928277
9,45821063542188E-05
0,000648666761418778
0,00195017931420132
-0,000346914798767041
0,000980859740459949
-0,00108432303502286
0,00163663249019583
0,00313380813193417
0,000807235786969005
0,000965105369258005
-0,00121991099944455
-0,000809531394637441
-0,000358946876573421
0,000296896037234628
0,000187670281647186
-0,00122658633249103
-6,69348012971649E-05
-0,000254417234980046
2,01224836624828E-05
4,28753060039125E-05
-0,000462029207487692
0,000877771656882583
0,00208882534652383
-0,00225945435023262
0,00163117410800831
6,68742995999365E-05
0,000680970526611626
-0,00152250508707716
-0,00229503608495251
-0,00221134669757153
0,000812403386134446
0,0019006498354282
-0,000140036156739697
-0,00177700711136976
-0,000286082332933702
0,000345883317871022
0,00103123761142582
-0,000715676316034392
0,00336166980340669
-0,00034696332259979
-0,00113339046342147
-0,00154602878814366
3,67883627349012E-05
0,000243380494162567
0,00151686618814527
0,00154137633952363
0,00143034599975596
1,71847732851963E-05
0,000275140795467305
-0,000565724997238885
-6,70618261467631E-05
-9,38109611664441E-05
-0,00219088728113964
-0,000818501398929642
0,000258546943811828
-0,000936024866079826
-0,00260287423702953
2,8308144559889E-06
-0,000723089988027593
0,00177756571158993
-0,000607630200475242
-2,71244407189662E-05
-0,000222700144669542
-0,000782773062382763
-0,00152672696711999
-0,000644214852748499
-0,00224156974087341
0,000392717105446664
0,00125227002414441
-0,000247971218820788
0,000172308254541477
0,00163822621131067
0,00151284726609977
0,000572204519219148
-0,001361056413753
-0,000954268441391048
0,000232978776225677
0,00135011134946734
-0,000452245898678832
0,000712217667618857
0,00257832789628839
0,000170664371642059
-0,00026428822655406
-0,00205629192171858
-0,00152309203789725
-0,00170262336101234
0,000228311741040419
0,000800413178425558
0,00116291984789264
0,000447913379724766
-0,00276343686197867
0,000682300116682075
-0,000174710233996408
0,000233644302357683
0,000392983433373231
-0,00138280402912027
0,000485811506167084
0,000191790603610178
-0,00113738919963982
0,00128083635538614
0,00167268829161454
0,000857540824184653
8,55247838079144E-05
-0,000621569036940064
0,00122247866599549
-0,00147752445448376
-0,00316881936824843
-5,98498058262752E-05
0,00165558651711488
0,000628695059896909
-0,0011130604589721
-0,000626601741205604
-0,00210967503198277
0,00135919900359148
-9,43859520659017E-05
-0,00222218430856462
-0,000959433537108082
-0,000554337386962609
0,000230875388208654
0,000865966093222755
4,36114587507042E-05
-0,0004651310185507
-0,00243932756846635
-0,00225926261288893
0,000139728578895936
0,00144732211084716
-0,000765427278333092
-0,000639822480703205
-0,00102563532925268
-0,0002667940824335
-0,00137936031269144
-1,87381415976076E-05
0,00156541374739197
0,00196880003560326
0,000304813477823854
-0,00112135941469114
-0,000128481843702829
0,000739308712883959
-0,000754128542379534
0,00152850066020196
0,00118674014537233
-0,000935309179616424
-0,000161455307399142
-0,000242999291945226
0,000421949847195603
0,00154498223061703
0,000367300578184377
0,000845146636474933
-0,000858502473382902
-0,00103684731405979
-0,00121442093817978
-0,000667240557992872
-0,000161024975706274
0,00238018521756846
0,000271528362378274
-0,000353935307439329
0,000242701550934596
0,00103489392996808
0,000518474691301686
-0,000884502624320403
-0,00186043552573876
-0,00216700271647089
0,000396779487943951
-0,00210682005494309
0,001582000068673
-0,000164101899217566
0,000864410810197421
0,00205434133290439
0,000305244625180903
-0,000715880756929823
-1,66817220023692E-05
-0,000414734515688727
-0,000691879550746965
-0,000360473585117381
0,00107629764415908
5,67013637286273E-05
0,000292895149837072
0,00190381278628218
0,000772022839727536
-0,00160963022004342
-0,00125135860856438
-0,000441499434206889
0,00165618624377163
-0,000255404450826155
-0,000572963519926185
-0,000112089318228315
0,00205364371791907
6,02938917274564E-05
0,00216311268278725
0,000724394931816461
0,00055046811088776
0,000981907009659039
0,000144374910685234
0,00197175768077771
-0,00179678315768856
5,16033994520248E-06
0,000878490669044916
-0,00182922690452765
0,000657403611241998
0,00175391096090225
-0,00235877893392113
-0,00238169806221698
-0,00092097059511087
0,00181102583014551
0,000694991046739359
-0,00165048216736582
-0,000298262574958651
-0,00025066270052345
0,000207052625817739
0,00183788110892597
-0,000117137974214463
0,001971419332165
0,000104726718334607
-0,00123444485872294
0,00103369841507384
-0,00213392918853175
-0,000643294554362748
0,000485560190538314
-4,5003700183432E-05
0,00147327594774455
0,000693734482163835
0,000387503294537195
0,000161688408551721
-8,04622714878689E-05
-0,000729364842655852
0,000512782868069788
0,00138149342591264
-0,000229850192619414
-0,000695122921871078
-0,00128280052387274
0,000263374711919409
-0,000200518511875046
2,9368934606016E-05
3,02297838578235E-05
0,000472734106781579
0,00128068544210274
0,000174499128661545
0,000645912540066238
0,00086328274363287
0,00127692122787713
7,33913830493559E-05
-0,000835734386853792
0,000339587504945326
-0,000560345161727181
-0,00153244846974342
0,000908232634890774
0,000299493767131011
-0,000720559812591374
0,00149379739488158
-0,000406621752986996
7,07150012329915E-05
0,00141544316473443
-0,00110443397835252
-0,000777340059404535
0,000840794490633409
0,000614979761217544
0,0014262717634528
0,000139098611331254
-0,000571588094187341
0,0015149985867024
-0,000445053652205432
-0,00115053825998517
5,50134726702839E-06
0,000103041017266159
-0,000775694608269107
-0,000622505070944884
-0,00307616612966819
-0,00114996552363048
0,00152033975112249
0,00071208260748726
0,00114313043692098
0,00131014876397973
0,000638153845446033
0,000320168067120956
0,00159720069210356
0,000799610620069445
4,35203726742829E-05
-0,00109307986931162
0,000574056309214352
-0,000355166090005978
-0,00185370976758688
0,000176374246859014
0,00133564572502556
0,000758257624831419
0,00106295854310173
0,000884830278167119
-0,00197153064981081
-0,00306733552600969
-0,00107417985900386
-0,000246235982907226
-0,00124094454669079
-0,000426389132214603
-0,00115238026415857
-0,000228571593559308
-0,00040891544321493
-0,00133095462995143
-0,00111414443240259
-8,80689684986215E-05
0,00116007477115577
0,000589284640137641
0,000131282399071756
-0,00108569273783653
0,000827880596640956
-0,000746902246618599
0,00132696368131992
0,00150515508537782
0,00035777475183783
-0,000422973957494062
-0,0013025675183933
0,000966806229610469
0,00153146028574276
-0,00268407934784657
-0,00165729243215098
0,00148350250079561
-0,000811250898433273
-0,00200639270233121
0,000915779761651543
2,40122626127958E-05
0,000309072662724069
-0,00232163111072485
0,000282162345695476
0,000798517389802562
0,00111844904877673
-0,00222082105003271
-0,00211563843671853
0,00238871658259081
0,00124117417889295
0,00100748177173285
-0,00189943715324585
4,48561012738299E-05
0,00272003353940803
-3,54160393613116E-05
-0,00183347631941134
0,00139752511060795
0,00132505664754622
-0,000414808872573601
-0,000629689602686079
0,000540880230783972
-0,000474941406012732
-0,00115887133888615
-0,0020587235171893
-0,000521480338317452
0,00159654550664428
0,00233149858646089
7,10259690450542E-05
0,00139791181510346
-0,000895574456877638
-0,000284903289993323
0,000336254323802924
-0,000640325584020459
0,00115184959321722
0,00205146866217118
-0,000839799628074431
-0,00160788394717029
0,000222985268982394
-0,000766009733163013
-0,000696803440514501
8,08402254185662E-05
0,000521781670218437
-0,00082269423811371
-0,000457518026144698
0,00189455966396604
0,00103028944481091
-0,000730780398843732
0,000161337856866878
-0,000150153968059574
-0,00139279241302072
-7,88158078154739E-05
0,000723968528063265
-0,000407239529109809
0,00113633533944032
0,000407158745464236
-0,000919546578849643
0,0016026350183188
-0,00117664097663652
-0,00185784310081551
0,00170166877901064
0,00173542899379687
-0,0016071973387387
-0,00310851848135487
0,00424440100272368
-0,000692550957878328
0,000905127027127986
-0,00124139669506777
-5,59275445382576E-05
0,000615733256544473
0,00101515549140298
-0,00025826489347017
0,000799988868690687
0,000222522402132119
-4,4715725551292E-05
0,00104456933564943
-0,00226112926515992
-0,000730371768029053
-0,00105139726891601
-0,000145537515275629
0,0019775581127046
0,0015306727961156
0,000981341976563412
-0,000118856149051868
-0,00238213062530128
0,00062520140849851
-0,00219131375418248
-0,00149784223430748
0,00246056749594581
-0,000150700016000964
0,0012557897565487
0,00154010294307286
-0,00146917008537425
0,000168341605771336
0,00112926912444851
-0,000330957606782508
-0,00317322643018418
0,000777543216000436
0,00141414508330933
0,000426724417966736
0,000291170441455057
-4,79677130804649E-05
0,00383226136358288
0,00231495458946812
-0,000221386269135519
0,000736639300638577
0,00167826832289086
2,92288237475887E-05
-0,00187978263781283
-0,000464696773431377
-0,00311634011341632
0,00135858455046198
0,00105234046534852
0,00199221686058098
9,54498066881758E-05
0,00208527353413087
0,0014923545930177
-0,000163775058336475
-0,000656456670302022
0,00159942111011146
-0,0029167261640248
0,00088460458054516
0,000462508677898531
5,07984928522272E-07
-0,000204769602597061
-0,00192794514735379
-0,00332623812211366
0,00380086292090618
-0,000612554154612612
-0,00262065265797197
-0,000646473171190887
-3,69452937229686E-05
-0,00164267441746247
-0,000698239540849583
-0,00149439530506853
-0,00178523542359105
-4,76444658121704E-05
-0,000854867859728189
0,000215400485989812
0,00079894680728716
0,000786359631378301
0,000528660983424642
-0,000684537163344526
0,00224164194382204
-0,00371329812069303
0,0014124439901461
0,00135435402059386
0,00217864353746488
-1,40904078771598E-05
0,000336454390110065
0,000906690788728368
-0,000906417111078199
-0,00125529121280774
-0,0018248357149998
-0,000577621306358659
0,000763817308047429
0,000576156777970108
0,00237357509510702
0,000488816589685537
0,00245918001878578
0,00141979857421842
-0,00174518990092263
-0,00589284393502036
-0,00176993672499099
0,000656718372167135
-0,000366989618380715
-0,000507121979304503
-0,00404844843993627
-0,00160099539802863
0,00104857858973264
0,00193783944162909
0,000343897824803684
0,00194251500280903
-0,000531807667202132
-0,00205248415287824
-0,000657217613577609
0,00250626947717735
0,000915209957496208
-0,0017558072794021
-4,63872897289631E-05
-0,000415963345200527
0,00155974147739763
0,00295961619468611
-0,000939592068301981
-0,000846176316926387
0,0046949613816576
0,00230439562172506
-0,000813950982868107
0,000869257474601503
-0,00140299363694225
0,00319966764874128
0,000169275415011293
0,000221593367669005
-0,00210641014078265
0,00225135709067579
-0,000205536501219459
0,0024023604917309
0,00070953758644922
-0,00104495576181025
0,00181145519912
-0,00294093576272189
-0,000388937424657689
-0,00413852790886991
-0,00148118663968908
0,00327020182698092
0,000703849677854748
0,00053449558729969
0,00112767392085579
0,00190831547302825
0,0015761858296297
-6,04956965771583E-05
-0,0011114943485432
0,000201747347783958
-0,00224265244528531
-0,00257068130114536
0,0049962997844147
-0,00038430592574242
0,000224554261377082
-0,00221436956343274
-0,00200790296278855
0,000280687458240423
0,0038619405679276
0,00609884346128162
0,00106822437055225
-0,000571294920510182
0,000285988442204454
-0,00195663359405057
-0,00125675844786299
0,000256183801762438
-0,00269176243767336
-0,00426341791300693
0,00171464479125453
0,00199731424832743
0,00565642172309449
0,00271138308453155
0,000753323662469606
0,000506086682815908
0,000682837810952707
-0,000812537548627643
-0,000258921746782397
-0,00637751406765248
0,00182592975631639
0,00185189265462759
-0,000647120751667237
-0,00165499611534376
0,0016673015846773
0,0025477252718667
-0,00282014480427586
-0,00258264267279554
0,000427072645762868
0,00255099662927734
-0,000649629394740562
-0,00438112696196521
0,00654237304333959
-0,00064254145877034
-0,00151536786773991
0,00366291398319224
-0,000881684501373748
-0,00271697621735306
0,00207210774894958
-0,00251611311460057
0,00192719291584362
0,000515451228752072
-0,00143421209622976
0,00229268637576468
0,000512313974225939
-0,00209177576602581
-0,000215075803261086
6,9181743663302E-06
-0,000894285671394102
-0,000962192625052362
-0,00110929991886634
0,00107062311538306
-0,00170058673551779
-0,00139816407119598
0,000272966820317011
0,000140132574940941
0,00262422641710301
0,00116014823035953
0,00173376429445299
0,00127147848732781
-0,00126645038914334
-0,00133364102375359
-0,000188926305514382
0,000441073864981919
-0,000204610617857601
-0,00196120736600265
-0,00350519305609141
0,00145877181491509
0,00034186153610842
0,000284861155312947
0,00117623804101364
0,000339816111612888
-0,000574982454786873
0,00139865720633927
0,00268340287082046
-0,00364698548876311
-0,000594819155218812
0,000335056419756511
0,000712157623168361
0,000300602931461881
0,0017812180379052
-0,004317966700893
-0,00529942677799134
0,00329654340780051
-0,00136658466738917
-0,000501582378579949
0,00117455094875872
0,00133931233947705
0,000336841454777577
-0,00200753721550171
1,07912219759172E-05
0,000243878794291561
-0,00188243801652807
0,00207513699196035
0,0078698253653981
0,00683407602214303
-0,0014731403020853
-0,00171459053433773
0,000699684455906854
0,00239162123024672
0,00238243527730716
0,00130578622771598
0,00157350448192272
-0,00417954798132073
0,00105134828446437
0,00376203045025692
-0,000611484891527789
-0,00322677498477763
0,00223247340436065
0,00811744146100343
0,00094608959898029
0,00209617097737267
0,0038364128266666
-0,000519187145906335
0,00505608110400972
0,00670300937171641
0,00187651537846615
0,000651599822883531
-0,000790287218080826
-0,000732149104485413
0,000210237268565912
0,00212210556845676
-0,00165548911196844
-0,000190430538869427
0,00175035701510613
-0,000726838336332877
-0,00138180461269149
-0,000366962968834948
0,00136590893430008
-0,00112160353235078
-0,00214687112339393
0,0001915732403094
0,00101549876436036
-0,00277657491780395
0,00552538775130481
0,00230695336923301
-0,00024128452776394
-0,000894707440837418
-8,75193326853287E-05
0,00651383534100004
0,0022084161521339
-0,000929199901540805
0,00300358999262882
0,000917048140355353
-0,000514796617371433
0,0019240753349241
-0,00200624622890748
-0,00215088094160873
-0,000621576749249882
0,00371161055245519
-0,00242763450189736
0,00178232763825864
2,72962470971898E-05
-0,000615266443015346
0,00114387842684574
0,000425168907834521
0,000251617984212053
0,00192228152563494
-0,00195888451753518
-0,000723821458003836
-0,00330574363381578
0,000332922842540792
0,000540384888037633
5,74989577244365E-05
-0,00144467842831
-0,00026427339774019
0,000692921099621802
0,00253601845357945
0,00263543819523909
-0,000404294870722403
-0,00115053927037409
0,00153723497437652
0,00188841000901366
4,21816732350257E-05
-0,00177322393800614
0,000278961090380821
3,85887082758912E-05
-0,00179511467630848
-7,25661818086285E-06
-0,00160734999134516
-0,000917124449375358
-0,000631875544517835
-0,0019912689250327
0,00506667354463351
0,00137019493575017
-0,00149884798628491
0,0013042173292436
-0,000854702766159092
0,000144771899270884
0,00112009697340171
0,00147267660943833
-0,00177558534325556
-0,00198565427368701
-0,000220645971668691
-0,00294409640382276
0,00146225504178237
0,00095054711335914
-0,000145233785387557
0,00136044722612907
0,000605065051090927
0,00189912797565399
0,00207723545196016
-0,000140869902657033
0,00453102443596364
0,00934611746126611
-0,00286543139282174
-0,00112532465294961
-0,00177685238689548
-0,00193442875459173
-0,000611405157768727
-0,00163978730783722
0,00114853493066545
-0,00158610327382987
0,00152631432082777
0,00362442184194802
-0,00201232311003024
0,00182622113645288
-0,00106811717177251
-0,00190038154514267
0,000193245351350933
0,00154659994553397
8,84454856470741E-05
0,000514760726851784
0,00194697453689397
-0,00194265254148521
-0,00519475601735248
0,00459939581233238
-0,00108260525046931
-0,00298616248486917
-0,00194903394979107
-0,000349098586432718
-0,00153273312332845
0,000120014702237541
-0,0010074711617986
0,000846072015635844
-0,00129410422069003
-0,00040717707497739
0,000118257553343571
-8,60382423291499E-06
0,0021500602768856
-0,000403114611285636
-0,000652368619136911
0,00236300239982883
0,00267627919618457
-0,00129969383023578
-0,00122740636167171
0,000232814581416953
0,00121438557105531
-0,00114797214158452
-0,00011388295003474
0,000320605092641506
-0,00126468687680377
-1,88565893953982E-05
-0,000305367403182515
0,0013163344973663
-0,000527090720878824
0,0022859891873132
0,00311151233387744
0,000115232135530451
-0,00200226418780275
0,00219077479884399
0,000367326438219038
-0,000905985251156751
-0,000383488736465049
0,00124602179834517
-0,000541954221774031
0,00107530278797544
0,00127814816837766
0,00100688302470169
-0,000980524149927828
0,00140744798937481
0,00032487615981186
0,0025857845990044
-0,00108515468041587
-0,000269021336326272
-0,00200108730345251
8,01764771377761E-05
0,00179490818470324
-0,000701189390610782
-7,74595733367859E-05
0,00089697434460503
0,000661024103525693
-0,00194086060505743
-0,000510625182174304
0,000174159496108312
-0,000677061698731757
0,000665860280345744
0,000314583358182862
-0,00106738472565863
-0,00063173335014338
0,000147871562043003
0,00365288042452779
0,00073712571107581
0,00121586692293059
-0,000812843363278516
-0,000670406196224867
-0,00213584216343855
-0,000108882402446094
0,000990149388339831
-0,00153716209818389
-8,98431911146737E-05
0,000438075346007605
-0,00149980778406042
-0,0012166356878125
0,00180265095156732
0,0021063207751245
0,000182852583363604
0,00216937698304353
0,00113668718492745
0,00215867957649404
-0,00268098682625433
1,73476264984832E-05
3,58022997128656E-05
-0,00109519970692156
0,000828122163952576
0,00292428313464854
-0,00230376322487016
0,000172693225897152
0,00156792703222665
-0,00285109524624427
0,00191080591160906
0,00083749351422196
0,00131048235072502
7,98768811154371E-05
0,00255267408810627
0,00146015301843794
0,000546805759253615
-0,00236999261427761
-0,000843462557459003
0,00255946265598124
0,00097227663521101
-0,000138570228124032
0,00270168865926733
0,00191007734124207
0,000428035791166559
0,00137172883180591
-0,00089628162222465
0,000681064010230854
0,00211488396402532
0,00168063051212912
-0,00119657012237208
-0,00136320051706536
0,00218540247970633
0,000923411556730114
-0,000699369240026733
0,000162065752871782
0,000549580125482577
-0,00179501963106258
0,000911060542978699
0,00202181109433102
-0,000289339551173799
-0,00119365072031629
9,03077267177076E-05
-0,00160717294938041
0,000639448863483029
0,00127608496078824
0,000661654973726236
0,000689145535208167
-0,000247246934987503
0,00156609802972229
-0,000317072843698305
0,000811698815354792
0,000334539182934697
0,000695592493982732
0,000473652232747245
0,000248604953356648
-0,00065841784720843
-0,000222013700780875
-0,0004868905403781
0,000541549387600397
-0,000489121670100904
-0,00152942166862262
0,00113681156622478
0,000229399217438966
2,2329701662696E-05
-0,0018403419266189
0,00076356500926445
0,00090074577025474
-0,00116621798683084
0,00079169850350721
0,000565588684356401
0,000156558042571836
0,00114979596185388
0,000760600183792231
-4,58740103217863E-05
-0,00101235454151339
-0,000935334558968694
0,00154602209311024
0,000695601334235207
0,000661717553549551
2,18043782823006E-05
-0,00117069640408059
-0,00252764108902636
7,34586128155797E-05
0,00122063809616116
0,000268234599844177
0,000653661574106781
2,37997639722615E-05
0,000380984385560004
0,000222461118926174
-0,000744387142082781
-0,000616327851412524
0,000827228270839435
-0,000197444703053379
0,000386062329640809
-3,10532550112329E-05
0,00138314627666812
0,00132630975142838
0,000215607993714671
0,00035222177053955
1,89964033392213E-05
0,00034763446645162
0,00056851174372935
0,000363299141101242
-0,00134884086851886
0,00136380274673392
0,000231158839841288
1,60872529689919E-05
0,000909370796846109
0,00110845491041168
-0,00107167771299889
-0,000950408130715489
-0,000222371777444147
0,00049696147544492
-4,65252627823204E-05
0,00158831568262771
-0,00124380482192624
-0,000672305420705856
0,00123839796863494
0,00166577131576731
0,000546341823642286
0,00186722086547133
0,000314802012895921
-0,00142231194343441
-0,00101369320253227
0,00080046514389089
-0,000394726455253276
-0,00186358042373293
0,000830606128414392
0,00068107308658905
0,000320876888929185
0,000137095750777524
-0,00103229823051775
0,000685962441854695
0,00016198550955257
-0,0011988372100211
0,00132755516883486
0,000447967884111565
0,00134446886113894
-0,000381742170763295
0,00147986500405222
0,000409155805125182
-0,000334370989033031
0,00104277990889766
-0,00168055114260791
-0,00136318854140371
0,000369912430774278
0,000342847805685281
-0,000730852876295304
-0,00126552695974764
0,00149251146829368
0,000231798294369426
-0,00109404123810609
0,000609934460190552
-0,000408162051968864
-3,78693041554216E-05
0,00128967438692226
0,000317209212850045
-0,00014178202709015
0,000343357299333016
-0,000245843932410148
-0,000603277391151517
0,000160526632626103
-0,00218397231522024
0,000733093223949354
0,00060628673876058
0,000631323792692166
0,00155141569251351
-0,000119096291370736
0,000867642005846969
-0,000159032062537607
0,000539816700582572
0,00105959897848969
0,00157855174260324
-0,000746064207563996
-0,000544696007600975
-0,00047502376486392
0,000523894492369495
0,00286135683407571
0,000665208784790102
-0,00102617862107038
-0,000545946298225225
0,000184578462886588
-0,000505811952368272
0,000546245169338341
-0,000882853287354535
0,000721712777000799
0,00190885593580374
-0,000547958730086101
3,70115209493859E-05
-0,000115404046336745
-0,000662507719474645
0,00139608721929547
0,00129770135545623
0,000334848090749477
0,000278911537123641
-0,000402029930260091
-0,00168450465094303
0,000137021132490542
0,00051252347288919
-0,000297917587901291
-0,000252928049629794
-0,000252856639902486
0,00165797017137663
0,000858764523207855
0,000343337726429142
-0,000643520495954672
-2,06763278143216E-05
0,00146389138858354
0,00154850330350804
-0,000545428360474825
-0,000363464253826749
9,01338802722002E-05
-0,000435890073758233
0,00132199956515634
-0,000483498398276778
-0,000703315008598287
-0,000334287000779575
0,00137829183863221
0,000457328275869414
-0,00186577630628173
0,000929345892041333
0,000710156306970104
0,000100077824351475
0,00137714097010749
0,000646995380667581
0,000305410628013061
0,000412926625269343
0,000233506340796686
0,000118804994022124
0,000758305733984138
0,00135419271276651
-0,000316171230896583
-3,30130785297316E-06
0,00138549373728727
0,00105448569079328
0,00212508088653926
-0,00045647837169181
-8,47569167709639E-05
-0,000459121300968311
-0,000965959368389911
-0,000104280167605281
-0,000453595352577911
0,000124850416392501
-0,000719296843459814
0,0012444474601788
-0,000732464329912476
0,000111972164447135
9,52591094694036E-05
0,00100214872408148
0,00111867260256428
-0,000275057384888537
0,000660487439522009
0,000888022938667862
0,000132757386369514
0,000777016354395777
0,00088812340498126
0,000928393312107351
0,000338559405932439
0,000599881113957213
-1,05073671395992E-06
0,000542601039232258
0,000811719691450664
0,00130677142406628
-0,000272559636823284
-0,000425870461714991
-0,00108701418858881
-0,000289796838026484
0,000126173297724902
0,000490597905036131
-0,000441247825605612
-0,000224692211190432
0,000429555407222337
0,000525677516258282
0,000782266858282665
0,00148828073656135
0,000206925089137937
-0,000149695216387686
-0,000894783641445181
0,00055993940524134
0,000115047228147435
0,000955296970815505
-0,000395759338453734
-0,0018020187243677
0,00128980986819887
0,000960631790654548
0,000724793283250931
-0,000176812416307533
-0,00120692703103517
0,000381697941559252
-0,00137464455884697
0,00215235172567549
-0,000300216584696804
0,000743235495417753
0,00130400271955955
0,000116131033744118
-0,00067212314872829
0,00140778253325729
0,00117029412533302
-0,000213261259839081
0,000899559488834748
0,000769309479744185
-0,00015969063778927
-0,000946918912157202
9,58973738399593E-05
7,47858741624376E-05
-0,000283437223896265
0,00191109332066475
5,70736652358335E-05
-0,000218976132698862
-0,00150517759933753
-0,000457091514637692
-0,000897525657640513
-0,0004131177297563
-0,000743623329064088
0,000749687593241355
0,00102725012984482
0,00102353919918235
-8,12394654756932E-05
0,000259156135435573
0,000558027743214984
0,00168594227164331
-0,000867424101079115
0,000693922299272256
-0,000539414809123887
0,000219998881902345
0,000837817948852936
-0,000533937650471376
0,000193023128418947
0,000749682377496894
-0,000776485750615061
0,000632474578821639
-0,00051868337145172
0,000761131141353565
-0,000180138460544445
0,000804462674476244
0,00124668785349008
8,39507780078936E-05
0,000580001881948484
0,00018829650646491
9,64769929170146E-05
9,46712740928498E-05
0,0010682375967167
-0,000745229447830159
-0,000413942878015811
-0,000601932794319095
0,00149281678331059
0,00152369479831277
0,00143438907536211
0,00272844328355272
0,00149412644050653
-0,000872312270123495
-0,000764160514835649
0,00128776090856695
0,000482979279427965
0,000881780343355553
0,000296810705863693
-0,000899468357596954
-0,000897469083210529
-0,00201353911475204
0,00102032380076295
0,000616823544456939
-7,16676909365575E-05
0,0012813012952891
-0,000486648107130448
-3,85313673104561E-05
-4,38420222069511E-05
0,000531008018507538
-0,000931008531188712
-0,00231263395244458
-0,000984427693742232
0,00030362291097522
0,00077527597887447
0,00107707122103792
0,000892670394333854
-0,00125529415772872
0,000781432829789514
0,00109405208219786
-0,000773466715180448
-0,0013685275677823
-0,000585468278042337
-0,000839413813538779
0,00151365584809214
0,00191576266596873
0,000145218902941809
0,000481195225056807
0,00135405618490286
0,0010384048013535
-0,00159702721099743
0,000812708744004488
-0,000225420707979461
-0,000891742553139902
0,00150162036738108
0,00133837338439616
0,000654749025037082
0,000525667366526262
0,00158640810591032
0,000697698739679011
0,000203834450830626
-0,00256828598807657
-0,000306910276231256
0,000200551212513382
-0,00276897175292645
-0,00138404067882839
-0,00152773212918779
-0,000319315431579797
-0,000510049384046115
0,000693691869733057
-0,000781110483858361
-0,000218089067810615
-0,00052621110586457
-0,00149934751130581
-0,000609897376501401
0,00240481660265636
0,00279409211341296
-0,000321825215699971
0,000621446600334256
-0,00129327197994501
-0,000372253152531268
0,000688351167007828
0,00286522568378238
-0,000621186684501943
-0,00201535093334357
0,00279305810289817
0,00141418291202605
-0,00122576152714741
0,00111803618950462
0,000376542251767418
0,000619984259685913
-0,00199213703545357
0,00142808431692338
-0,00139893875663438
0,0021446100234334
-0,000935231041797542
0,000186008799479831
-0,000528775384057839
-0,000316193934608336
-0,00106700166769232
-0,000804897885449587
0,000817176946889506
-0,000473554569710174
0,000433772451293669
0,000564492346765203
-0,00202415378465721
-0,000350985334181078
0,00108405281227582
-0,000850252815007872
-0,000241036172958232
0,000955661026151766
-0,000616811734255803
-0,000331960478513464
0,000277925560595553
-0,000738853991420446
0,00127687847777616
-0,0001290485433771
-4,89566895683329E-05
0,0013140863725997
-0,0045091824771013
0,00256635452869202
-0,00077910803193997
-0,000840259035852821
-0,00149182027889054
0,00102102317863938
0,00133308978754274
0,00180085464744327
-0,000833055417709873
0,00162483666137869
0,000265912405529517
0,00169359652481383
0,00213177495969785
0,00114297751970919
0,000404330688245924
-0,00280284792499301
-0,00354153496267576
-0,00439695695589451
-0,000916969928805194
-0,00180563357681136
-0,000198116251995508
0,00106878642993213
0,00463768098165887
0,00236546766363877
-0,00182576897845275
0,0024030258773831
0,000288795345709039
-2,04103631084507E-05
0,000883922197886525
0,00167338233173009
-0,00103015311806385
0,00168440586921305
-0,000335425437362945
0,000497872433115954
0,0013656417636205
-0,00173725764201359
-0,00266164517227121
0,000470239465145693
0,000867070305044315
0,00207035264821399
0,000136505306409999
0,00060329409167215
2,9969995941461E-05
0,00301521883045468
0,000984036163440674
-0,000215275800880237
-0,00141729579502899
0,00158392425604167
-0,0018150196930878
-0,000445651407276099
-0,00392680241569408
0,00226864268089198
0,00217029900334078
-2,3177460962756E-05
0,000815899537837505
-0,00126366976328945
0,00129306821423246
0,00231344144012766
-0,00269257629667417
-0,0047280861637582
-0,000378158201750009
-0,0014839667591658
0,000969503168308237
5,76258233675602E-05
0,00189687055741391
-2,3570899494437E-05
0,00211714281985342
0,00130625624297106
0,000241769250454353
0,00573311797570163
0,00336604964505957
-0,00287502155108201
-0,00224761482399142
0,00105638870888208
0,00166843272416979
-0,00338904239200151
0,00275681076788294
0,00264558147519727
-0,00140639150978526
0,00141369658968248
0,00104497508330956
-0,00313625503581656
-0,0038307516920135
0,000425961768458147
0,00152880696310297
-0,00286106537706204
-0,000562351547466133
-0,00399062115120474
-0,00190274254986565
-0,0042396521494009
-0,000215670099992252
0,00466548672477198
-0,000384343697406744
-0,00414236730860532
-0,00256410353954806
-0,000515920273891509
0,00199941003699748
-0,00113440330162731
-0,00317894381077932
-0,00223552740303914
0,000950586812381871
0,00100469078870337
-0,00036227514906874
0,00127004296201232
1,26726078218098E-05
0,00233758172935772
0,00274582074471004
-0,00239565973799855
0,00261301919538188
-0,0017325419697697
0,00192333135595478
0,00248204271677351
-0,00054265170096538
-0,00178060358368132
0,00177057814645661
-0,00234138686110723
0,000809732495691675
-0,0037628020854819
-0,00366420158965535
0,00266042948736685
-0,00314365451517316
0,0032517275701033
0,000643549596810137
-0,00332054125711201
-0,00116422140082655
-0,000197031340555706
3,57768955499564E-05
-0,00241003349351075
0,000519586313015894
-0,00462578714555803
-0,00334763464829651
-0,000920000428597143
0,000527646635515391
0,00412959318784252
-0,00465889170990367
0,00470387280092408
0,00404865668820873
0,000680717989617811
-0,00124932643284316
-0,00771876650719512
-0,0027409850825229
0,00174066494730759
0,003312449943671
-0,000317921811198031
-0,00114948256136978
-0,00243421993228571
-0,00831659538354643
-0,0033626780928617
-0,000570564913463212
0,00351736482089707
0,00119734106607352
-0,000222863790680341
-0,00404495108705076
-0,00099744385798077
0,00938378765590856
0,0106721424687199
-0,00514745318188893
-0,00863978451086044
0,000561969052603532
-0,000594806529548118
-0,000484491046767246
-0,00433513669150902
-0,00321658785196495
-0,00632025974197942
-0,00326366575152369
-0,000937911461806895
-0,00118188283088345
-0,00152930019497862
-0,00055467080998019
0,0056920107717304
0,00395227401576999
0,012911334213651
-0,00166479307378938
-0,0131821929824585
-0,000660063536637925
0,00777552802099412
-0,00846875531457408
-0,00165608331674991
0,000685255828720695
-0,00347464561132292
-0,00419246454117062
-0,00785482071666746
-0,00259737542702174
0,000746038269641994
-0,0040087457276695
0,00575683908238013
0,00650235778565841
0,00263111309551172
0,00180622494542891
-0,00657481324658597
-0,00289519637705818
0,00637063198324796
0,00251555774632136
0,00864552910426574
-0,00926219873594787
-0,0126433596856587
-0,00518121555373758
0,00482479248475025
-0,00525079535125672
-0,00116424971234509
-0,00807564123543466
7,83766289197717E-05
0,00337296395573272
-0,0126877951641491
-0,00297952367811799
-0,0110428878780858
-0,00591707706662427
-0,00920868270569818
0,00430427632653599
0,00150408611457627
-0,0144085673452841
0,00237012957714789
0,0137164683894676
0,00105394192814967
0,00227609420873356
0,00652314290252298
-0,00788501175396113
0,00826729309818812
0,0135557632997567
-0,00205907110890409
0,000491720754993941
0,00717098538338539
0,00690900059544899
-0,0113740020145591
-0,017451711317228
-0,0209544399729018
-0,00778831499058568
0,0109457649239473
0,0131414547457144
-0,000386552852422636
1,98397595369691E-05
0,00484515453834105
-0,0024323635783109
-0,00731831084013276
-0,000291731874658574
-0,00950948640553452
0,00823070329449902
0,00321805947925578
-0,00091297764049646
-0,012489813282138
0,00298959107889619
0,00010106617663919
-0,00487623452910413
-0,00232282517323709
-0,0164290711253865
0,0139313938290657
-0,000424453272188926
-0,00363547014188407
-0,00899208532757258
-0,0142907977647353
-0,0120596409738653
-0,00548008435669104
-0,00390766854736194
0,00865338937513948
0,0331579772285212
0,0151068282486214
-0,00250402480324141
-0,00143841230253556
0,000831985623568278
0,00846626989029978
-0,00610969437604762
0,00652731007320565
0,00478963507581226
-0,0209944366429772
-0,00436567031205468
0,019456196806257
0,013158200915672
0,00458950022625081
-0,0325930043625505
-0,0333990528751079
-0,0189512377493262
-0,0258803879431115
0,000469049770456713
0,014969189171394
-0,0126922375744601
0,0060914905207445
-0,00649469465941421
0,0111839819597702
0,0426015430872528
0,0263688002855169
-0,0114917427302794
-0,00283930657135169
0,0405866268288912
0,0932228631689204
0,0510810454870431
-0,102734078245773
-0,0185417570030616
0,0274961690052886
-0,0232499861715884
0,0210771445081779
-0,0215856597358306
0,0405905214844048
0,0476559279157199
-0,0298298160733555
-0,0612161733914702
0,0346180933717421
0,0304987635081503
-0,00824523388626587
0,00182567044772478
0,00604621245950223
0,129615560381817
-0,0295398210677087
-0,0318047842419041
