3596
4000,36533379555
650,420452594757
1
2
2
0,0192162673201218
0,0336854110842968
0,0249871964312829
0,0146108619130739
0,0229231193870363
0,0263014150019059
0,0254533782290835
0,0122238102155545
0,0259854647181507
0,0264213855361154
0,0271081136281225
0,01904221371457
0,0212996900244211
0,0192008230232689
0,0263524997466601
0,0173388488174632
0,0251118621587347
0,0249921491415587
0,019620072553508
0,0230658540013729
0,024077675770559
0,0160924895252218
0,0247518702088297
0,0227734262460031
0,0193708013978474
0,0166875922824877
0,0235156119507503
0,0115541083801606
0,0224791148277004
0,0226632778266773
0,0237887681721663
0,0225732104605162
0,0263463047676826
0,0200088980281728
0,0320111533230281
0,0205659945864968
0,0228238138290015
0,0167277520650961
0,0250824363794964
0,021130969202285
0,01876106079392
0,0196683194078528
0,024518586712354
0,0265897740697108
0,0351687181942272
0,0234139428124072
0,0226639960319687
0,0116588030900747
0,0205608955121731
0,0244105514203458
0,0236653936078978
0,0187966628546614
0,022450688400661
0,0148225899199489
0,017940945494788
0,019389699430749
0,019642182654969
0,0244473838999963
0,0263697578127456
0,0151532739904936
0,0192599018433616
0,0241897724523008
0,0194644629443556
0,0203836800089578
0,021305800904743
0,0257998154565047
0,0305453596915364
0,0214757379163499
0,0233280054568072
0,0187838638525055
0,0233312968342889
0,0242124039861335
0,0221960900699658
0,0123146294107829
0,0283563029050998
0,022221665493682
0,0161159256051989
0,0156336734889023
0,0246923730458045
0,0177654073228066
0,0246477762056223
0,0138242753223318
0,0244334983295146
0,0215788878682603
0,025378715122912
0,0246968343951073
0,0207125234707661
0,0116427950143921
0,0270667657745163
0,0100276790972797
0,0154191085005662
0,0169924624972288
0,0190757670853419
0,014908498649395
0,018419201721816
0,0134297642366902
0,0239354746602804
0,02056973230176
0,0286301826227701
0,0127649117684571
0,0256639919160455
0,00908657010186905
0,0229116303568965
0,0179539818780007
0,0206910817912693
0,0283527329227376
0,0123098626521356
0,00949449592142297
0,0146832437035626
0,0158474902837961
0,0207570095544343
0,0199349908238863
0,0171353231559771
0,0129841872687496
0,0203115685280479
-0,000290173939128444
0,020821372547866
0,0165749431599218
0,0218521804546085
0,0142802292616877
0,024721689233022
0,0073633908281229
0,0264580108758299
0,00768130387382422
0,0197998753234231
0,0104044548101397
0,025071819437522
0,0197908741701921
0,0220895168690684
0,0115268343027996
0,0260081773166486
0,0138807368736633
0,0278547143213834
0,0115924669215998
0,0145679874365267
0,0147997637578009
0,0220129066738964
0,00961314802411733
0,0143111441331924
0,0120433320183798
0,0199875016578274
0,00853541627555999
0,0151632421471759
0,0193183053564216
0,0283104213190234
0,00796586343692218
0,0184074257268615
0,00398743092338734
0,0231036341217441
0,0118653587256357
0,0228595770243728
0,0114075797569093
0,0112025187221775
0,00797080038733005
0,0323395764316746
0,00303816429023612
0,0558459253661555
-0,000497015443121132
0,0227406451301403
0,00461370624259677
0,00639287797593132
0,0120712877348462
0,0204844537729992
0,0206330277890349
0,0111203342364639
0,0225704855913218
0,0149036911976873
0,0192720463817285
0,0218438334035028
0,0171124222112817
0,0199619489708625
0,0176321967858919
0,0193694627435848
0,00585157007094753
0,0189355819690992
0,0113245331064619
0,0145481286035826
0,000575277863993567
0,0181348766863695
0,0153169424473932
0,0217635218972752
0,0118181532327299
0,0173940418205084
0,0165990657420346
0,00649517931416013
0,0116775410081829
0,0195450766929689
0,0133959406445494
0,0225208838053457
0,0109149006291469
0,0138965160549337
0,00349759522661355
0,0197305589338064
0,00772751523544929
0,0139553518591788
0,0166108030151314
0,00956040297711906
0,0206718149157747
0,0169390341478212
0,0101072155620493
0,0164246795016532
0,0138110476275302
0,0247922003910964
0,00970260356859061
0,0180444442858021
0,0150312900725832
0,0134080065686839
0,0241587257508843
0,0108194245702953
0,0133341281281757
0,015458279114801
0,0142061544940307
-0,000284414572152303
0,0254688028317357
0,0108935331653005
0,0146109940551395
0,0228195964396524
0,0206105502619154
0,0191249813940516
0,0116808375974822
0,0172376027644878
0,0121889086269812
0,0171062967599131
0,0181985760983895
0,0167990161618074
0,0175849216716004
0,0219270681236873
0,0192769187616918
0,0209466600999604
0,0161051535417578
0,0239616341430174
0,0162599334945723
0,0204907912581183
0,014685527954161
0,0227044860369691
0,0135292703218792
0,0240308300530521
0,00860848286731712
0,0160421480751741
0,0132280184661637
0,0198961827637083
0,0209148103540403
0,0173748591749049
0,0124392215189921
0,0211581661451597
0,0142505724907775
0,0144950108998926
0,0187188698978686
0,0152379826453296
0,0235998216337071
0,0108739818339995
0,0243754246057789
0,0136506345545735
0,0181916119056343
0,0126028964472954
0,0199775985715367
0,0122436585879573
0,0216510879190036
0,0222804508172242
0,0209823942182617
0,00972870361733779
0,027652534688744
0,0182934554857786
0,0189407800888209
0,0254092590622562
0,00093649770220611
0,0319717102583728
0,0240573564244191
0,0164640273320505
0,0246523082337144
0,0108201425264973
0,0212968352852156
0,0177148577410042
0,00553192975886153
0,0184681540810633
0,0141199952769222
0,0174712197020205
0,0100648026781504
0,0240584900340582
0,0127116347948792
0,0219835615905807
0,00409137120596969
0,0307958195175685
-0,00476451023838609
0,0111721071401122
0,025549380937308
0,0085824419900854
0,0307343537193483
0,0152659012600569
0,0198437245799688
0,0127010179333067
0,0250342367638957
0,00512764541668841
0,0277418253239903
0,0195270835590633
0,0262907699381768
0,0236823269747303
0,0223817528589024
0,0202540022522957
0,0194770887987248
0,0261672229133799
0,0226554773563223
0,0302694062605943
0,0184644151031676
0,0286720485813739
0,0120391591998042
0,0292849717669014
0,0235729621358016
0,0234069995787229
0,0308654230161076
0,0208785230618842
0,0196854291539572
0,0235042652113523
0,0197626389818871
0,0250244764964669
0,028417799276369
0,0194163068587553
0,0196009637198901
0,0336815584021124
0,0133947688321159
0,0337912855941742
0,0206872483191869
0,0328164641788122
0,0319513342859708
0,0249249759347252
0,026869276383406
0,0300811433893649
0,0270379753761131
0,0331968990233499
0,0340494559333563
0,0185891342311587
0,0282062426408789
0,0377919263694935
0,0213392712134044
0,0367525027624416
0,022735769406098
0,0304375981209861
0,0307293510379219
0,0285466494976972
0,036563670278071
0,03316710541855
0,0328578410036528
0,038074338055625
0,0312708094658665
0,0427627509496436
0,0395897718635719
0,0412444424564342
0,0480661043295948
0,0313754062338664
0,0349737814795512
0,0364976235714988
0,0496541179888446
0,0252417783811621
0,0438911647767734
0,0395902661707317
0,0251837478342299
0,0399441612838492
0,0400807317631562
0,0537054464518847
0,0500856920810811
0,0520503608081685
0,0449608309190073
0,0510729044309578
0,0446044409025014
0,0577429770320496
0,0512743613017238
0,0618472822868988
0,05842248758787
0,0556480511196419
0,0575915107958451
0,0526420806826442
0,0588045610512747
0,0729930199130887
0,0557601184422566
0,0701232307761613
0,0519160792306114
0,0634244070978391
0,0740119014392612
0,0711442858602687
0,0659853279998926
0,0664154442232358
0,0765111196676545
0,0686675647207805
0,0796184638676438
0,0819778269111193
0,0850455115563016
0,0820471893537522
0,0821204267122143
0,0804790121089905
0,0945940483422298
0,0857218321132024
0,0986745919651619
0,0912517550514978
0,105921169135892
0,0979748243567401
0,106371449510234
0,0967881952293587
0,121468144128717
0,0855335521746016
0,0955629903609877
0,100552539149509
0,100874923964775
0,109545744145098
0,115953663618612
0,113645625917853
0,122353416316293
0,126064665120009
0,122123368108835
0,128238369477005
0,139030530916963
0,127246475119186
0,136044169678225
0,130166973375585
0,144860979288604
0,123612619883961
0,135712861577209
0,140163460612054
0,139987605916443
0,135268679805884
0,136939805733324
0,15199116951847
0,145686236226312
0,144839381387272
0,139537525739648
0,163900302674342
0,162691441644734
0,163412881124624
0,16338067334274
0,16396236919213
0,163115694708248
0,169885810714391
0,175803405537429
0,1716299881499
0,174990525951641
0,172390726700263
0,188275263664553
0,185760695188973
0,195381902135377
0,191881870241519
0,209339857822079
0,200161252962956
0,209747499336668
0,198288491009852
0,206442692439036
0,206144371784174
0,210328647437221
0,211824012990114
0,21533376681419
0,22330308584291
0,22679450887315
0,230339791988274
0,246493237946357
0,236927090181592
0,228460770096117
0,247985532340693
0,252789647579366
0,25002457021033
0,254829450560697
0,246050077213969
0,265657369070282
0,262041354949561
0,269732295739673
0,286438106155486
0,27306893608193
0,274011158395216
0,284641087843758
0,284721304651462
0,289398149045822
0,285431947494415
0,298962786273904
0,31753847500228
0,32164947957931
0,315729353873153
0,312399287560678
0,310601951697158
0,335732636483207
0,315960769197493
0,334746614938958
0,328711969722421
0,327791866978233
0,329763154432801
0,3374667009748
0,320592026191468
0,347549741938867
0,3601098701203
0,372639323517424
0,355335088732717
0,371042497944176
0,337882258917558
0,377474495125345
0,364663341116866
0,39638157667333
0,3874880012717
0,406741648129155
0,382792209703049
0,416322158909918
0,37729889844479
0,408504214448371
0,395127838834021
0,422718270080408
0,415395252357473
0,426172985272053
0,401882357848515
0,437073610394949
0,448694729538394
0,46439759487377
0,417798849886525
0,431654552492864
0,47002498154386
0,455854029667815
0,466521483157541
0,48212074240672
0,474027177183166
0,468379295040455
0,486666573195621
0,514675621578557
0,48474994056595
0,497722332727879
0,477533510234492
0,513430712184372
0,502020617192073
0,519967903476429
0,5089094389663
0,537879640568421
0,499738213484689
0,553205865558585
0,523200212123764
0,555139497007867
0,539449793430763
0,582872369167184
0,556835941467396
0,58260923989299
0,524191030089799
0,578455004535532
0,552130137583927
0,583063863562663
0,547334933986465
0,565775941075399
0,562404684471274
0,643466154982688
0,584129381259344
0,633892171959878
0,626282890551931
0,655080847358669
0,612537143709056
0,654828618806314
0,60788896125077
0,62422808812125
0,604597412134498
0,656434070581928
0,607689150066624
0,711322109460179
0,648532406760965
0,697812032412046
0,671483780342887
0,685490581018395
0,674212629642982
0,667020930984793
0,667352786726997
0,754140999779269
0,684709429644017
0,719561649621406
0,677175420045368
0,725564960585629
0,691558697343275
0,741175506116829
0,714592400881277
0,712799817536784
0,68641801684138
0,74765182763933
0,732257485671134
0,740552292143021
0,740626646015725
0,840712723203847
0,762862313544498
0,797906468585836
0,751178610656312
0,799144846444379
0,720831351896555
0,871591722831135
0,772552955054087
0,839072221718956
0,781806557523708
0,815034089527174
0,813646214573585
0,904403112844768
0,791155012920644
0,922205446244344
0,79278084110329
0,892930015967604
0,802498349906613
0,91987168472315
0,842845950352728
0,919654728935962
0,81299606735955
0,892191242254629
0,809440842113214
0,915237853194866
0,79395055480415
0,884778671776638
0,806233084780601
0,956093546812175
0,84682984283382
0,928549538670364
0,8356110159262
0,902662524974186
0,83575688919007
0,956840153895326
0,87289288974333
0,970596902122377
0,935305479309127
0,951377681115858
0,925335119357811
0,984538444751068
0,958242919019679
0,982581167051072
0,930120981702194
1,0092830815867
0,989509759839434
1,03740203077231
0,929127207522434
1,04350861489066
0,903583827798945
1,03754526092567
0,961556666357038
1,03906470436941
0,941717424884214
1,03036307228642
0,991511562864912
1,02277034829072
0,967383144515745
1,03170159734786
0,964155008007057
1,06664387949268
0,972620302256842
1,08665365657814
1,02167064333731
1,01733810575968
0,981688914263063
1,02811275227209
0,995070982319873
1,02082996400888
1,0085040859146
1,13827130314403
0,988610050747744
1,13873152247547
1,02004514543997
1,13087429374499
0,999222091015194
1,15562045669141
0,992462618553752
1,07083598940184
1,08984751022744
1,05951348904466
1,0405520339517
1,1180775288314
1,08232502633118
1,17075077511367
1,08492323796071
1,29229453063775
1,09433291285748
1,1387816743718
1,04230375666413
1,14306631523246
1,06147287895317
1,25312891399384
1,1275003570801
1,13572449022267
1,05507374852654
1,13351154040067
1,0951866730305
1,20955454850107
1,05482815422761
1,26587464528264
1,0698796479048
1,12941589756446
1,08284935092554
1,23198483615108
1,06391298507862
1,19620273524471
1,07591479225244
1,16154187829101
1,11512373351625
1,30641664383454
1,1605744908179
1,25880684125756
1,15137760216437
1,20327333546611
1,19431496315371
1,35887143421895
1,14332702455181
1,23789613520085
1,12115999468906
1,22651479464354
1,13565436119953
1,15423714721926
1,1479024795324
1,19523903746361
1,11469634889658
1,31816281033938
1,27426359360614
1,3304053497822
1,13465794131773
1,28623136598272
1,12988484008408
1,26038671206849
1,15992492021023
1,24238326100604
1,11131539255254
1,20710611572346
1,08424809777389
1,2150653086608
1,13979375674121
1,26326117815093
1,14692377015402
1,30034682705985
1,15351842911574
1,28740136924846
1,15097887583028
1,20747407189196
1,15933637182206
1,25471030950892
1,1494842346401
1,26103622402382
1,10074696443364
1,34072377384996
1,16048598610928
1,21595285453101
1,09265970645353
1,25738670565826
1,06972405534327
1,25772821242921
1,1978743731869
1,35619306653516
1,16113959480547
1,23472191774769
1,16761731475228
1,26054439873637
1,18142214147072
1,22812827436605
1,12999978363943
1,25471841278963
1,13578348196303
1,22287654201345
1,15278547328706
1,28237398442757
1,15050501487972
1,20901563084023
1,13806442957938
1,30491046287302
1,14179003254484
1,20330962123097
1,11960102308126
1,28600435543605
1,17795204790071
1,25921835010067
1,15910702650051
1,19460043511218
1,11218818835376
1,2219347015276
1,16138435460952
1,28119264571515
1,17370161005519
1,20918700307111
1,15012616241923
1,17270461592142
1,14357499666958
1,18707547284278
1,20070051112137
1,20375751619133
1,15536978362528
1,25028972194021
1,13612167464031
1,152321740188
1,18314300867772
1,22808087825949
1,21798854562212
1,19183872732139
1,19691172975571
1,26538598004837
1,16803224126228
1,18772484740937
1,16569160711933
1,24061977698505
1,15035578779629
1,14982914779193
1,15147288039282
1,10653003350219
1,13961487892625
1,16283560622804
1,12151626491996
1,13651660635253
1,15039738355762
1,19431282182951
1,16210115619781
1,17942099964062
1,07437322568721
1,16479327182608
1,10011367792478
1,15852955951992
1,14378976872668
1,15982405542595
1,10566754690766
1,17068253519777
1,08336155403364
1,14394081914661
1,07975296433943
1,11056892562938
1,09854282091324
1,18656998207472
1,12974344978554
1,1258972185092
1,06229212685432
1,1839077034169
1,0569907594719
1,13649495342938
1,06824809693123
1,10879170409307
1,04316057026998
1,11310058362606
1,04267383747369
1,15156598195306
1,06701580740875
1,15626365348365
1,07468031806364
1,1000807594228
1,04264603356937
1,10439141642065
1,06788124880458
1,14403336402691
1,05924380945008
1,12295777037914
1,04690606195409
1,08416183951324
1,04120347689648
1,07161108020812
1,00616925142396
1,04192906230848
1,01705625075874
1,1028218467971
1,0342482369926
1,05076047090119
1,02716706897335
1,01166188402277
0,993956229826812
1,03944861525331
0,997142237708135
1,02362595726988
1,00423557109584
0,971960525865918
0,931118185914378
0,985619642285585
1,01997902712301
0,983071655301495
0,965326275079462
1,00821345188848
0,989911986011273
0,98473253141609
0,923192717196986
0,980250449643575
0,964661713646259
0,958358692577975
0,978908137559495
0,977860763353843
0,929642427549945
0,953835020150658
0,930162722077531
0,951684992179795
0,896986361427664
0,934300757539071
0,918621314229009
0,934984893813986
0,931665741477602
0,925985326434145
0,907410246781402
0,933847843488406
0,911377312559953
0,908939466936433
0,878764258015729
0,901314661685557
0,868035271888586
0,904685725112433
0,870409657425672
0,881670946638341
0,869839617779812
0,878676184903582
0,842526052731151
0,903730463142856
0,847183922318136
0,859787725231626
0,843584421734854
0,861548985766506
0,806947807223627
0,840044903074173
0,829466017590943
0,848060914723333
0,802631319977945
0,815999059174519
0,815268441664524
0,801174927242996
0,792985770798519
0,809418013843233
0,793356469191149
0,788949539261447
0,777194544266695
0,797984293545498
0,781065592269351
0,772243860506998
0,767225034466838
0,770486475006165
0,774802129315074
0,783914317602791
0,75144911786144
0,764369322111392
0,749671083763715
0,747409289471807
0,744762096122984
0,761503324364315
0,719580701383872
0,731274300283997
0,713764707220564
0,720504577261885
0,703914038027456
0,735064714035604
0,69510227585766
0,715712129993136
0,704363127253096
0,720825723156563
0,687809464599076
0,679419135500547
0,670090482501102
0,703919409791143
0,680251697255902
0,685240624879637
0,688256851117144
0,685790009348525
0,652317024767468
0,665533089274897
0,65500239898728
0,662379852076482
0,640438462958921
0,655129427176847
0,635301275771449
0,643403407059714
0,622424363830714
0,62864001790843
0,61913634115834
0,623199577245061
0,62608318287637
0,616404010766362
0,616178406083659
0,621069741754218
0,602688042949193
0,609289596870995
0,600249233136392
0,598905152902125
0,589495449956795
0,597273080640978
0,593522115062144
0,585684276503851
0,579287945099545
0,591398648989332
0,562120716743105
0,572759885346273
0,563223514947468
0,576834629221988
0,560543495042281
0,555594465649136
0,56332238634898
0,560223869882286
0,549894353157007
0,543683981486544
0,535972159961504
0,544290711419337
0,534639468142558
0,534162202940968
0,529497553529378
0,521981685016954
0,519800053957212
0,517910977016236
0,514570761646857
0,517729985644991
0,504458950221303
0,511662039788444
0,508170397868125
0,51567893839054
0,500476325052811
0,496455970145345
0,490814686037043
0,497457988233827
0,478578256496598
0,493221116894547
0,477813667149663
0,486111086418845
0,479364729070807
0,486526353422153
0,472287124755344
0,47766945009443
0,478457860482291
0,47096477319153
0,478308337878545
0,460607404393302
0,455061790684567
0,459372733861372
0,451200080278075
0,448993319977435
0,445874168104058
0,457565335139306
0,442445863939755
0,441614045309109
0,433314319783384
0,440827933109694
0,437631050100904
0,431389177833853
0,423683258775902
0,424513237800774
0,421164088898433
0,424294114954726
0,415513652804232
0,414123556571023
0,41853014284581
0,411984731925943
0,405212233950763
0,403543919363434
0,407867072825971
0,403501926017531
0,394266938782442
0,392288457315398
0,389946694986222
0,397724922843981
0,388724776355898
0,395216646241751
0,38814340653962
0,381665103031335
0,3790587147119
0,384165724327523
0,373122622506084
0,373726794898335
0,375306230553139
0,376796797293172
0,368585524594647
0,37590463026011
0,359341742720518
0,359244190866503
0,361136717583442
0,366327568677723
0,353112589330972
0,357064530334812
0,350141834519257
0,351991294468071
0,35122836964738
0,350600620598193
0,345729548111176
0,336361302638378
0,33592126649742
0,343853252564471
0,336994122474562
0,339871929136035
0,332769217388817
0,338509137500633
0,330120923945766
0,336444793065945
0,333549526669166
0,327397935895933
0,322862160051151
0,331953345232143
0,320461744040621
0,324275918902573
0,327930058641073
0,332324152430503
0,316886878338246
0,320404969776743
0,319248362516307
0,322878998241455
0,312220698894043
0,316803324834521
0,319757642973444
0,324889853757281
0,314168505429728
0,316373319834738
0,311604648488406
0,31218071940269
0,313692585823775
0,318711835957553
0,311149425592427
0,320920454126945
0,319825487613743
0,322667102758532
0,317526560067291
0,324656225002712
0,325968114261149
0,324331218416682
0,325444516046755
0,323274861711631
0,325712757874355
0,328213408943055
0,323056047477681
0,33168840603903
0,331982106345824
0,338504448512899
0,331814987352195
0,335756749621025
0,333727649116922
0,343337918376579
0,342190092331274
0,347194687396028
0,351341922539835
0,355454570691942
0,344528585970919
0,352935092420461
0,353473183099526
0,351540078870574
0,351593108744545
0,365386169893594
0,362035859028254
0,363888541753036
0,367731625656688
0,369729358077022
0,370832776186952
0,37007143629583
0,365323317478036
0,380808448489443
0,380455773874905
0,383680989581894
0,383422675954033
0,392046265430219
0,393303041208366
0,397440610603331
0,396359756726349
0,402810536913179
0,402923404021022
0,412579715142601
0,406015124287805
0,419739482008576
0,423498853542645
0,416013113271544
0,42060488019718
0,423930712968538
0,424545630389453
0,441377984535721
0,43831104538816
0,447711104505706
0,446522128397915
0,443246788419758
0,444747898998408
0,452510407105746
0,448180897861291
0,450969480193968
0,457967640892403
0,4599345604252
0,452965668053703
0,452237934694162
0,455719624166275
0,4667021501243
0,457415797602483
0,461335555802892
0,450717079843809
0,460689316264446
0,458121875226415
0,453767439483893
0,452446141244635
0,45891442242678
0,450389242840692
0,450339355658063
0,448179464914326
0,45300690243703
0,449747806213717
0,451068443895774
0,455191112788146
0,459287813944355
0,451603096949742
0,453853109369034
0,456125625268224
0,455436833960289
0,450902608727932
0,454476862499217
0,451985334700864
0,453068546673942
0,452732192291944
0,458008103360344
0,454123542743517
0,453808417597259
0,452965442165434
0,456858862112926
0,452541128612198
0,463601960802117
0,463006443097495
0,456558034005387
0,455950211236087
0,460365556125814
0,455410871465281
0,454047043636441
0,460913332961309
0,469558560449175
0,458680374760091
0,452985466045253
0,452987774367778
0,45562882172138
0,44790806837538
0,446962933674839
0,451811542321744
0,455652067460329
0,449551782565656
0,444393922461127
0,444474487372311
0,443292210236934
0,440879832211123
0,446488547303418
0,434676577281114
0,435057809297802
0,435942211154666
0,434875762459225
0,426015886318357
0,423142932777919
0,420686371903163
0,416933897776846
0,418617602491294
0,417623017880211
0,409379454045451
0,413663900502614
0,408360668163966
0,407303602205835
0,405672189160577
0,397329743091172
0,393129247830744
0,391561331834759
0,378114059601416
0,375614668139233
0,377970192961812
0,377089559041295
0,375925545872268
0,372469219303643
0,36803086612794
0,371004896476444
0,362138650910821
0,360833023583016
0,357923020415704
0,356424828459195
0,351617150117489
0,348912674403092
0,340939212483435
0,336650248225516
0,335246117965573
0,338267091491463
0,336527083677578
0,33023307538106
0,326646227222542
0,326589515052571
0,326193695611684
0,325588225039936
0,323836605007834
0,316086867745578
0,312181351195703
0,310747628554757
0,3039145975874
0,306187861605535
0,306097273980878
0,307622389134628
0,303901383833085
0,301099194705019
0,297731671894702
0,302729936600302
0,294641702021874
0,291629014013054
0,290513332789551
0,289638179957294
0,289247446745216
0,289329618596885
0,287521588548659
0,287838869556345
0,282389970338453
0,280654017945892
0,283313332035138
0,280595947721872
0,279825042817762
0,281923620434444
0,275361345042146
0,274068170022717
0,276565711311083
0,279650434289372
0,272603103749445
0,26517045115646
0,265586431274698
0,264191867377399
0,264397993276745
0,265923533515445
0,264036166705945
0,265455404332783
0,257387434437548
0,259569698780985
0,259261931907203
0,259100965020432
0,255876951460478
0,253883205082612
0,250191973160423
0,253561251496202
0,252144587021966
0,248335448435734
0,251378546800939
0,249973194328428
0,247545387518717
0,248383564033547
0,245882066024405
0,244942810437874
0,239598390279847
0,242164229170693
0,245276137863525
0,240829973565587
0,240678082200965
0,243998329122105
0,244763905539897
0,244594580241533
0,236973200424947
0,238228288377301
0,24003784158331
0,236889151017972
0,230518903978958
0,234083259603642
0,232406747430434
0,233926012077554
0,231241282376941
0,230631461336782
0,233175562739821
0,229901578434595
0,227889230754179
0,228404823322608
0,230336762570126
0,23033248712823
0,223265073435358
0,22196415495602
0,223622640860008
0,222632058547237
0,222380046975624
0,225252786704397
0,225220877131119
0,223126442938146
0,219522989942054
0,219390117318301
0,218074966404286
0,216347325806911
0,215567844674396
0,216634673740532
0,217788045905337
0,223173468943642
0,220421226671196
0,214636894911146
0,216350603165838
0,215457560881916
0,219999639735127
0,217702635474124
0,213680706667835
0,214179039637107
0,216239919849738
0,215780383351868
0,215467931217352
0,211050647291361
0,213003098270536
0,214733571419345
0,212553488054935
0,212075542655969
0,209681701353817
0,212682193339564
0,212351961724312
0,212049750421971
0,209147461666267
0,210448707369024
0,212105039266484
0,21262579350661
0,20587448602224
0,208893079797911
0,211211098973423
0,207048376671969
0,205947980603186
0,204393472878083
0,20826107685637
0,202812532781783
0,206351550843121
0,208552163600258
0,201302339006958
0,203637457442575
0,203262871998023
0,206334607936623
0,203128259120596
0,201903384720962
0,200304254596269
0,198213951159015
0,200914467145028
0,199458287283817
0,1975867996281
0,201375181122341
0,197078675206382
0,198922918656797
0,197431515158616
0,197249372581485
0,196659943705362
0,195820218856844
0,198296238499883
0,194675429853331
0,193391088463171
0,192449486338033
0,193025193155005
0,193570374112312
0,191286176026543
0,191680517976478
0,190833266720926
0,192561936541778
0,189603054799887
0,188554625919549
0,187870416402707
0,189413013218192
0,187891363400572
0,186532198676941
0,185938882526503
0,188077938387347
0,187218057421719
0,18387752883274
0,182677972936674
0,185435715456133
0,184864087506357
0,177178666368148
0,178096406155336
0,181330522779928
0,181844960359531
0,178542144448614
0,177812543973896
0,17956822272595
0,178915443328795
0,178519405080317
0,174614565794193
0,174668054315362
0,173012405957315
0,17501932859741
0,175621333197409
0,174429566914409
0,172937915706608
0,171614379907879
0,167833948168451
0,170181917201065
0,168359442900784
0,167183481841128
0,171636818372052
0,168850387443673
0,168056610723162
0,16740805938002
0,162425797165883
0,163673653567521
0,162112323280293
0,159702636741921
0,161524355065005
0,159542143260112
0,160826524957146
0,159717213869551
0,159130532958273
0,155011267548921
0,156335638589734
0,156384978637454
0,155396959830635
0,155683078473574
0,156125892304835
0,151739439769619
0,15337328810964
0,153009757239663
0,153461940785096
0,151316691954964
0,150200548888745
0,146916108538262
0,151120638829586
0,152279663988122
0,147665710686638
0,148723328935787
0,14454800367285
0,146905677105981
0,14177457967081
0,144353051846588
0,142743174663328
0,14325082034921
0,144478596281444
0,143078965035018
0,142133318197249
0,143269141430211
0,141116571504479
0,142987335070976
0,140126342927311
0,137054616684072
0,136548852470043
0,135935142829606
0,13918089642341
0,135772365136651
0,134479327611279
0,133804238610558
0,132979856504126
0,132923750574617
0,132235539781294
0,133534311799926
0,134230436410978
0,127443711128165
0,127104462506117
0,135996557248374
0,130354346204549
0,127633810465368
0,129031025776914
0,129168948431041
0,1269645025225
0,124913178752534
0,126273125971588
0,128468795779555
0,123507953712564
0,124111816609342
0,126467897885215
0,125952469031222
0,124815097363564
0,121761724384592
0,122083000010866
0,124975599816497
0,123407092882186
0,121410115271556
0,123933045569798
0,121615965768116
0,12248291187373
0,122110858671859
0,121401915062669
0,118572413594669
0,12420485990187
0,122378400677181
0,116842424504223
0,116174333988178
0,119288418647921
0,118613544154495
0,118779999580515
0,116534221688866
0,116891788424716
0,117512836119998
0,116022613794632
0,115635396459621
0,115972801782615
0,115241759681474
0,114882208279247
0,117056895526325
0,112123052472515
0,115873340670058
0,115347007530079
0,114669820755726
0,119360716707816
0,112388225151311
0,114456286253724
0,115415057634054
0,113607011737603
0,115851164938117
0,114968942374755
0,110892242539499
0,11196269423085
0,110257218692145
0,110466001542108
0,108136295920912
0,109227909869463
0,110336103877379
0,111938612190686
0,114111287622844
0,108838964144046
0,108641831971127
0,110650761588121
0,1108354134253
0,107911068219787
0,10396419524513
0,106640656143518
0,108215876746822
0,110330409654901
0,106961389632676
0,10905516393788
0,107192151711655
0,109759511967722
0,107492777410351
0,104716717355097
0,105040056096898
0,103462862008937
0,103327605138238
0,104093100447888
0,105836310642749
0,105628351032231
0,101245111802447
0,104975489899246
0,104367070752616
0,104578135559035
0,100524691121895
0,106065652656348
0,100647744149519
0,102298579530332
0,102761487139169
0,0998310305528849
0,102413284207381
0,102896846997622
0,0997538655784245
0,0985240858159355
0,0998953525665541
0,102380636578164
0,101359859504214
0,100373164080167
0,101890168074663
0,100758652986473
0,0995501949164094
0,0999398570474318
0,0978741750502147
0,0979582177899351
0,0988666555141265
0,101139783676054
0,098359135029744
0,0974446524242048
0,0961397387395711
0,0960761273665726
0,0960166027764332
0,0964705761604072
0,096188722227764
0,0932786723264396
0,092629307787604
0,0937205371424415
0,0940979563147765
0,0983111694682358
0,0941594686560624
0,0979168039143186
0,0993409935756108
0,0931152449821547
0,0947777103910568
0,0937264119867745
0,0929329686557176
0,0926599359045394
0,0897887803804602
0,0935082960793393
0,0911894828678517
0,0940103423258303
0,0899900022637662
0,0900234533982962
0,0883163581040653
0,0908329474173732
0,0900571851486364
0,0886913501393111
0,0830164658369432
0,0883671785213043
0,0870411894826976
0,0855394931719939
0,0854330883184137
0,0869210233848446
0,0864056242744041
0,0867028238166099
0,0855386570796751
0,0865944067765783
0,0885130560468852
0,0890248814793415
0,0826914744758905
0,0863820072035772
0,0842311616247187
0,0850974033494502
0,0827758663965853
0,0834194069534758
0,0797439678455034
0,080407962424427
0,0808556636941509
0,0808241043925538
0,0809825668285881
0,0812656714208432
0,0795700005584521
0,0810485187555283
0,0801720810720418
0,0793203224287931
0,0777713314270478
0,0788317770758176
0,0804137184245096
0,078572072558555
0,0765054053662996
0,0769333727198754
0,073036870801366
0,0754827739853962
0,0783185703199617
0,0785105316400952
0,0741225489785
0,0751811877894905
0,0767758530258264
0,0772228988382563
0,0741517544014675
0,0757973047497626
0,0742057317884354
0,0757320369967589
0,0718273907567342
0,0772043133534913
0,0725002141402753
0,0740043976545535
0,0706612558757201
0,0722159580691405
0,0686582249865372
0,0698079603373296
0,0706606446420858
0,0730423163119898
0,0695440316735102
0,0703251494664529
0,0686906950537217
0,0690992680022825
0,0703249647597798
0,0689961460784577
0,0666145463011232
0,0729091540344273
0,0685337035353569
0,0687552242668528
0,0684323320409958
0,0693081550779995
0,0676204018797148
0,0655066855368746
0,0677179326400172
0,0659938539082177
0,0643279711846605
0,0676465779104187
0,0668466482934577
0,0668333019917133
0,0653390048723355
0,065884157402957
0,0643978233657229
0,065460474188621
0,0664444373853054
0,0636856376449413
0,0629597457606052
0,0615976071855621
0,0656997425199433
0,0627048533795253
0,064163716241814
0,0657127630976617
0,0603733981211272
0,062875474827136
0,0607380224033311
0,0670357351874702
0,0601582122864301
0,0633386669143801
0,0606582541413371
0,0625666163098223
0,062686691932782
0,0619101142457699
0,0609363580666985
0,061967779506474
0,0577939752601679
0,0609929291336185
0,0545106133766637
0,0617789347942511
0,0545902219172752
0,0612929285914916
0,0575737906498903
0,0592106696862397
0,053729251409888
0,0552381100260528
0,0556662050545612
0,0597816132968606
0,0485235210840294
0,0552092847614513
0,050446258393578
0,0552056814426526
0,0480355470065421
0,0531059621561479
0,0486638396501554
0,049342942930124
0,0513762913922548
0,053127824491909
0,0503879869683822
0,0521027963038255
0,0458851285914978
0,0505604974607658
0,0435482834758476
0,0521057457283172
0,0472817883362308
0,0531245131423782
0,0475604198312532
0,0527588374726101
0,0512684592109392
0,0514544577219483
0,048132597119619
0,0525277029617601
0,050991884527334
0,0565743243446589
0,0470353772649152
0,0553546059977356
0,0480178702197596
0,0533484372302438
0,0488293529720153
0,0511111231726822
0,0458250730700948
0,0568900418550457
0,0446202037418048
0,0556106557737872
0,0491874489018381
0,0613722710543904
0,0480685626697841
0,0575929004811725
0,0470658728179152
0,0535758364070125
0,0444099213605646
0,0531452135609432
0,0442812989772114
0,0535115881185813
0,0424254506949159
0,0508634695597117
0,0459136008357957
0,0515387967091138
0,0456980269595308
0,0491686862677444
0,0516338166661809
0,0462322305314952
0,0535047327229148
0,0464125499230489
0,0586834325319751
0,0414830555325241
0,0626985808270761
0,0403247478740332
0,0591309933079916
0,0371761112711935
0,0575267737378526
0,0395599010714799
0,056278969428775
0,046596140714149
0,0547903613656312
0,0480186309502632
0,0515373070545252
0,0503604609757285
0,0472495400699576
0,050447172563992
0,0492601349794791
0,0542144923731905
0,0528876448156673
0,0481413865342474
0,0518786626694607
0,04929140057533
0,0506991660398325
0,0490538827094204
0,0532333262544771
0,0504816130778561
0,0535592715851774
0,0513884075757836
0,0527336942541529
0,0493311454951094
0,0524717264239619
0,0497367831851567
0,0501176273405468
0,0505463465532715
0,051371566324609
0,0505396529512235
0,0503425533758965
0,050394707124758
0,0523525849522722
0,0532095065954864
0,0531339103498469
0,0514711923368358
0,0521916879998022
0,0524630657719965
0,0524536779845032
0,0493501643697835
0,052516315412282
0,0508657948360805
0,0539564879449585
0,051082791072258
0,05271950503973
0,0499370242598319
0,05179868899849
0,0510687055505619
0,0540162621056519
0,0511201837074155
0,0531763234096209
0,0535569545050647
0,0514438219914188
0,0506313361817231
0,0507850634937403
0,0506366334353261
0,0531711509503792
0,0530191920342119
0,0514043211540895
0,051414609486476
0,0539480739446937
0,050630283255203
0,0526735579462228
0,0516856145906983
0,0539584161109225
0,0554349270547416
0,0528504137556063
0,0518544857625489
0,0528530851520485
0,0521116061241337
0,0524869132520361
0,0533400328972938
0,0497311855277619
0,0496839036977588
0,054669507319409
0,0539163664023681
0,053458354716541
0,0534564041615286
0,0534048493089352
0,0528600335027495
0,0518352926414809
0,0503224110771209
0,0545041538932512
0,050922608427104
0,0515159861099063
0,0515343456596557
0,0532240838432464
0,0532415337514318
0,0540140064258694
0,0554433432616071
0,0531325084604159
0,0532769807374728
0,0531615461782232
0,0512917715903483
0,0511717519799993
0,0517442780023939
0,0536489664954668
0,0545895404969115
0,0505540635007675
0,0538407401832434
0,0538268929577518
0,0540720788720048
0,0540985319490516
0,0539496901775334
0,0534529807886326
0,0546811289936809
0,0539928855671123
0,0528738342565768
0,0516768057545493
0,0544820020641633
0,0517596341832507
0,054760688288484
0,0567217386477291
0,0556474338781627
0,054961048037044
0,0546504409936374
0,0545477455298055
0,0558717806787105
0,0550970068988958
0,0565310079787992
0,0558694814243603
0,0552298597105003
0,0534039211277992
0,05578656964698
0,0544199895786011
0,0547883698658359
0,0552643191143068
0,0525130584379154
0,0561842763393961
0,0531471193292556
0,0560485390438028
0,0564035180786275
0,0566181648957654
0,0550866343528603
0,0561664556743816
0,0583412784851402
0,054158693869338
0,0582519615144143
0,0566599369375438
0,0586887591224393
0,0571397409278242
0,0562497671457085
0,0551352197298249
0,0562419246655345
0,058289717624933
0,0553139861441734
0,0563811086643879
0,0554550869601617
0,0576540519875566
0,0564826791666254
0,0575269851554744
0,0571871374544769
0,0569380944428141
0,0591461516114375
0,0581200370983702
0,0590545622025824
0,0560108644562764
0,0557642238366279
0,0579446408122353
0,0573855424587766
0,0576327986488933
0,0575990202997946
0,0600889042341288
0,0588147888902195
0,0567036019955022
0,0591033554982825
0,0582589315102077
0,0581985185424412
0,0582176704162086
0,0566547844912641
0,0582587291307721
0,0567777495805328
0,0588556370160499
0,0584253616712345
0,0588570046467227
0,0591546089964086
0,0598344371096452
0,0601110540759904
0,0581406584406385
0,0601238486658113
0,0567150886439255
0,0567900003968892
0,0586783845478359
0,0574909500641757
0,0597422023839324
0,0594716611781996
0,0570609110512681
0,060915099882248
0,0575790389866502
0,0588313428172368
0,0578423285046694
0,0576508549358654
0,0592850216531206
0,0574540458353916
0,0570665305285308
0,0553823140697418
0,0576103512390758
0,0551627565121367
0,05642112077803
0,0554444920083785
0,0565512423172111
0,0561054283019547
0,0573009171588726
0,055481452486676
0,0571144408044926
0,058102468218071
0,0563004075976383
0,0545805418887543
0,0550991409970222
0,0551640859685041
0,0548418744696759
0,058466168685787
0,0556530209791851
0,0559974190824967
0,0547277993413157
0,0545207035403358
0,0556817896519977
0,0553673657046229
0,0571400700372778
0,0540460626366388
0,0550753860628906
0,0542947229480532
0,053006556898429
0,0551218530760545
0,0535564668521003
0,0536439522367683
0,0551232478012485
0,0539513576223491
0,0558487253135538
0,0542079514317562
0,0544274386655785
0,0563994705686684
0,0529140058388265
0,0542111263945384
0,0548632272898379
0,0545600068947052
0,0529733878976934
0,0526736701715188
0,0535317454611412
0,0550282126393641
0,0523625425375122
0,0530947713914454
0,0524623164055707
0,0532093811602302
0,054622544232932
0,0539752725807108
0,0508843946923521
0,0514653931318597
0,0526871801849327
0,0522623948769819
0,0529212240649588
0,054951033411339
0,0517998787301292
0,052800706559866
0,0507064362771801
0,0510167084083969
0,0532085644951353
0,0526495893094844
0,053214304724282
0,053979946865657
0,0537437782965486
0,0517080736508404
0,0526769230845856
0,0527431959247103
0,0511248342748003
0,0515527475463131
0,0512669215571444
0,0525281510502306
0,051553403113747
0,0524248202777588
0,0501643337709688
0,0512907580865129
0,0521426857532773
0,0529184338904078
0,0504013709335937
0,0499896939057188
0,0533147395613669
0,0530691290778468
0,0514335533978188
0,052985469625394
0,0524746960058077
0,0525398768096208
0,0520034438923198
0,0513150770736257
0,0523358244405829
0,0511882399236368
0,0491547831560208
0,0502201062276565
0,0513357302867283
0,0504012126560558
0,0506855491723188
0,0494132681944946
0,0497716426350793
0,0503880680273571
0,0509272674694194
0,051414965916774
0,0481859512943778
0,0488721232160985
0,0488443080724349
0,0489276089703746
0,0477232637557116
0,0490478376628044
0,0472796816947292
0,0483155926260979
0,0477802053240502
0,0498154625030766
0,0478495040305936
0,0493861816214022
0,047304425639675
0,0483582916717569
0,0467049303665819
0,0473047060684834
0,0473302642092313
0,0474515597343898
0,0478737184976942
0,04661155131548
0,0462448531461181
0,047650378445364
0,0458774062581007
0,0465705022463047
0,0434653354053648
0,0466786371080764
0,0439684388498315
0,0474469998940072
0,0455324209989003
0,0463764980798623
0,0450092333787218
0,0437446216869614
0,0433421278884951
0,0447187897675295
0,0439185448444231
0,0458036504090565
0,0453268404424962
0,0444024940752727
0,0441734187151719
0,0439129322385764
0,0443096243938449
0,043934718885219
0,0428580832092965
0,0429000131444975
0,0421199051849214
0,0420970077438283
0,042694131661915
0,0413339699596338
0,0422045177664811
0,0432945772436691
0,0414303021064743
0,0431117882307775
0,0422954419660087
0,0417764698614411
0,0416427124814218
0,0414071175133892
0,0419774527316775
0,0427146153848627
0,0420827540237724
0,0413328810788488
0,0417524557434735
0,0414292803783531
0,0418953094807393
0,0409245645119426
0,0402624720984447
0,0407192747342244
0,0405540112491166
0,0430564445173936
0,0399864402475828
0,0408264118221535
0,0422467044316884
0,0414862834335399
0,0417814692121675
0,0413100250867583
0,0409869105633177
0,0411162731131403
0,0422864825728767
0,0413113165665975
0,0410500488017166
0,041021538613075
0,0415432109161387
0,0368453754843457
0,0425854928582417
0,0428015837759592
0,0404660952447499
0,0396644913688019
0,0407524212195163
0,0413457794485456
0,0418875146532093
0,0395463714489929
0,0388022324298292
0,0398150007578025
0,0400541219480471
0,0397279786450635
0,0403793303182049
0,0385410262335703
0,0386199845252921
0,0384141050005238
0,03886661706278
0,0386393810291172
0,0385058905924949
0,0382269753681697
0,0398037721444207
0,0426968558243606
0,0374953181451764
0,0411054489733877
0,0369063459186975
0,0402535733995859
0,0374643905132765
0,039651814896322
0,0371917438974407
0,037469657141231
0,0363450442776348
0,0382157283474091
0,0371940023587969
0,0372852807336126
0,0378118740482408
0,0391722551928566
0,0383862636924306
0,0389193033763639
0,0383583708701702
0,038893066148623
0,0380913972762718
0,0380899684969119
0,0363117799479542
0,0364410881449526
0,0362730876907992
0,0400459812970907
0,0345272913146576
0,042070505812454
0,03747008079413
0,0386086451229325
0,0378377329535491
0,0380081781599183
0,0386564450135216
0,0385449118091146
0,0376339722404056
0,0373365151233996
0,0385360214067407
0,0383749803687688
0,0400972357232946
0,0356754048427851
0,0393019815178972
0,0390320677499347
0,0355272632455348
0,0361553170061471
0,0377698256159445
0,0376703705444648
0,0376332111838726
0,0383246842641834
0,0364598477883354
0,0373279529885429
0,0399026443411025
0,0374275846047342
0,0383449565538254
0,0382219105776865
0,0373304937626856
0,0374943084399525
0,0399697016731913
0,0392246299547911
0,039269958399547
0,0353063380211946
0,0395414854663213
0,0372252230801755
0,0373695455648816
0,0385061287257675
0,0388649292498659
0,0373361400787647
0,0403318664675909
0,0387339003391465
0,0374499644213874
0,0365116011801352
0,0392954902435213
0,0374405668006914
0,0367504537903272
0,0384736420907532
0,0375729442054267
0,0384334555860501
0,0360460524716773
0,0381236239475275
0,0362784163434099
0,0373607942749991
0,0374099778565365
0,0371597156273384
0,0382947137520267
0,0361511611491598
0,0377729520171112
0,0368018359513022
0,0415546347845267
0,0390416188716318
0,0386500201473813
0,0355193250278362
0,0380339380861358
0,0367660587223838
0,0365471246370471
0,0356271928058874
0,0391092050645368
0,0397460382166942
0,0402118110705292
0,0358054120744549
0,0407640193736729
0,0386345680431208
0,0399440842943542
0,03553291197278
0,0407109643797928
0,0358030688427736
0,0408579109350805
0,0383983712361811
0,03994418027403
0,0391195004644761
0,039107085179202
0,044016453336857
0,035795049193822
0,0386504555967219
0,0392199103407095
0,0405648472043619
0,0389271723597947
0,0395310470441585
0,0389172251903098
0,0417328064665464
0,0401992087274624
0,0402147194921519
0,0391107694603743
0,0384927443507071
0,0406476853992914
0,0388009170044
0,0405952759543271
0,0420692001225992
0,0390311979424522
0,0449486546386381
0,0389545723556881
0,0426611802368972
0,0423217385270774
0,0421928476474681
0,0427455705033089
0,0440635922684895
0,0400689551480035
0,038557290132108
0,040803832496883
0,0415471550334617
0,0442579434961708
0,0418314036251944
0,0422079268059082
0,0421866256991693
0,0435124105633601
0,0434334732760408
0,0426006732033474
0,0432150725065068
0,0419894853892816
0,0415873123237422
0,0423587811874321
0,0443284847861804
0,0448264328849119
0,0435188989831874
0,0433769355894433
0,0424108386819527
0,0442325678115506
0,0450037056880462
0,044577539293896
0,0437751124091274
0,0441095847667683
0,047214058308223
0,0440951643552532
0,0402736467422977
0,0521604903609429
0,0403200881891709
0,050630675838455
0,043602198703927
0,0490561864676071
0,0448277833770706
0,051264178413529
0,0452066391168001
0,0515866180779452
0,0449214759582922
0,0468065053459251
0,048655446710827
0,0450230266135054
0,0498008130820192
0,0469010050107656
0,0513787428197242
0,0506916672468779
0,0499611156250469
0,0510054356610607
0,0518188134515066
0,0463397835619677
0,0550485649831331
0,0472938898394298
0,0494099200476741
0,0555122609712191
0,0500092696397794
0,0571839632535671
0,0501552378884867
0,0519385095285145
0,0541771620755335
0,0519561390798109
0,0543075959485491
0,0520521682615526
0,0578249910407645
0,0545702454481675
0,0536792430524623
0,0558003385146769
0,0532855461858393
0,0571360976939472
0,0551272601332793
0,0560330745222481
0,0569497875797404
0,0571167205478064
0,0558493946778811
0,0553445453761171
0,0599393861615884
0,0571204718992078
0,0663097560849045
0,0577450936572472
0,0637769977691148
0,057689798295781
0,0662877998723987
0,0594224538540209
0,0656060159591694
0,0640424579405929
0,0689920494385317
0,0608323232517875
0,0725554465747229
0,0641953807064223
0,0692052362898318
0,0682426357191436
0,073121514728381
0,0744638621155151
0,0770656678968024
0,0685211083920001
0,0752909911274625
0,0732267631076486
0,0776929976301677
0,0773617633681567
0,0796058583610954
0,0805351643984285
0,0813402867641251
0,0827829619669259
0,0817278140430759
0,0839212340331437
0,0868383335055028
0,0849777218377294
0,0882121193490204
0,0872113472086681
0,0931175764386331
0,0855359474232984
0,0979969709060131
0,0891945567283957
0,0952266064634572
0,0938900508659328
0,0946859674794792
0,0979745996411092
0,0979169506985915
0,0994403190299055
0,0961513957893124
0,0997058127150757
0,104876455065258
0,102027514701479
0,108815896516338
0,103628209233606
0,112775121135841
0,107656159104119
0,115079213208493
0,106351748221524
0,138976513689887
0,120572720941012
0,119718347642368
0,126852618078766
0,12114647937311
0,142068971061478
0,13579931905225
0,142716619029034
0,14327266786163
0,14646956126005
0,148675971053673
0,154761008091029
0,158032066753816
0,164760275253843
0,167490539791294
0,168940098735157
0,176357815689826
0,194010613491609
0,184751643928962
0,193315381286844
0,192807880067907
0,198758704613814
0,207332182579438
0,211510704038184
0,212177411169656
0,224378412002513
0,219332013682382
0,244144000364866
0,234960105648637
0,248618721903703
0,242092357673949
0,254055943448779
0,259442655902418
0,265977936442525
0,274675558890694
0,268833828368852
0,28501724554018
0,278566400277689
0,292344887260666
0,295615365494627
0,303764579304692
0,303762581352559
0,306394408968912
0,314498500632106
0,316424062747704
0,321972843946345
0,323615441037201
0,330500989474432
0,327297540702487
0,332453193975094
0,339749109540404
0,331300184332373
0,343636023701327
0,33258140430324
0,347309793714829
0,336291218915509
0,347253523706321
0,350677780372004
0,344383205754898
0,356759423337551
0,34885697358377
0,350040456661775
0,343570403042602
0,351371661167008
0,352899001731047
0,350508006960239
0,351281546463475
0,346320576789835
0,350411194302279
0,347446621263902
0,374985303963786
0,352616219982762
0,354011801629845
0,351759755581549
0,357234322054718
0,350703121241809
0,352760740324287
0,34317070504166
0,356270383810778
0,348540337809376
0,348264539678785
0,34525145209249
0,337266836769891
0,349910785645671
0,338667716291186
0,337644030046373
0,339955834516707
0,334420525225513
0,336899780558177
0,326228465368686
0,344455639365104
0,328289364186694
0,32538667881315
0,330251576700323
0,326477423809066
0,322599051030902
0,32715213120602
0,319101240334026
0,319064071504612
0,321433410000844
0,320233549565608
0,318821982350044
0,316611335308646
0,318541339194539
0,314662162038325
0,31968458779092
0,316205581396192
0,311236597970892
0,314919781823603
0,320781838974377
0,312288083743397
0,316839558111622
0,315006330795819
0,309913969353922
0,311952101184104
0,311652052928117
0,317966500563466
0,313862980210897
0,310708994568767
0,310563457712182
0,306270291248083
0,311060591228866
0,30878390112595
0,308219173530952
0,305840678744555
0,307377074113505
0,304244263524735
0,304526853263729
0,305623901719067
0,305062459308108
0,300679394367698
0,297887656906007
0,301364353380295
0,307326134089693
0,303623807464977
0,293050894455809
0,29093782982075
0,291681475255776
0,291302161156558
0,28257361019395
0,28019999641409
0,281477534679348
0,277418678973739
0,277279248238166
0,272667655088624
0,270685829790745
0,271969707038613
0,263681588079663
0,262679266808742
0,259464751604482
0,244633238547499
0,276091737955447
0,241738581695634
0,268690527822626
0,250470768288904
0,248195788491214
0,239239598867107
0,250078082548209
0,243776541930812
0,241631767688762
0,238153939845011
0,225629274484478
0,235208783124956
0,233508274086695
0,233797016241978
0,229094420002432
0,230654576000969
0,234643141402587
0,221685974180872
0,220881362026538
0,228212475198991
0,22246896075408
0,232535899295751
0,220099903752393
0,212501686318564
0,212219041845949
0,208752919180133
0,212344062953286
0,211243361626955
0,209844585107984
0,203417001249363
0,197630796939238
0,202326560095646
0,197339689495141
0,197547787648741
0,190567768261624
0,193499116506064
0,193382453116439
0,188023207254131
0,189646492658761
0,188460501508085
0,190844724256715
0,181381860379826
0,195094939698078
0,182725846562369
0,182254951722067
0,183705852390034
0,191372326116417
0,178943515720491
0,177200630344833
0,184799439405453
0,177794782163562
0,174270212142006
0,180887943947281
0,172502637223668
0,180786961463974
0,175718690483416
0,180251522949971
0,181190710910335
0,178144186471653
0,176888415843578
0,176140465106677
0,176723855084787
0,17897100878746
0,176969087855259
0,181219107490706
0,165515389232817
0,187413288006085
0,174359844273408
0,184701825458384
0,184906324740629
0,18454791318887
0,185019766115272
0,191375707793743
0,189591816299025
0,193681970680152
0,193770290638533
0,199927284537551
0,196108013348488
0,207060168981934
0,209190248010269
0,213868372294549
0,211880408979492
0,219636572030958
0,222246475578088
0,228947728608376
0,23085861113451
0,237131582224657
0,24015993030999
0,246802885533581
0,238497398146344
0,263323643055936
0,26408308718862
0,263670104113314
0,280060011816776
0,277121323882876
0,283421523331275
0,283383914383266
0,29620791589089
0,299732268085308
0,303128165535329
0,311622719002521
0,303480806908362
0,325656139398554
0,322061986697487
0,325245096498356
0,332257130179854
0,332379651677227
0,33289693551621
0,340283104394309
0,350474036563646
0,335672518885525
0,355258697774622
0,343649972362814
0,353242741229246
0,352195366813012
0,356561652827233
0,367516937415842
0,358023077385758
0,366918090651288
0,363466462767849
0,374475510731483
0,373579341079811
0,373641258806994
0,37404709713566
0,382028384447922
0,381398388400421
0,383329628981985
0,381348500896639
0,389328874179073
0,390023337454013
0,399390348847621
0,393309254602545
0,396099275369696
0,413836169594122
0,405176287858229
0,40874761337088
0,415972796641915
0,418366359811045
0,41948231120794
0,426401139272308
0,434117588789535
0,430286223524828
0,436003245624398
0,442609711844291
0,442701977631236
0,445694464093762
0,450948388393657
0,452372050954568
0,453439452225799
0,456798964923915
0,44995682730424
0,462563957563248
0,455115304536662
0,467633033484953
0,469964532121891
0,466406790473556
0,472310946359233
0,472621422272263
0,474610599615103
0,472689607357295
0,472494043367271
0,471152038183136
0,480378397683106
0,476391549834663
0,478663478444089
0,473364811155698
0,478401958386439
0,474671735973286
0,470851516188295
0,472115214929699
0,474300481035821
0,471179148899174
0,475403883177192
0,473937137944824
0,470269046449564
0,469608638861786
0,47048673847031
0,470910464571716
0,479323505317978
0,471597219070894
0,472123719333397
0,469711621522526
0,473743982988883
0,474875625297212
0,47673233327682
0,473467146909946
0,482007494661719
0,472741620959626
0,480975501514262
0,48324607998812
0,488483743279568
0,483229928751303
0,489035119365222
0,49140191251583
0,500990167296953
0,49365616337472
0,501574459138719
0,493963845290978
0,50404218984273
0,496519139002654
0,499580218374511
0,497496474629334
0,497621739245943
0,494022154874193
0,491888558207152
0,483891178436482
0,484136453887146
0,478341145047584
0,48141046574869
0,472703513389638
0,472165679057975
0,471551192781611
0,467982831734875
0,458424325422998
0,458199311210764
0,44739206071061
0,450988805173323
0,439427167519021
0,444341998890282
0,437813443032334
0,43730703130916
0,434445863897755
0,435710338680766
0,426775997740164
0,429356110558118
0,428341306857177
0,424670020682463
0,427060885349282
0,42656019389877
0,422916315626139
0,420777552448596
0,424571634939684
0,424640724107274
0,423875454450723
0,419856525161371
0,415825884080399
0,421981399393744
0,423981079539443
0,419465931848855
0,419785440864066
0,4188379806545
0,418423247916838
0,419950762802471
0,422108873498861
0,421607281058466
0,419406163186293
0,421918064199081
0,420303950436414
0,416119683674619
0,417577401109275
0,419280621911845
0,412159328301182
0,415923904893931
0,41501570062356
0,414849843094668
0,414500052471025
0,415074959652317
0,408821866496944
0,413166467536912
0,413927047971219
0,414738377153328
0,411357509085256
0,415079564151273
0,412445353745596
0,419306492595453
0,409330306273414
0,414247730208685
0,413385142702555
0,412090740126277
0,413870158907522
0,410042756171517
0,413218382651907
0,411031685069676
0,409972440324494
0,40591155056672
0,404255980127913
0,40005043340368
0,401284219635166
0,398951768143892
0,39577015396505
0,393309961761144
0,386503732638144
0,387334701324738
0,380711852545647
0,376481412272954
0,373459311587767
0,375348143529445
0,371467890595288
0,369219539080062
0,361585014126787
0,363114686979961
0,358837984149401
0,359064392486885
0,355687274918397
0,355490389959812
0,354452731769836
0,352009684698266
0,351318150349619
0,350923810065978
0,350568813716998
0,353996709331314
0,354564663635494
0,355427554163849
0,354884160536409
0,355539346699195
0,356031090798972
0,35679509290197
0,35591110250013
0,359889038984212
0,360824035327517
0,36036336658284
0,361328733358603
0,364095524196181
0,367789886188536
0,369261482300025
0,372351797813814
0,373641067936939
0,373715706997243
0,374349098392228
0,374113020812733
0,375675475978076
0,377349376513108
0,375810558747212
0,378116003404852
0,378231375964815
0,376503283051871
0,377724132979001
0,378824290803198
0,375445052574067
0,372859477864337
0,37919023724802
0,373327403953981
0,372486162106602
0,374234034032816
0,366786252732869
0,371035798088788
0,366394055435734
0,365333175599327
0,365643139452888
0,363575117679853
0,366052508265511
0,361042913905025
0,360358205611956
0,358474181917509
0,358925064987537
0,357043654793399
0,358551395109598
0,355474509564949
0,354671985352482
0,353128378611819
0,354471986541183
0,347966996814848
0,347960196396805
0,348701164273528
0,346702348561891
0,344277042503346
0,344966908038417
0,345676315178547
0,345617619622888
0,344768522257521
0,342266039347388
0,340261990335842
0,336085272033413
0,337265105256834
0,335593692208241
0,33347956926411
0,335894193490912
0,332888531661691
0,328580229581493
0,327600371371506
0,326398968203933
0,322094674249795
0,316691303249059
0,31798858019478
0,317957473908611
0,313223707779576
0,310125360157357
0,308670206875992
0,30685563433306
0,307025296462629
0,303663250180165
0,30485427972923
0,305165416887936
0,302265178203003
0,305815678186413
0,302223128526599
0,302299132180629
0,299820514730482
0,299530315903033
0,298321823198211
0,294554410787781
0,293089776260566
0,29051857828208
0,28603439720156
0,285307614689902
0,283196968560662
0,276715217438343
0,272619611513004
0,27179900209858
0,268352201715525
0,26877190905612
0,267684905317943
0,270926142675297
0,272136468346808
0,276303809979404
0,279707711660093
0,286170547296829
0,29294285075144
0,304392423649496
0,314322067387234
0,32474318715311
0,336522382445796
0,34945436090955
0,362418074432755
0,373546132174796
0,392172361491202
0,40585350045915
0,421250798525732
0,437377440818185
0,45023696754254
0,463324957655848
0,476355237408068
0,492828192501204
0,505679697064102
0,515208129164633
0,53333423935091
0,54134084052638
0,554416112519495
0,563146404488593
0,575589344204269
0,586467581124004
0,596155731493139
0,607116190456202
0,606644079617978
0,620402940989633
0,631098442877694
0,635164353175301
0,63119418236584
0,643077864148367
0,641573560022717
0,646061626893716
0,645179043999809
0,652086488211343
0,649159854321118
0,654435607755016
0,649524440118581
0,651146674773015
0,652432143821329
0,655549846618529
0,654015073151657
0,658272899215208
0,6627648619506
0,669587604181483
0,664605431874172
0,6688592087276
0,679046072766408
0,682830802394729
0,684183463809054
0,69035606822457
0,69716924176909
0,700735192213075
0,7074418820102
0,71731423596793
0,728246979491728
0,734965727830525
0,741673786971648
0,758302221722008
0,764344259417557
0,775363648605676
0,784647706088145
0,803125540338494
0,800282241076548
0,817239268593487
0,815560657853849
0,830502861140928
0,8392857368408
0,840948733010215
0,846236292970125
0,841683061126313
0,843265118333123
0,845481108020766
0,834350718987688
0,83166214703227
0,826533525946079
0,841433697803276
0,834090895164187
0,826963536496112
0,821918510093408
0,827798561373446
0,833446614902102
0,850422940848595
0,865207158275562
0,872023563568476
0,889445598178476
0,90385225717586
0,911297148967079
0,927224545289367
0,950226539305174
0,958499933485028
0,980621381935863
0,974311085100464
0,999695908843499
1,02030282749158
1,0296672958861
1,04909734123942
1,05829035082294
1,08017405582856
1,0873633286619
1,10767081470512
1,14129458949076
1,1346647996459
1,15882082989061
1,19123630577298
1,20475803762724
1,24168936549792
1,24166694882571
1,25750847445762
1,28539367864463
1,29596397892514
1,32779794640393
1,33432469627794
1,36617344097851
1,34986550874163
1,38155553210603
1,37555467387547
1,37150532794311
1,39841700852503
1,42827411315203
1,40998084404181
1,43559691076904
1,45513624462364
1,4123491784469
1,42304389270375
1,4131067975923
1,40794640545687
1,3885771966962
1,38252160481011
1,40534909127779
1,33076760136711
1,40619221372496
1,36850983673793
1,42272607442438
1,40079281149139
1,43059636869962
1,41390918530933
1,44649789284679
1,44363362178882
1,44534292728599
1,47578904365037
1,47718061963704
1,50591456387768
1,52451434267228
1,52271759375673
1,58426229963783
1,55256673436477
1,54384254790027
1,53025299807242
1,58633674457358
1,56165363916196
1,57999350046312
1,58266116176882
1,62300144129687
1,56164681333634
1,62824781139366
1,6035135908228
1,6171836023275
1,5898325725507
1,62354753433751
1,6367575069005
1,65574109145351
1,59515845206759
1,59680505897645
1,62801365083004
1,57552499960703
1,62676995393395
1,55491692192201
1,55592478818665
1,63295643553225
1,58254516324744
1,62970677734558
1,6073945883125
1,62678250116836
1,56094776209988
1,53070004278284
1,45162047392012
1,48025017025335
1,43404040575929
1,42257099540025
1,36250406532227
1,33428919874595
1,27750895635029
1,26312728142727
1,2093508431351
1,18647875208477
1,14519971812968
1,13153956434039
1,06588896306624
1,04951915093071
1,0303509503946
1,02423479423781
0,999713439987721
0,996782303016708
0,967113664711771
0,984031934340144
0,981759408622227
0,959125122880776
0,957521307643477
0,943696988435705
0,934183719421634
0,931485921843421
0,919928664475044
0,904809962200367
0,910669407494383
0,887303505835573
0,877421643574254
0,857981854188015
0,848974265906015
0,8221895119968
0,793150400806048
0,776491442053461
0,766213082960272
0,731495481213309
0,716902672387902
0,684278442548695
0,664803219063473
0,636931781599972
0,611155752085097
0,585085363097391
0,559403982033501
0,536825090284665
0,511225720544176
0,48585605758909
0,464176338204215
0,450975956041906
0,430449103137752
0,411961228588917
0,394166594505051
0,384300017835362
0,369685838231009
0,359510581652569
0,354611086999069
0,342855903582681
0,338539777129493
0,332140584801199
0,324287690603905
0,32069007938347
0,319124726241703
0,317982058545202
0,314668284027562
0,314566648763654
0,312263520633824
0,31487572111496
0,315558119516692
0,313468332198424
0,313526796505854
0,319961869821985
0,318159253651893
0,319727328839858
0,320019656502378
0,321869173746655
0,316096243847073
0,317155644332834
0,31544115997726
0,312177469257039
0,31066937570946
0,310341509138542
0,305055484215945
0,301134034001396
0,296585232202945
0,294286454236731
0,299414857689483
0,2947457268472
0,295197973194929
0,2949227080582
0,289504765653178
0,293941865955864
0,294399992036273
0,301143563206219
0,300070632580138
0,303758084299943
0,30412206346716
0,306846149254147
0,31253196958976
0,310067015807114
0,312846641751421
0,316486181709407
0,317799081259895
0,325602143134788
0,322270426012747
0,32378442322531
0,317373462828822
0,32174217964697
0,321177755848502
0,331349482635961
0,323913611153594
0,326413908558399
0,333803631633934
0,33053016266681
0,330864645554938
0,328477110164945
0,3349985273299
0,344552513796788
0,348482374970126
0,353276897730526
0,345692534131871
0,366590017884961
0,37674994052247
0,381285145331996
0,393828879123173
0,407605048506758
0,408727643203313
0,419143460769676
0,436828319700485
0,435535745214835
0,440882779206805
0,448345622939639
0,452107218855259
0,455188653955965
0,448748605960341
0,451766067699195
0,428483775758237
0,430825007818448
0,421104517657476
0,411653369642448
0,396922098888154
0,40290120405301
0,398495381127304
0,394591703464593
0,40022456240177
0,398223569597801
0,402312844239757
0,398272401531828
0,394649277029954
0,398328212815237
0,389956954481555
0,393317883458832
0,394154704592061
0,393496761052857
0,390195909201988
0,385979921424956
0,383434536472262
0,376832671656257
0,36675444202608
0,375367612725628
0,363170224216705
0,359445012561982
0,352884870483212
0,349961463302594
0,348925818984645
0,346538868759096
0,337934879318505
0,344027310978163
0,341776312214411
0,340180932301449
0,338099591976361
0,331841840246288
0,328147094002774
0,329997607983484
0,335269870544814
0,331583121028622
0,321719929742089
0,329306481260233
0,317492968473541
0,321210029601071
0,3109465141549
0,319536575673289
0,315334889906272
0,310294351806103
0,30426232499828
0,317276435799377
0,303798825842878
0,304702596904753
0,309843049407676
0,309103973745257
0,298855368724296
0,301316100318524
0,29474186865345
0,291330482203877
0,28876783967536
0,306079981424416
0,290589252168004
0,288545432014992
0,294905472646199
0,286486319111221
0,292904885446482
0,297585148624914
0,287231645261651
0,290957049427264
0,295947581392141
0,289787058455368
0,287349069927135
0,291980008673603
0,290788322827949
0,298891218893239
0,29137083829044
0,297946984005863
0,302539852633849
0,308627882204435
0,303323733978553
0,304986182499397
0,303878786713656
0,320713329085799
0,310743302674832
0,302727194074717
0,304217639967348
0,330781083594299
0,32533724903058
0,326233713372557
0,321992235232973
0,335103146390751
0,341362353757354
0,343235785070732
0,342295448165147
0,335325448844948
0,357029345119798
0,38242001231443
0,376193136267549
0,376607060027749
0,387353253333149
0,407732172860865
0,403135989525386
0,436686509094954
0,425691058777247
0,449557936548123
0,44409268380407
0,474538429476098
0,482110693930032
0,520171315473205
0,515932590392949
0,508501753312807
0,510085959741512
0,517211780676839
0,557652173687326
0,561145481317323
0,543558593937442
0,528602901185617
0,526156471835598
0,533960988133071
0,538312607641468
0,539192256087731
0,514090227229561
0,516879315797019
0,502020354805588
0,520817033521262
0,518543677579134
0,533764194047151
0,532297936119351
0,515806617062073
0,501775463293592
0,520228091916602
0,516492419534623
0,510405335442935
0,488891624551638
0,504764392105666
0,489483708887523
0,478667173801556
0,490908032908856
0,479549344050109
0,453334488533057
0,477005204669532
0,472506391810733
0,459331932190188
0,443917757531428
0,441464872833236
0,457099170006269
0,46284166327427
0,453946845835056
0,470328083955559
0,448576306257556
0,458925629172571
0,466827594453065
0,478357310175117
0,433350287874684
0,458869109603183
0,46917449393679
0,477217913834269
0,475018234307154
0,447096769933157
0,439337853093199
0,456974121995964
0,438813966975402
0,448884538064045
0,44328480443482
0,459416601788274
0,452988190978948
0,468465295472441
0,47049181272394
0,467230429444477
0,503632330375469
0,524387078058997
0,467754696761115
0,476366036702584
0,486377400642313
0,477072834596732
0,472936502683663
0,495577722241742
0,49873307717058
0,508468726806354
0,51096735606195
0,497543854504726
0,492235496623661
0,490022966709955
0,523755274903406
0,544783326918922
0,541540315417579
0,584067756811559
0,581645382704394
0,536122676127294
0,512802626078366
0,575362201616174
0,604919797895462
0,587896035015611
0,592107811025708
0,64799902378833
0,646423756544695
0,627656367307375
0,609963101737085
0,633185160854183
0,664854740271172
0,720895419252348
0,64272463540223
0,642894983286107
0,68585842026376
0,648003022465279
0,582588057177325
0,682681979646853
0,694476935152773
0,628680187783345
0,609687525543991
0,686476890553
0,604598319709365
0,575526450981553
0,590965061747214
0,606492003612289
0,57910292219656
0,645513770693025
0,569789942778949
0,537402305389124
0,585018599732325
0,531144100941977
0,571405394116374
0,786001437231577
0,577752578237468
0,58550616359276
0,585562038374785
0,612898251114687
0,539317125496971
0,49926381071204
0,516475540460055
0,681864820046956
0,638112475557898
0,631871920881796
0,69236625513029
0,760683784462887
0,484737404900142
0,483833691520098
0,537378388840545
1,22475846456821
0,424846446165533
0,581797567740842
0,773688639573277
0,692776203745279
0,446637677157227
0,63545665929046
0,57380023346719
0,677680450270909
0,757537502076457
1,15853510544691
0,776991869838602
0,766079342369936
0,69921495532806
0,643142508668021
1,4504526217133
0,646911954104067
0,839381839930937
1,10382440843553
0,531143791737336
