3596
4000,36533379555
650,420452594757
1
2
2
0,0238389356640412
0,0248874591043614
0,0254586105255972
0,0306829462911204
0,0261765091849062
0,0265926955712467
0,0288831454497856
0,0150964037145326
0,0242311115605144
0,0292657202619616
0,026707898611454
0,0196456598924603
0,0227990582320592
0,0191568979664572
0,0367852362876873
0,0270083519804436
0,0248482914737916
0,0234827529505023
0,0243392578509571
0,0279822686308105
0,0236800544453051
0,0147960225718449
0,0244044766459076
0,0266115854402423
0,0237663715210012
0,018641927071254
0,0185005978925967
0,0157582961091789
0,0243509854023567
0,024258386331186
0,0283724248982298
0,022268207947515
0,0315394789471195
0,0292713968295562
0,0321783176856851
0,0241401714493189
0,0258238258286136
0,0202887265332494
0,0292701131979092
0,0221692200614444
0,0258483457761297
0,0232750372938567
0,0292382423102234
0,0357257101117681
0,0316742677350795
0,0281560249142753
0,0263445133781134
0,0141504725202513
0,0204521832472784
0,0234977239928259
0,030925241641316
0,017030599813069
0,0235560977231982
0,0254130833836862
0,0123232484076428
0,0159045972732077
0,0245565100874696
0,0225285570739357
0,0259367373113336
0,0121478017571877
0,0137142948230388
0,0305007331398731
0,0228503076206725
0,0263311824338996
0,0289688212143558
0,0278463197681486
0,0268781033438985
0,0206282320717908
0,0195089162653217
0,0153851147708594
0,017896020506479
0,0193036461692083
0,0262238896534742
0,0132677157402307
0,0235256425421738
0,0238050848392932
0,0178935995925601
0,0166297358440494
0,0210910532767222
0,0135042736297878
0,0257297081192897
0,0183704167611285
0,0280002992912674
0,0170148112235462
0,0139671175623738
0,0277163555209189
0,0198254436435816
0,00309938140374669
0,0287530737264383
0,0277273303132539
0,0279288870888684
0,0240656305755014
0,0215170407030876
0,0178574002223651
0,0239884046756886
0,0194523335884641
0,0222622157685969
0,0247012052914273
0,0276788218736956
0,015623865350746
0,0245851164796506
0,00244881243693931
0,0264356466971249
4,28424048896505E-05
0,00840273859763897
0,0254311397281449
0,00465941398232279
0,0242442475829436
0,0213178483773141
0,015264182655426
0,0212033554291421
0,0228741414596981
0,0181828461956768
0,0228342689825481
0,0159715584321915
-0,0024047023607632
0,031173530637127
0,0157943658640482
0,0217980721361784
0,0153061751514038
0,00958965165968523
0,00031833759346152
0,0452680463431296
0,0140795097660472
0,020957413979414
0,0138382236696126
0,0004769048149889
0,00297293027337429
0,0315894844171455
0,0108732783127353
0,0192883798661047
0,0126713026785966
0,0213764554240352
-0,00134289171396707
0,0172233318211303
0,0210827832613701
0,0238640183746583
-0,000450906316922764
-0,0049882047659813
0,0304026215144045
0,030059052057544
0,0105080144882403
0,00787790643579668
0,00213829268992184
0,0326118124020177
0,0199174617359608
0,0137717542051399
0,00788990915422801
0,0343317520142496
0,0190193783017865
0,0246812075798392
0,0099926496507573
0,0185560542306937
0,0154260722994205
-0,00417286761206534
-0,0204184453970834
0,0502326997207027
-0,0172283063023639
0,0489299261180652
0,0149491239926737
0,0162170058871947
0,0213181219123333
0,0165338484655255
0,0161864884067176
0,0187342675985443
0,0196902632012925
-0,000945872011185219
0,0332878539799784
0,0180916910366189
0,0035881269100522
0,0228142522182159
0,0198541629786368
-0,0101432254673691
0,0250922127894439
0,0311333754630766
0,00183513000244577
0,0180274159983893
0,0184361275147338
0,0170344823428216
0,0058715261419614
0,0346584685858963
0,0223350355876657
0,0199470209959501
0,0157072253588725
0,00889770775929619
0,0129281297552581
0,0206298077075574
0,0102216413780352
0,0161570904756321
-0,00549125030655818
-0,0129546933916651
-0,000321261993369711
0,0271488742128356
0,00944621725613271
0,0207781579312284
-0,0107337533666104
-0,00732610826453022
0,0385486180527788
0,0213223263182816
0,0182721504302474
0,0212934688750912
0,0151887342792878
0,0221632764056864
0,0200056124856698
0,0222623522472402
-0,00641560934149783
0,0140090894364396
0,0320006283857738
0,0160504132359278
0,0122200971730955
0,0136036615439409
0,00271882515754919
0,00246754329488578
0,0415807633024353
0,0180948505216771
0,0205267852983301
0,00626331437038637
0,00634396549281019
0,0300599658725896
0,0122974140109145
0,0201687330649985
0,0180946282604807
0,0163563276864105
0,0242072151985548
0,0257006919360378
0,0183464311982539
0,0206917214867716
0,0171073194503425
0,0181661477615873
0,0135466348941516
0,0174584596342712
0,0246983460227725
0,0235970974303155
0,0177932647558685
0,0112438612498365
0,00401474408621859
0,0290620760794152
0,0167395905127923
0,0246675759087622
0,0210994755827197
0,0188854173697378
0,0186528203699742
0,018627473690657
0,0111582138830535
0,0197813572405649
-0,0112048198457374
0,0196709227723177
0,0238624802861776
0,0135707921250209
0,00931939706302997
0,0057410254239244
0,0236983368213277
0,0172786745727881
0,0178179521591594
0,0207742639558308
0,0116149164208585
-0,00396459573806441
0,0247333181437201
0,0268236616414049
0,00930497832587705
0,0165452554106173
0,0263450722541323
0,014184179893824
0,0143892971395817
-0,00762616386141127
0,0287979616313611
0,0318048603559093
-0,0221279454208849
0,0269044719703988
0,0190756715108168
0,010881566013782
0,0145877176330227
-0,0293519303079116
-0,00879033492307358
0,0404827833450857
0,0181432804738716
0,0111805448725402
0,0192603239856144
0,0230113783354482
0,00240480240027598
0,0131834847480391
-0,00400844135993595
0,0106910025344787
-0,0212751897090976
0,0350659125839682
0,00871882169742029
-0,00218973476150799
0,0351989097468236
0,0260193322006727
0,023461933529999
0,00854448401397468
0,0122017870695034
0,000258802758911651
0,0246008400446865
0,0190319752341414
0,0322867960191232
0,00985284766586821
0,0184711871170993
0,0245604825563813
0,0196330753775574
0,014510784597057
0,0210637902114515
0,0293247176240719
0,0153404145774114
0,0216273460247428
0,0160157467249929
0,0253754905674997
-0,00128487015289398
0,032853158237472
0,0306466518735553
0,00819927157497921
0,0339069844570797
0,0230106385121882
0,0177902217869143
0,0213065559259116
0,023128106246989
0,0175847235111267
0,023451373914229
0,0156545496109106
0,0145403709092062
0,0370338949968441
0,0224348407942236
0,0319586461510782
0,0299423596508877
0,0225241865239354
0,0238333253842554
0,0302627768329633
0,0250391255178687
0,0307602279074347
0,0203485155494221
0,0107768797932461
0,0345026905541236
0,0173861697229603
0,0142978982486993
0,0534634552032384
0,031506953700566
0,0345319254520149
0,0376945474955817
0,0325904516200834
0,0359649576090643
0,0354419523416909
0,0365348676586378
0,028651582649212
0,0285023050661282
0,0456300268337235
0,0250303549990567
0,0174364975460148
0,0313508490908679
0,0585553328327132
0,0422694608049346
0,0402488963884089
0,0256693682703406
0,0273014400956691
0,0420559756582169
0,0323618241958554
0,046130296281712
0,0443468192979222
0,0459086340512309
0,0440244424145336
0,0439529394803566
0,0472308957526754
0,0510193354092339
0,052476129497603
0,042239808185546
0,056059729403984
0,0486775213212185
0,0504559143310784
0,034882086991059
0,050197133703148
0,0654582681277539
0,0527029363578389
0,0619366658733243
0,0575647344208821
0,0421673803428041
0,0786389206576869
0,0514080592153971
0,0681361811135586
0,0533623451386187
0,0762430932089668
0,0726930390934619
0,0663204953798567
0,0728291830797743
0,0748696521739205
0,0805848724767683
0,0759898971105311
0,0786142544140832
0,0848977005858961
0,0875736860423155
0,0836324632418734
0,0898132359887142
0,0865922213782594
0,0794890951086138
0,0943967244223834
0,104720754120627
0,0975353400712586
0,093588961116564
0,0736524989000126
0,103567033814636
0,0925038024648343
0,105830799316365
0,0959072351794401
0,106360436265074
0,110883609816183
0,11319007875175
0,116302483549321
0,121659420596894
0,113047069957893
0,121444913366878
0,127245165998139
0,130583671016865
0,142403127578587
0,116453541291849
0,130757564476202
0,131400605856333
0,112062053406648
0,136203148011738
0,145809589249263
0,123871731947267
0,147123867297031
0,140755822315148
0,145031286764379
0,15492948565397
0,150831550895071
0,158322091517198
0,166833038301356
0,164985678347621
0,151420263897082
0,171979522185537
0,168759547666087
0,17047001788301
0,178293276286262
0,18260665824256
0,17532988873786
0,173547136992414
0,180880647173939
0,192413100842528
0,194433757649697
0,190725274427349
0,18785923490148
0,19227588902063
0,19733814732228
0,198313199950528
0,176543719460057
0,218010498200261
0,215030109076627
0,207883305879487
0,218414750897969
0,207694439313366
0,227176682925767
0,223885408161189
0,227243380348326
0,242405173906539
0,237952088023068
0,241324552859521
0,253437022855134
0,253841763368014
0,250576438002266
0,262136045400419
0,263626141915743
0,26941124297624
0,272114923935627
0,27368318605566
0,272571400391787
0,278794514524433
0,275220314865836
0,292519644884131
0,275203312383708
0,287927271462374
0,285691666550748
0,302549943295987
0,299575853622536
0,319545719668591
0,307349355042941
0,330172442969318
0,315831793226893
0,319788363006363
0,330622803089672
0,330441889259502
0,312967189186993
0,320663010806864
0,342828995852889
0,354879775335112
0,344182633857319
0,369708895069902
0,346948892334495
0,375913303696323
0,356137372019861
0,371628288429118
0,360497938195981
0,390460474493773
0,374492023494406
0,399956516474557
0,381265585180966
0,420442438424068
0,388970609352743
0,410405592794044
0,370825099445829
0,426677426703229
0,413278996916684
0,423983194494118
0,42243564592645
0,452827781660204
0,427141635870509
0,432997160988622
0,427287785948017
0,453224156149723
0,437912629981165
0,449813277419995
0,456556979569995
0,466677346335122
0,454065817183615
0,493964530815751
0,473274165256391
0,488303221311264
0,4833491436545
0,505061894782315
0,471595384510164
0,508267054589828
0,521086706277928
0,525664721202474
0,51246828967387
0,521802405210555
0,513309481465345
0,564903494571936
0,517667414745239
0,552523899423036
0,531569143081601
0,563486839644435
0,555685729969694
0,542278364243876
0,540822866328421
0,587958053780152
0,551918051012038
0,566985524149961
0,561291240935339
0,611501408763112
0,573006923624843
0,608299443676063
0,571386307320591
0,629287853508015
0,6103483031454
0,652221276103306
0,589190897543351
0,636036900435814
0,640337538569609
0,648332849235122
0,615885832247339
0,653360744806696
0,629218779603501
0,640432758899047
0,622713334100555
0,682277501440226
0,656074929246197
0,665983175208744
0,690658378666054
0,668141493272261
0,673365035587216
0,68073176778415
0,668773942302333
0,737478274040701
0,668961814096137
0,689836114177442
0,699394276318057
0,758238178110262
0,708951759206925
0,730216163396348
0,696276023222286
0,75399987843902
0,718564582325188
0,802659468931789
0,722663125854381
0,786197355497268
0,757334308948799
0,78381203428746
0,743408103147711
0,827915166122381
0,745456626720721
0,781653116516141
0,745671133772025
0,881297627775693
0,787578340602126
0,818316287446793
0,788854355180613
0,829775779751198
0,820146557855014
0,83866059700348
0,798510484603831
0,856828313258586
0,788440620478832
0,824770070578232
0,794008695362747
0,894194576428622
0,831155033062524
0,875773769761932
0,849150862422186
0,95939053530967
0,85719673062439
0,835271073578742
0,855619690962464
0,921940972182448
0,936463782251963
0,949680798686221
0,848528558391726
0,917811185231741
0,832565467446466
0,944346718425025
0,855262760462105
0,98798385232078
0,845488675648398
0,944049560503193
0,866508405960861
0,990497366551442
0,910416288689504
0,950877549692204
0,932482925288994
0,992821681534227
0,917065225361737
0,960300564900803
0,919946586988168
1,09436965892374
0,900650254793509
1,01849560191609
1,00102829579999
1,04209801337476
0,95887510497554
0,955370468127016
0,967929984803195
1,03082024755686
0,957022837080445
1,04863990062534
0,975567695444119
1,0334279738283
0,985982632274543
1,0552022327727
0,956154290588848
1,07455176875546
1,02020029933242
1,09459571819342
1,00380486883766
1,03450946924785
0,95950934419093
1,0305781581108
1,00078152130555
1,08691037604374
1,06640897384564
1,11624074121297
1,04474081216091
1,05950645986152
1,00515612658862
1,16531191884819
1,05984504735774
1,096303251976
1,05983490497647
1,15463460599618
1,08290994436452
1,15163333524305
1,04561529091816
1,1067204129266
1,07191186072944
1,23094755787535
1,0258173314428
1,20242784537078
1,14732559247157
1,11870184063516
1,02508986989222
1,18152425203478
1,19111236515218
1,0825516919586
1,03977624262048
1,16259041418864
1,0423499604763
1,12070014354964
1,09563538560883
1,20312302840986
1,02951566542743
1,2343150397566
1,05830366062668
1,15737492469387
1,11304448189469
1,20344216568143
1,0645565855038
1,18628307741644
1,14171917645448
1,22882848127727
1,12053282534652
1,18174358854988
1,1730090643795
1,28396367548414
1,11084738533554
1,30857169958508
1,0952964647506
1,23437023148748
1,07026189534597
1,16642728017942
1,18401627930498
1,22105693452354
1,11003712627798
1,26571580695268
1,13008598546304
1,17694608187537
1,1127768256572
1,23330592934201
1,14148689148306
1,26650465401971
1,12348064994437
1,41679190634955
1,1188431346147
1,23128802678192
1,12045185542444
1,26345718745709
1,05778601398444
1,26468490149764
1,18608135766724
1,30158809923793
1,18175659314412
1,27584879239693
1,1328499075644
1,21206000843353
1,15108356122183
1,21454675792244
1,13051126578889
1,19808525759879
1,16567745476364
1,22568199253378
1,18635355124632
1,16342112646834
1,15377347483717
1,21243455666983
1,16969121387486
1,35388902739768
1,20232815378479
1,31414197613001
1,18146389349916
1,27672187937522
1,22604231810542
1,14093365228998
1,1265380021886
1,15799402903948
1,17021360114701
1,23540348966034
1,08057592431502
1,16867008024584
1,14953171010302
1,24185324213898
1,12454527270519
1,26130092208123
1,16576785864253
1,17042562770025
1,10017637118766
1,26898050755114
1,17335109212214
1,19916913264871
1,08063894881678
1,17727143722468
1,23708316404903
1,29075572644597
1,14116533943284
1,19942884326123
1,13497782508831
1,21954316188456
1,17204144582783
1,18479414364051
1,16096442015516
1,23804543026463
1,21078962689589
1,14958421583185
1,12399830129564
1,19596859303754
1,23218603931102
1,23524147207124
1,15078998414858
1,16864669870885
1,23027372155813
1,26647850968582
1,11367285932553
1,2233098624497
1,16725910696185
1,19529217016247
1,124791134667
1,1976158170718
1,10980291919926
1,1770980205016
1,11978827148046
1,1954358181743
1,16018853025528
1,12369721032532
1,13822130829794
1,18780347685736
1,12132681119323
1,15442526055782
1,21618056531002
1,12686021960345
1,13941190223188
1,16876918150705
1,15396670126068
1,19903346689847
1,15430541346418
1,13826562983699
1,04419102800112
1,17385691519991
1,11253272030447
1,16963273033827
1,04322114557354
1,16055745676211
1,09218357175225
1,116446048361
1,06328350707851
1,16730733862764
1,0539441771156
1,15476940238359
1,1213186585668
1,20480955865902
1,06724992197298
1,12057613374388
1,08200801216741
1,14561000391582
1,07372822595889
1,12921941652042
1,00512770986419
1,06833503807789
1,07706256832185
1,06750856235578
1,04834609778891
1,09665013272468
1,05044610194959
1,10967901443889
1,02054198047753
1,07925513171475
0,973294099897591
1,03540190304203
1,0395536253752
1,09150077159097
1,02888622309754
1,07753493465899
1,03227539881116
1,04944634359149
1,02582435241752
1,05171075861595
0,998009726470362
1,0288502685675
1,0136854655374
1,04397019775131
0,989486217125187
1,00883175630218
0,967399752884012
1,02798299009254
0,972936410533848
1,05460365797839
0,947515329437941
0,99419737923036
0,962707851003651
1,02466399832894
0,974609667959848
1,03127046173365
0,943841526361544
0,95889642687437
0,933807564890016
1,00456103170149
0,940867079263777
0,959021513802432
0,914535334646845
0,943704639983536
0,919594220598398
0,962659954600296
0,924185390469552
0,938314165145788
0,923948175773121
0,948198427481079
0,909798413217186
0,923376814451404
0,888517972805245
0,910648982538094
0,900438467054874
0,89590093313661
0,906239614669048
0,93594151726677
0,860121948651378
0,923858521488973
0,879725331169814
0,880481525581391
0,87312806140173
0,897914881447378
0,842062799276438
0,867337553069525
0,843441273952729
0,868420929058127
0,831253023205508
0,862855865009073
0,857366846741105
0,842982845986181
0,817607825047993
0,83232498006895
0,792208299072278
0,84497463680354
0,837504949181128
0,811629088270744
0,782378132050801
0,840579172882189
0,80096176815543
0,797518014438976
0,791670313794338
0,811580185031331
0,779873636974809
0,795564828711353
0,781494881493805
0,801913219833222
0,780818391533925
0,766393049694884
0,741472749716459
0,776318775376424
0,773175924514282
0,774288769499834
0,742327844520199
0,76041117696914
0,722123646755181
0,73673031627557
0,729676442398334
0,724770896518391
0,709317205337514
0,720429927307982
0,700494613434509
0,707553033560629
0,701833394292332
0,700494605861804
0,693052159598645
0,691972899871436
0,691474042064392
0,694689612627616
0,684905058011536
0,680305830037344
0,677996755097638
0,691042206912266
0,670720799050966
0,669574216804267
0,663971203318636
0,687945550391966
0,656647129642346
0,660855079840405
0,633670540660142
0,657905660470731
0,631185525747504
0,645429849527426
0,642620635212106
0,634854691547337
0,621477809792613
0,640408979156256
0,614144884067888
0,624675196944556
0,609767901864685
0,612092644848878
0,61374729982216
0,606179965181048
0,60256573651841
0,624666659679958
0,594977461831355
0,595946380153067
0,58865547435085
0,603638954160376
0,582150725202317
0,589738485885932
0,580268564024126
0,578720380236456
0,568857619260116
0,583971385450093
0,575191974497612
0,588312964061413
0,566927519792007
0,573518737130179
0,556776935897375
0,568308118279311
0,552447503824234
0,55550387276975
0,550144900276131
0,539309840526574
0,535079704187532
0,548153550456579
0,534862209177627
0,531980135741016
0,526219796417629
0,520325671380555
0,51861364420103
0,517449516294085
0,514662178583902
0,516117958755015
0,504046674845542
0,511325292820518
0,494314913203168
0,497992120126383
0,499974552371117
0,506238098862183
0,490452774948332
0,506794703497951
0,495626746877566
0,487030547305324
0,485085807014671
0,492378550101884
0,481586617630861
0,486919993110055
0,471839072196284
0,484805725340423
0,466120361452981
0,471006129527937
0,4623366042638
0,468183676536883
0,473039750621023
0,466958318984331
0,454885393231624
0,46171715495427
0,449048784643951
0,44385809310616
0,44376586087666
0,448264664046388
0,450180344468529
0,451264437242245
0,441303743081812
0,436635267792711
0,426817231938404
0,435209659029722
0,430693095272442
0,423757258997521
0,423941334157392
0,426368385233996
0,430827427336352
0,419332868267306
0,406110793914355
0,42561868035437
0,412537983581414
0,41029437286861
0,410295447595991
0,407224659760651
0,399948255396898
0,396828976255409
0,393399321115893
0,398725863547028
0,393182478802483
0,395079189941597
0,389660601880227
0,388300482585245
0,383915644395649
0,38951614589352
0,379725833456457
0,387493868858696
0,379128599869064
0,372152043958193
0,375570114501284
0,385154358414276
0,370286371756258
0,371389586030962
0,370987342189876
0,366225433241501
0,357943419504349
0,364142075793191
0,364816072210821
0,361492917738273
0,355372136825875
0,351499285208664
0,350567478272295
0,35339588110713
0,349346980002061
0,350689938808517
0,342596760340886
0,35301437531798
0,346014082109091
0,343525141168495
0,344322057240551
0,351316425655391
0,334536587112826
0,332019486085736
0,33968311545398
0,341770692521017
0,33869179854206
0,342717015128115
0,334738007718732
0,336748214893395
0,332540738009094
0,337723797652472
0,337049091448384
0,325125215508066
0,332010653200961
0,336477209699876
0,323078680335581
0,331184560062087
0,328676369471472
0,343190741385982
0,337982604077596
0,335538197768974
0,32936593327918
0,330815036094357
0,334553077011794
0,333310179587621
0,332214965810106
0,343070880201933
0,337301189857186
0,335942141322627
0,334968423166984
0,342677653187901
0,354376276752665
0,350227848044326
0,346691436604307
0,344090558263542
0,343276369041192
0,352894189379002
0,354247351092784
0,353728849180863
0,353949405595263
0,360320928940997
0,358844865183593
0,36825460191757
0,361787764878161
0,365746845355002
0,362111404539313
0,37128891892571
0,369886653277278
0,369083846739643
0,373272221091253
0,376879278321671
0,372869956903152
0,383404768657839
0,380130582557906
0,382007853545973
0,38196939330095
0,388367135249771
0,391632058512933
0,387504684623105
0,392086161018298
0,405467482869028
0,407156255710968
0,403996996922617
0,400036792105436
0,407150461330459
0,413229299340034
0,419009979948942
0,419614550194387
0,427350498629624
0,428685839005604
0,426754214506086
0,432427430834006
0,439558941869828
0,440028397503855
0,442956978374305
0,445315834950745
0,448515588386183
0,444314798514537
0,451413475937537
0,449377050752271
0,463560981429844
0,461604294182363
0,459994410737644
0,465127473424862
0,459602657457571
0,453312446203177
0,464828915603555
0,46869455517883
0,471436473741422
0,465718277855975
0,468699466502396
0,465717915354814
0,465001194688949
0,458775260886966
0,467516343625779
0,465180121756597
0,462625952626028
0,457341711776575
0,45651837250503
0,455944600299655
0,46215768525796
0,466039807604116
0,467526145435922
0,464332847290815
0,458442496457279
0,455864231488701
0,462785465825444
0,463947827204008
0,462519955378188
0,453476142074199
0,454276115705381
0,457306775366039
0,463756764312753
0,46584923158846
0,460884025646457
0,462405902594743
0,465419208234854
0,456172581852842
0,45894482515328
0,455253963939716
0,465775186319906
0,461433783937177
0,459472352951161
0,462597523127569
0,459477295005346
0,466397975564865
0,46580042262512
0,456067474737443
0,465969467846486
0,468000497555967
0,467033776664348
0,462524078459517
0,45784775651201
0,455872001333478
0,459700421432391
0,460853026067495
0,458389575609323
0,451212881523089
0,446450510539307
0,44670885580926
0,448594677460105
0,446692721583849
0,448090080626726
0,442362478854674
0,442002858503269
0,439676578742793
0,438601819384316
0,439230903750105
0,437363369592062
0,426776944737118
0,426300417599121
0,426537340502132
0,427627387492751
0,420406580364043
0,41960178571248
0,412054661007964
0,413068195674943
0,406560471578424
0,405590016403026
0,407075711716888
0,403197839741269
0,400470997091626
0,393184532489897
0,389108609020544
0,387697081281296
0,38555872813814
0,38125472552369
0,3790570873353
0,377637272764879
0,370136192146908
0,372472569223739
0,357871613082282
0,36337498919952
0,363217781612575
0,354594488120323
0,35229618013495
0,348352605280306
0,349878475842391
0,351243058681459
0,347874788181299
0,348632408466371
0,342310007967247
0,344183983486764
0,337958780049754
0,33013454878539
0,328802172542046
0,328726787982271
0,328886078223929
0,325181370881836
0,318863615350663
0,321473480356163
0,320627364876828
0,318458865559448
0,31438042515104
0,314731865930553
0,317241638007081
0,314866594536899
0,307607948295283
0,305549233901814
0,306460855127571
0,3087866190132
0,303515204351111
0,300493033976292
0,295295706883973
0,298171003471649
0,295910027218017
0,294747695508973
0,294503156687883
0,288891458322667
0,290342060852598
0,293024491108085
0,295838216398484
0,287534517797768
0,287615386053969
0,293567270992568
0,283790004710947
0,279534163258931
0,282004436623533
0,278036136024644
0,276895304021752
0,275222025951821
0,272407954914761
0,276662435796694
0,275989611135748
0,275112185430235
0,271142421579201
0,270026469417039
0,269981626800939
0,27346848612899
0,264189557846365
0,264547131065857
0,265425311449567
0,263132552582433
0,264074219093971
0,26350237253929
0,260040351363375
0,260160246052361
0,261895457940732
0,258657873231757
0,256360795635989
0,257829750809522
0,256697074531305
0,254774184806101
0,254608843665208
0,253312225981067
0,256286789411834
0,258449583709613
0,250654987959676
0,254655971644388
0,250944150692833
0,252514400433446
0,252847393973113
0,246409344430711
0,245942022311408
0,24668276405968
0,24489886085214
0,246971831715937
0,246471496291268
0,241555149794868
0,242849965198928
0,241945752997405
0,237876399632781
0,242540867026797
0,238313348903454
0,239021272316319
0,238882265911487
0,238014003574204
0,23815076279467
0,234911007047249
0,234481404076548
0,23594148233802
0,233940221904199
0,233478950562966
0,234024819864224
0,234245532015086
0,229811468102687
0,233417635162284
0,233685442714885
0,232459217992883
0,23144670252778
0,227439391903742
0,230679135452214
0,232909828172834
0,232575290549755
0,232603973898564
0,229225731706143
0,228210855043827
0,228870502894624
0,227961927326004
0,228301929487908
0,222194641580258
0,226885339622675
0,230741709628217
0,225294321052231
0,227615444722538
0,228423606167447
0,223316567148842
0,224056326269833
0,22560599438813
0,227729425377835
0,225821288085766
0,219517863353811
0,226619596701468
0,225049737117658
0,226459530722229
0,226588471618682
0,21883856769619
0,221018293706547
0,220630988022305
0,223526999487189
0,220643021699962
0,221411825283173
0,219573541464171
0,217373253244549
0,218970843435809
0,219749214683885
0,220585796966636
0,216294370634729
0,216063042513753
0,214537569040588
0,211355282138213
0,211566855533494
0,210268236793926
0,210556785991524
0,211467935861115
0,211334303956347
0,209838704561024
0,21255967029986
0,210735612240192
0,207932656706504
0,211822055777068
0,211303926695513
0,206750621818252
0,206425672071666
0,206202285613959
0,207868365795048
0,205645238553919
0,206786362571867
0,205100883020788
0,205551325545355
0,206418139903186
0,200509137783866
0,204466675209689
0,203993177781546
0,20219619964131
0,199277392267664
0,200820468109664
0,20143897837615
0,20476669569041
0,203045166889651
0,196862685345942
0,194461523141067
0,196846172345601
0,197018764755071
0,196488126607164
0,193526842258175
0,197903384814822
0,195850208424629
0,19014116342919
0,197158367310259
0,195230645779186
0,190075993782251
0,192580570296607
0,193410848690599
0,187184854685725
0,186029456230276
0,192243580807018
0,187972381014364
0,188669409775429
0,190077718583406
0,185360680346882
0,186005081872884
0,186759905822243
0,181877227658757
0,181178970970134
0,184741541045051
0,183527329286752
0,179727098743873
0,181074319835676
0,178605631761401
0,179465165240044
0,178586689038988
0,175975894024076
0,175879291709283
0,172967083884516
0,177067763475778
0,17470344068691
0,170567051518866
0,169600536857342
0,16922994175703
0,167645338994428
0,167275769886792
0,168412045721448
0,16766909540792
0,163740690265322
0,165830666641632
0,166897254233667
0,168927648976023
0,168592093764902
0,166384327540334
0,163132301262066
0,161790928524619
0,164376542081878
0,160773897339058
0,162029884737085
0,161182297888312
0,159130207959088
0,15566076346952
0,156771181969662
0,159670582727096
0,158525841159057
0,159829388500654
0,159492458788038
0,15765947545656
0,156440652281296
0,153885990883878
0,154817920499544
0,155477964532941
0,152633940785191
0,152314118982008
0,151713419345542
0,152536611946417
0,152410993035426
0,150405342653417
0,149217533881696
0,149001468409977
0,147532127255597
0,150100247483077
0,14816131190828
0,148237138998332
0,14278294469256
0,141627182214232
0,151328655809452
0,144024934548855
0,144100182912334
0,143432475901558
0,142600477217303
0,142086102309569
0,140508175152546
0,139590128423323
0,141769841223995
0,140374447808303
0,138684606034192
0,141231398818626
0,140913343556286
0,135900509546888
0,132440610408905
0,135906172951534
0,136315420007782
0,136236508305661
0,137816351529231
0,134901054122191
0,134439211295637
0,134450448431642
0,134439156122163
0,13351136448629
0,132176011539783
0,135864556599917
0,134064542544238
0,132987904299269
0,13046520760015
0,132623948392125
0,132531516681621
0,135705294433753
0,131757538656468
0,129712053733533
0,131075693395415
0,12903136123256
0,127686691038275
0,128423479060241
0,127883371029137
0,129886246725658
0,129689652299771
0,126493398668005
0,128750159119038
0,128319920117822
0,125923445478098
0,131351725868097
0,130832272973508
0,124615560755503
0,127295734946032
0,12981696794161
0,127869788954619
0,127842892793468
0,124722433009846
0,12491496273556
0,125326445547033
0,125919967527929
0,123423176497035
0,12299263191865
0,123898442226049
0,12682951962875
0,12748534843112
0,120184234739322
0,12475849259443
0,124015599024122
0,122472258660292
0,121487832423088
0,11937355039619
0,121608783180357
0,121054901210176
0,122527987476421
0,118659177142728
0,121478722996238
0,120935954960608
0,121345971180142
0,118156246920769
0,117499226602467
0,11770006556927
0,11844730174536
0,117250620549281
0,118512546233705
0,116177724916368
0,117553927916308
0,116809702583521
0,115927568823678
0,116249430602215
0,119540547806978
0,114013250157135
0,117003632828495
0,115853814556347
0,115401199716263
0,111021083779559
0,113721873195529
0,112750355245414
0,112117909510394
0,114448949233508
0,113990437106636
0,115466544981677
0,112479151275538
0,115665175765279
0,111693682899456
0,113465958570346
0,110780455249969
0,108702522583899
0,111944389001154
0,113051255566411
0,111909282421908
0,11306050644218
0,113844314609475
0,110786761520201
0,111907963989486
0,109361926215639
0,111073938173213
0,111301854086522
0,110596793770678
0,110262983594841
0,107977948712142
0,108285162033322
0,106759053381797
0,107039373484364
0,110919618586833
0,111919376069552
0,108949376792454
0,110481734460512
0,107019388391881
0,10681872114841
0,104379997929333
0,106844289719138
0,105975311674908
0,106785328911622
0,103854249524761
0,102593138826219
0,105937401685381
0,102416849953389
0,100576801278816
0,101317642296312
0,0998215162433525
0,102265485324043
0,0998604836073516
0,0981191654328578
0,101574535569706
0,100734301755557
0,0991760905291907
0,0982341732444015
0,0988729682973678
0,0973840674783026
0,0938927406109587
0,0998865303795007
0,0977142463943545
0,0983618987193289
0,100621926076997
0,0960512398746239
0,097919055915017
0,0951705429792245
0,0944910488971882
0,0934422773758231
0,095802865612143
0,0929607629007611
0,0910579421878241
0,0926943974262114
0,0941137573775535
0,0893702168475624
0,0919813603078222
0,088924932726851
0,0924369767903985
0,093403411297965
0,0919762824235602
0,0903325036568086
0,0900890245394383
0,0916425478993951
0,0904862098809702
0,0874036656105723
0,0891793748147924
0,084349398104395
0,0889826266963594
0,0898025476251113
0,0864404895143201
0,0869452190627783
0,0883313337853614
0,0864888116008214
0,0856420149473744
0,0851167110960851
0,0870459604213592
0,0859735752169614
0,0879402150313952
0,082216882837828
0,0862102740109091
0,0846145927686503
0,0864924290269758
0,0844944391554341
0,0824605861637101
0,0804821597591029
0,0810373944896537
0,0804280436753848
0,082906150867271
0,0816601899553068
0,0817046625512444
0,0797976176878352
0,0809375772798422
0,0810992472091383
0,0801161878560787
0,0743455264882431
0,0815148775096194
0,0817254233344444
0,0775681327746271
0,0772570035351987
0,0789638340362083
0,074185167826742
0,0750572067905562
0,0768984297511123
0,0767065161262429
0,076099246423576
0,0749509188724767
0,0758654555552705
0,0743568191889966
0,0740659061231274
0,0751607371317228
0,0717834667460846
0,0752990449441249
0,0749106497314913
0,072380296749634
0,0745309405984156
0,0721260102352159
0,0763943563215059
0,0759843763267143
0,0747438473047309
0,076530123050643
0,0724741005511475
0,0738198934889312
0,071432435745506
0,0762351288172944
0,0710672483317168
0,0722042903294694
0,0730021519432249
0,0720254192080168
0,0715899529091111
0,0705478270725264
0,0692573773446389
0,0719157277084209
0,0696206644989392
0,0691653713993504
0,0666991206884536
0,0702118356150999
0,0650669419472532
0,0690083937188702
0,0674346311525387
0,0653932760870797
0,0625813403032992
0,0633452493382303
0,0651594543429112
0,0635920894118013
0,0571671163417663
0,0599501369909444
0,0609119862545517
0,0637387075807361
0,064021167063954
0,0640662205760536
0,0580313109897672
0,0565971926854299
0,0664933795230132
0,0634196252036986
0,0549180911301779
0,0618573325427076
0,0625698695986345
0,0558669306078802
0,0578987835384746
0,061685579186089
0,0591062382951737
0,070251589801044
0,0566220780451507
0,0650075896870008
0,0627027638586919
0,0601981022688545
0,0642609458147829
0,0649651124899637
0,0591413517443511
0,0624332683970061
0,0613238147161745
0,0586627351308809
0,0627741732777814
0,0607408218445699
0,0592213005864045
0,0604365296692704
0,0605874664602348
0,0652395358851102
0,0620672178510066
0,0641099393354511
0,0660172608906255
0,0634196691469723
0,0610657500793482
0,0596879907796497
0,0615510335851214
0,0625086971259712
0,0565972302507077
0,0613731428331485
0,0589295188654323
0,0587475028414492
0,0524871157363773
0,0585224827908288
0,0602295092572308
0,061347943040569
0,0537874948636037
0,0583647071580726
0,0644871147184997
0,0602069143042032
0,0521009931898688
0,0595286993215454
0,0602224223433359
0,0600935173647114
0,0574679677757068
0,0604081845966047
0,0576979054493134
0,0571108355672493
0,0577867175870915
0,0556870020060131
0,0564780409903338
0,0591164853463315
0,0600471975565441
0,055890384793123
0,0609039251228935
0,0568625002020576
0,0580663599133397
0,0582835062794263
0,0561604717556993
0,0564276528848023
0,057107590827397
0,0589260383651608
0,0565551465209018
0,0588524083462718
0,0569989585159202
0,0570529774394644
0,0556541485172328
0,057827713810207
0,0584592083313163
0,0587228882872041
0,0595676521848081
0,058116662874936
0,0596287012564009
0,0591672730398191
0,0583717193929784
0,057618371069194
0,0570052399203756
0,0579635142375194
0,0593638873380977
0,0575788122736353
0,0570100587859839
0,0597697348045139
0,0601051194997506
0,0585294290363477
0,0597761406457783
0,060911259231501
0,0586739250402125
0,0565735683221443
0,0582507102710513
0,0586353991390969
0,0569059374518504
0,0584142961655214
0,0587773695675213
0,0599083999013716
0,0582741426007316
0,0585787610192957
0,0618464748047561
0,0594779003684409
0,0603515632987237
0,0603162496879755
0,0577898919060932
0,0609173804829916
0,0585085510837281
0,0588836319347215
0,0600745060534621
0,0591381090235189
0,0583133715684431
0,0582425269446407
0,0608457262547751
0,0593086605066293
0,0577237743536447
0,0594770931923535
0,0580315520975924
0,0587597690268312
0,0569824213983608
0,0596284316660904
0,0574692012860622
0,058140748049853
0,0584562624686444
0,0621365544021939
0,055607567770687
0,0551860132192446
0,0585760720356144
0,0574366561429745
0,055911407867695
0,0603321802053296
0,0582252154498264
0,0560294740010849
0,0573523445947501
0,0584776501604927
0,0599155871130618
0,0600103558945957
0,0568326621366171
0,0581543930527261
0,0572243297979358
0,0604603474465072
0,0606864184464949
0,0598146499537682
0,0572356251161347
0,060370039544412
0,0578369372598921
0,0586364413505616
0,0572905964396082
0,058912625359527
0,0614866213687419
0,0630227764899743
0,0542574364598975
0,0613445907638958
0,0604826532407651
0,0578308938823813
0,0606349508565168
0,0580479763222402
0,0585233470284671
0,0597787391274238
0,0599425131621157
0,0578374164508256
0,0581740424334871
0,059863405641428
0,0592552073011254
0,0603669503495458
0,0590129440361952
0,0635290160471444
0,0599402303115371
0,0610037709715554
0,0594613089834631
0,0607851920512013
0,0606440996192806
0,0600053523043794
0,0625442557596702
0,0589292939109207
0,0604353238759682
0,0602534634911686
0,0603735285411364
0,0599950304052963
0,060976210826325
0,0601255979045507
0,0592691628300991
0,0608069151303182
0,0623110712057412
0,0629688808767637
0,0612130293651212
0,0589246955275361
0,0608478606476759
0,0607907716807143
0,0614206349888331
0,0622164781595352
0,0589375998277961
0,0603802040199412
0,0633701442008069
0,0585858144936955
0,0612271190883734
0,0609767256522938
0,06331044047742
0,0610126157548283
0,0602676768226807
0,058005153391033
0,0620454028932432
0,0624718332712325
0,0597970960082702
0,0610960269841616
0,062424184685059
0,0624154635614984
0,0601219918266406
0,0648318314444915
0,0631759106432824
0,0602571009684302
0,0619984692085143
0,0630741024297872
0,0634548931187427
0,062574255749698
0,0647559847353288
0,0652041879942732
0,0601889111135005
0,0644601509898276
0,0627565927983386
0,062478730683387
0,061964068477521
0,0637316541002086
0,0621246343640535
0,063796059574634
0,0615788383896323
0,0645455668078391
0,0638171990578397
0,0626896314787519
0,0626807952566848
0,0633017000118208
0,0631886727915396
0,0633589639951493
0,0616983166445899
0,0629300847504965
0,064570116503458
0,0623572285803951
0,0640514983633506
0,0622560832064424
0,0615414790957557
0,0645948753248493
0,0620133724380013
0,0628012813623982
0,061048382394333
0,0613745118359986
0,0609917335954053
0,0606167295250165
0,0629681009571429
0,0612510906053453
0,0615699921220313
0,0613023533421748
0,0607325467963399
0,0609853448481106
0,0610313194416082
0,0615079813307888
0,0582777353593818
0,0598339818643417
0,0594341582664899
0,0592296206951605
0,0593768891467071
0,0607205904850738
0,057836445167236
0,0587314747791825
0,0599306516304383
0,0611746232720438
0,0601270279916094
0,058126527068058
0,0595911267970312
0,0600259986154598
0,0590049799564097
0,057908308735583
0,0602560725899019
0,0593078890335862
0,057631136104815
0,05863821700714
0,0597440070118987
0,059399842653656
0,0612586311285702
0,0588145232169893
0,0588282345115586
0,0567871829133794
0,0597377046164379
0,0572718630086705
0,0591935966952929
0,0589653227134625
0,0540387761037194
0,0584464393458689
0,0588586883821543
0,0572505935081327
0,0560490160206179
0,0589948529936346
0,0572759761620903
0,0584333899518285
0,0557925307085681
0,0554691660792126
0,0566698756218134
0,057270800739294
0,0551041781008271
0,0576211782029416
0,0558169245139053
0,0567659198286425
0,0578914261360124
0,0590394225432858
0,0575526275526653
0,0562436091890014
0,0583167866066397
0,0552298760757091
0,055819411845975
0,0562959813427067
0,0570003023241448
0,0568619355795167
0,0559506377622006
0,054981330116889
0,0557165996409092
0,0567093084606183
0,0530092213935002
0,0538172906011781
0,0531636249536322
0,0566849726812083
0,0545460611269722
0,0541218828309919
0,0583140309972609
0,0582204408981083
0,0550794918996945
0,0556690027263763
0,0562385979677758
0,055537964249717
0,0550518606218702
0,0556951001195622
0,0551735958094332
0,0546097055988332
0,0546775524661798
0,0559384503113787
0,0576068104038852
0,0559581475345297
0,055644384238842
0,0553800094213467
0,0551462937564079
0,0541480509207422
0,0511570965947855
0,0527687883416641
0,0542610713431717
0,0557470186737782
0,0530192339242652
0,054157074835528
0,0506813190064301
0,055158199311827
0,0549161987235791
0,0533521844303522
0,0511638797565346
0,0527918344656531
0,0531371494011203
0,0530014404226264
0,0529416516939239
0,0525934987738713
0,0507649265711301
0,0512679070719024
0,0520823236804178
0,0542612403875198
0,049501857045391
0,0505826989663258
0,0507332834078963
0,0513686346896879
0,0507456180456172
0,0520165224366819
0,0507031134157616
0,051247576102085
0,0502165240603705
0,0495296773441779
0,0472988551982172
0,048604018084173
0,0477420749479551
0,0517289664119309
0,0506609803863868
0,0488422945439276
0,0479252552143252
0,0488964300655018
0,0492118130455769
0,0490455536848949
0,0467578870550945
0,047478408110595
0,0465134698457045
0,0471866129526131
0,0458418602457081
0,0462272399702321
0,0474228717270913
0,0473416325202481
0,0495025378121838
0,0493174067221064
0,0472605761873389
0,0473050242411298
0,0444094776389383
0,0463181050086116
0,0452012617479212
0,0454492099878524
0,0460843718013977
0,0441085960950087
0,0453522076066784
0,0423713878170908
0,0434814925375969
0,04631167595527
0,0456857353752322
0,0448786913418743
0,0444605944791584
0,044512901722197
0,045133465228292
0,0445839689760139
0,0436729792679491
0,0433879715237909
0,045770950378322
0,0448801024646476
0,0434799949624043
0,0435488947419099
0,044924859143203
0,0433296543845468
0,0445176021288374
0,043189569358954
0,0433216318634686
0,0436252588555296
0,0453049123011901
0,0445525781668648
0,045558658157297
0,0432966057614882
0,0425903019116421
0,0416258273941958
0,0421048089120609
0,0442212811800598
0,0429945417580106
0,042696809492094
0,0428572494786864
0,0423583404257103
0,0418597287962829
0,0407212424837284
0,0421038121050753
0,041882204745563
0,0407618627389606
0,0435209870952242
0,0417998207380102
0,0406330177332003
0,039653576575523
0,0411885509532671
0,0405326075627481
0,044394946774594
0,0417460486342866
0,044242023216976
0,04181749944756
0,0415755651508862
0,0418587165331141
0,0387903567492847
0,0392968381796046
0,0400771748042725
0,0359853355254361
0,0424512847735092
0,0415004035651472
0,0408176214215046
0,0404570311457307
0,0407224999304933
0,040492733119594
0,0417847397976324
0,0412783350986039
0,0403520281921869
0,0401867139992202
0,0408904119528292
0,0410148970892247
0,0392729244613033
0,0395048074051194
0,0401838508268875
0,0396059679050652
0,0403114185892176
0,0402029262762769
0,040494128721719
0,0385138475941495
0,0358625486992481
0,0373808832040753
0,0386912578760631
0,0388308993821582
0,0414311247253878
0,0327893369984758
0,040769329788967
0,0423137894929487
0,0402907027117054
0,0409067834414521
0,0384485652120463
0,040181754235269
0,0390109318480974
0,0394459257877004
0,0361040054018385
0,0377651675140232
0,0382346779210151
0,039952494996344
0,0398473317700162
0,0391601503040313
0,0401720626249471
0,0381569193850743
0,0365584211424009
0,0380037984257985
0,0393235746568457
0,0391957426784151
0,0395876908094626
0,0370535506417102
0,0389629101875629
0,0405115018448576
0,0365156301059626
0,0390153880207413
0,0405578357928219
0,0404095629397195
0,0404176581267476
0,0402379715479933
0,0327676851822253
0,039628499793418
0,0400650455265348
0,0394316202377859
0,0390038953933589
0,0376734977366276
0,0409634017663819
0,0398228785198169
0,0389673970108595
0,0408666129147089
0,0404471307785112
0,0371674978662399
0,0375150942649943
0,0418531807556076
0,040335216710703
0,0368404134189946
0,0389234709717425
0,0392395667309378
0,039895009991079
0,0382170669890285
0,0393706414399908
0,0339367982827724
0,0318465417700136
0,0396116762053884
0,0376903278384177
0,0388018022282192
0,0379011906463827
0,0395780746540426
0,0392580589196476
0,0418791597107985
0,0406554549145386
0,0389748025515095
0,0379577910983269
0,0384468761882907
0,0399790521494163
0,0385083952715853
0,0357559761369113
0,0398494737457455
0,0384795056686194
0,0389718290049825
0,0373934178380237
0,0411927243844939
0,0397685705653908
0,0401830126173203
0,0358320120071704
0,0368279860811503
0,0392326111891328
0,041880804144658
0,0291605651558441
0,0264652710777843
0,0491132145560471
0,0389800659013486
0,0432305758303907
0,0378540554477915
0,041107541167615
0,0419722307083895
0,036742482078713
0,0383767519132923
0,0411401737826571
0,0399338509879068
0,0400969098364918
0,0395472784477677
0,0445552435555721
0,0392775745673542
0,0288011807797521
0,0386513883731121
0,0423915442930737
0,0416146989510666
0,0408632361195586
0,0299099594932386
0,0469031241358903
0,0435340651752663
0,0416088274778079
0,0425690419571655
0,0426504897279706
0,0420069637010371
0,0435779456554518
0,0398196875301499
0,0381678776745959
0,0425032141394105
0,0413916494265211
0,0433299239281141
0,0408203446137931
0,0416328173227334
0,0403365078638429
0,0391238199788928
0,0465757657012242
0,0429916550658
0,0415073766995213
0,0450059846135704
0,0417593108947208
0,0425089628657147
0,0458313907439438
0,0425588922363537
0,0401776242171422
0,0486366547000657
0,0409966801314528
0,0395653265144328
0,0473659036252814
0,0429259034332325
0,0397963922323425
0,0391897256011281
0,0458196280336616
0,0404936908594452
0,0269491957251751
0,0512508776258708
0,039411558385811
0,0495622401110017
0,0448657881916134
0,0469965690496743
0,0464937264633801
0,0499513691965839
0,0404670093053299
0,0486582342094348
0,0482344765879903
0,0444393419407563
0,0450219289304998
0,0405882940226321
0,0508897683529982
0,0449205412627734
0,0480864026601544
0,051334711689433
0,0458521921486938
0,0484080299760357
0,0519833562414259
0,0325323087941847
0,0423658921890734
0,048611536495002
0,0506158884581165
0,0546800638517605
0,0396355092016236
0,0551180639961179
0,055946793321569
0,0497709316633009
0,053727395517382
0,0525640992845204
0,0515226560762632
0,0394737065621426
0,0556785237539011
0,0561757837474983
0,0498130309633529
0,055660732672839
0,0466139105638717
0,0498962488847942
0,0577577313165981
0,0537854261645623
0,0523791546634451
0,056949161552653
0,0438583261237403
0,0423244572822215
0,0621772877297568
0,0436566195546477
0,0591175359356521
0,0529742621271829
0,0585494704273258
0,0574466565241514
0,0588894635269431
0,0516912525889109
0,0622838386104027
0,0638729524924178
0,0580473702957757
0,0478457427470647
0,0760550984356097
0,0624003243341725
0,064940432107703
0,0659800373624232
0,0571584842553661
0,0506577889125786
0,0722531737779366
0,0751748938552339
0,0740145345433571
0,0618605524286301
0,0742576869950993
0,0782177291358895
0,0748000761039445
0,0762672775916023
0,0786770864548792
0,0817519198939766
0,0764136425696109
0,0817426032208477
0,0854290714127554
0,0834054176896936
0,0867964679792961
0,0755083093865981
0,0703564524718198
0,0717045634767886
0,0989169349327392
0,0821022175691421
0,0906424653610237
0,0973529091621999
0,0939488186287678
0,098451031167303
0,0931040403286721
0,0949515225760948
0,0977468068617767
0,0994957233045031
0,0947267207560338
0,0951397259963565
0,106733841353276
0,098070414979587
0,113794922912849
0,10726207544724
0,104192480401863
0,0679726089430102
0,146699048424235
0,131186446350909
0,11761828963676
0,116444614019771
0,0944319921234539
0,148859942176666
0,138485426707934
0,138552064425185
0,144092889167481
0,146250756796878
0,142845097138591
0,152444971308416
0,155189108866736
0,163807239262963
0,168609568889402
0,157376403816601
0,150553381898971
0,179137326352963
0,190471305093664
0,202460840236197
0,186029503193658
0,190298880019018
0,210891110395491
0,209191271500116
0,215352028995769
0,218890691728139
0,203897214709714
0,249761357881512
0,240820766921619
0,242626279430883
0,237891036428261
0,263809242327685
0,247670609260239
0,25033236890634
0,285090612752065
0,274591768112853
0,287720179319667
0,286399145781002
0,297439090806509
0,285495367515193
0,307325060107753
0,317620866477998
0,308963097378929
0,316121419821623
0,315565546253464
0,321278726687558
0,324631372099144
0,328873560345578
0,316951545254253
0,313932095489897
0,320606926784723
0,376597243564555
0,359530254430285
0,340080300796066
0,345104819569466
0,331025851739463
0,340626307561204
0,334849969377936
0,337371454692922
0,362244841990478
0,345401648108164
0,350310504610786
0,349255192092828
0,355272446398788
0,351565761767314
0,354797052843361
0,342358784167775
0,344240372128959
0,347818575515858
0,336382817826861
0,399319963147017
0,359041769246233
0,348135389689391
0,349862719067899
0,354392712825173
0,348912147706091
0,350115270149572
0,340529111159329
0,358326662999511
0,347601035247971
0,346955548053849
0,335064342028167
0,332014670123587
0,351523979197598
0,337179202488251
0,339027836984277
0,334409204355785
0,334403480935284
0,321986278672015
0,311928580621284
0,366878626253782
0,327060352162028
0,321915194257626
0,327877001544841
0,320630405037693
0,326584076555446
0,321091141835996
0,313665594105938
0,318847115619703
0,314181565399434
0,318176445413253
0,316258397153363
0,315946926048826
0,3151849236792
0,312201470513535
0,315145005078015
0,309047065485822
0,314503242553717
0,316454241980602
0,317846605021782
0,313570005008046
0,312316440492443
0,312866565826245
0,314613288838401
0,321358513096961
0,314179354171722
0,313240812836204
0,316608226021061
0,310925823436651
0,308214709483918
0,30497963886239
0,307550056959966
0,306196408530261
0,309448743335411
0,302386438625973
0,304130627237918
0,30520671391968
0,307433099024596
0,304298863895232
0,302555145174451
0,297224435695215
0,297334638932581
0,282848001646984
0,301476652537071
0,313430234603555
0,292408739179659
0,290067478377823
0,287384131422562
0,291898952502057
0,271208506256826
0,274930125518051
0,286667154437752
0,273371507732343
0,270353418932591
0,266369593430876
0,27215687203677
0,273036632620451
0,26508718884731
0,260295725157421
0,246482738955205
0,23028491857179
0,264162709089982
0,228754650015534
0,276840028165184
0,258087221864647
0,241559352950039
0,228540609134022
0,261165623519354
0,248115584368463
0,245016260789608
0,22961229390743
0,228777142104878
0,244142481732133
0,235970063977446
0,232763783260265
0,222885876472967
0,219804143763157
0,238093083463301
0,215679325353857
0,205826374348629
0,215633449592674
0,202999835538614
0,21231932271224
0,237530073851295
0,226301708828582
0,21238404158792
0,209316624335995
0,205580229754702
0,193535187647867
0,216063936904111
0,202156317419405
0,200961182313722
0,2039436807909
0,194830035266443
0,189518779382666
0,192742068143465
0,193650861796333
0,176399482814327
0,194489781162079
0,186970889593655
0,171951108577921
0,176853877541587
0,170550751724252
0,195099220192725
0,187677438498206
0,176440778137627
0,163844926038233
0,189655981033841
0,174753014747489
0,180409247132692
0,181943321078923
0,166143951381518
0,179755414293966
0,1738518958329
0,163777463161664
0,169257044010851
0,145887315093884
0,160830953876418
0,16755627594867
0,183391952323306
0,180569278244132
0,171483678202028
0,170068439532516
0,171600704152594
0,175994690251896
0,169929464267121
0,169669529741963
0,184313023501528
0,154793541904951
0,180250533407446
0,186460510914432
0,181963195497533
0,184046631760051
0,184054928297787
0,17847479920693
0,184260451532175
0,193173139881425
0,198674758287363
0,188749980391826
0,206422092225766
0,208640575722862
0,215069757307168
0,213211684652843
0,220024070260489
0,215984035329953
0,222580925889077
0,22656556441905
0,233550472641135
0,237751272635739
0,238559714577963
0,236750823545169
0,271640169805649
0,252615650658891
0,253313635357335
0,263717493254365
0,278322417774204
0,285302903977179
0,283825495521142
0,29116240333318
0,291504739251223
0,298335341673751
0,304933354217319
0,296232828717785
0,320283997463709
0,320614635684373
0,326003478702372
0,324207800143191
0,324988126031363
0,31576658173212
0,319605064337859
0,323133490558851
0,329213716629809
0,360582277654906
0,343467826016048
0,348524202422123
0,347345689144939
0,353199998872344
0,354163172710285
0,353735319949776
0,361310712940889
0,34810594875231
0,368536099793663
0,369320591941502
0,364390778359709
0,371583462245774
0,371537410919034
0,371462335592211
0,37711140947135
0,383182098945494
0,384373994714893
0,385825391791054
0,387324359065543
0,367852170252168
0,391175469459274
0,407493365328915
0,401030831911016
0,404678414062076
0,40299354170267
0,41160024150288
0,40748567009014
0,420634776867978
0,421354996539092
0,417927049252131
0,431045562741611
0,428766132961055
0,426326808030555
0,427566480732339
0,447351790593496
0,436762584977341
0,446532530585046
0,439087742372966
0,430159963211658
0,462811851509153
0,443626362554211
0,451233342569777
0,455636982445097
0,450146684432871
0,46023019002553
0,462692152514371
0,46060579221661
0,460977902548019
0,461763192786843
0,461193215244908
0,458473513324962
0,463309138315362
0,469270812666539
0,4508071470216
0,468725743097849
0,464224503375752
0,462171091255362
0,457150697576723
0,458568503510368
0,451715191411406
0,460168030602765
0,458614989687981
0,449109666571755
0,450284434262809
0,451302252120625
0,461663356048771
0,46122721986419
0,455257782398256
0,454679482643216
0,45693520680879
0,463445570065443
0,45900074168327
0,452106320004411
0,470050191327686
0,467933371371036
0,464370861768862
0,467863092572761
0,468679934760564
0,467426318562498
0,472747399350107
0,475614471455901
0,480561454970808
0,477884879263741
0,482940636598317
0,482918408347068
0,476466931564114
0,48301511442142
0,480830587064018
0,486767339665608
0,481106395240785
0,480603512214131
0,473321013066717
0,47368603784425
0,474046835272829
0,470142933913399
0,459594364728929
0,463463247905169
0,457325969325937
0,449813969267621
0,453456496354511
0,445230959860518
0,438171985927814
0,447235239425087
0,436243523785042
0,434237072710527
0,4279634263586
0,430251167059517
0,425621150871055
0,421546111498272
0,418909633799033
0,420548081323229
0,417606162396646
0,416993824890212
0,413918634840435
0,41774422015006
0,410777369526421
0,41337832657582
0,408999381887103
0,412253721068441
0,409820090564076
0,410636908421889
0,408737365982192
0,405261057799045
0,399417717189866
0,403159986892558
0,407848518337418
0,407300740730742
0,405031816876922
0,410133939431204
0,409993078404729
0,40748687553854
0,402524589630767
0,406882996860873
0,405449162609145
0,401843086266161
0,405180553493445
0,40472944322451
0,405480092063459
0,406443251869902
0,402180202410805
0,402517434791186
0,402506446669922
0,400679574891571
0,398607548466678
0,402208217784164
0,400723739648952
0,402954122005536
0,400339232868156
0,40163700242036
0,405403216978323
0,40398056635269
0,400935776776665
0,404630411828165
0,399978848717161
0,403554763891562
0,40266297105969
0,398056467397945
0,399664764223234
0,401162586182593
0,399352634075761
0,400100650270964
0,396332552094917
0,399403520901188
0,39252661582345
0,389760244173911
0,388141930499357
0,388995829778268
0,385691251110721
0,381296948701343
0,377160478895049
0,375376331577894
0,372082981076871
0,372689789550232
0,364430160743462
0,363627765478797
0,358219417966473
0,35624058382361
0,352336138017098
0,353483592281186
0,352696625901998
0,348374247070972
0,348062900625392
0,348788097550213
0,343276723946036
0,34889417965999
0,34437943351464
0,344594067434476
0,344840652908097
0,34482686690125
0,347270850278144
0,349367887948092
0,345399955043579
0,347641092133018
0,346441472217364
0,348492312728654
0,348218405757756
0,350491331133858
0,352153467833758
0,355877510687988
0,354251944840625
0,358379753304383
0,355440584988055
0,360423562834777
0,36167462042967
0,364095443896524
0,364372762701343
0,365517043431057
0,365337943513635
0,368358430033519
0,365894526745453
0,36891505197333
0,366805260443606
0,369659380774843
0,368521350891968
0,374901918650704
0,366686778033345
0,366103426768109
0,365767396595395
0,369862870981395
0,365334947642556
0,364237285865884
0,363437295253782
0,360254565644849
0,361341683720648
0,361972786743153
0,357572664770046
0,357655419801366
0,356667249392733
0,356634022551662
0,350950146996246
0,353274211878293
0,349573842695118
0,349583391525118
0,348299511033196
0,347885800318851
0,345228394733791
0,341910867347692
0,344696763643464
0,341775742339371
0,342247901263452
0,33972383181761
0,34199295708083
0,33760956172685
0,337239557275474
0,338450146348682
0,335504941500563
0,334602570845299
0,331870900351659
0,336954970021902
0,329883910262224
0,331323259354982
0,329945857133712
0,327169475097228
0,328228851632107
0,326918616470743
0,321536681399255
0,321721914302291
0,31938360000695
0,317749915505444
0,312361320382473
0,312471810512149
0,311398784031128
0,3075355868996
0,305302975969022
0,302424462591212
0,30036229626522
0,301123667986835
0,300539661719687
0,297169282799283
0,298396968314669
0,29592688310572
0,294630995932813
0,295519465077418
0,297906230468735
0,297384546912056
0,292736411171168
0,290747705806977
0,290867156675466
0,288318974260047
0,284679824453623
0,283383906107907
0,280345040405005
0,277434930034537
0,273401030394447
0,270849287377309
0,266653760064143
0,264071331600179
0,263002899524318
0,262427602121528
0,264299289589179
0,264496440808646
0,265534729401119
0,270198643884941
0,273808211118085
0,27993511113068
0,288390783929777
0,294991062562472
0,308685767175323
0,317314144477328
0,329521310017909
0,338337603308986
0,355156129916514
0,367788366141364
0,382262383190438
0,396583026233721
0,412692679281418
0,423916546416701
0,438785699498054
0,456515857251619
0,467354736851204
0,481278759613136
0,49263256553946
0,502972396499863
0,521924198284157
0,532354859674615
0,539366866887752
0,550760370446705
0,561222206708737
0,571094821359881
0,582012645374914
0,584963707742823
0,59256132381142
0,605710254045781
0,609317374826368
0,616137556230011
0,616931369243767
0,617973382502126
0,622285102600281
0,630037305217054
0,625702532070679
0,629453039695808
0,626155076714072
0,63190200870624
0,63003823884148
0,630263555111193
0,631390769523595
0,636331143063289
0,635869853669653
0,636395135781857
0,637271006951733
0,642945446078501
0,64539497287959
0,650360722916012
0,654041328211467
0,657463191104181
0,667514443708579
0,668533814484305
0,671034075854549
0,683333516821539
0,689798878381895
0,696696663705058
0,707227876729071
0,711318048573879
0,725277230269929
0,727621747280403
0,738914771450552
0,755689412241405
0,761472743440034
0,765279148420923
0,780348993542234
0,795775439299367
0,791400696666329
0,793709850677992
0,805128901435116
0,812570929425153
0,817852160875614
0,808672754916765
0,81448483715652
0,803910513453513
0,804915344731547
0,805787008298209
0,800622819994824
0,794503446360777
0,794372155962962
0,797973713761108
0,796635536575766
0,807143944930735
0,817493971612694
0,819696656061074
0,828310607985768
0,84260611143229
0,851108492351692
0,871026984069299
0,884044124222287
0,899164997453969
0,914099973820656
0,923945662336935
0,937528492510707
0,954466235596282
0,959718641174582
0,977119423781519
0,993579778388742
1,00592381291969
1,02020432929814
1,03617974800445
1,04906876786308
1,08164566384439
1,07599575207046
1,11451255234503
1,13796638298141
1,14485521193236
1,15721651831462
1,19432213715975
1,21264426161452
1,21487126730902
1,22182993771862
1,2541404268039
1,24855205976315
1,24626739799508
1,30399939792367
1,30172521260507
1,31687194691478
1,30189731191997
1,33322223766843
1,32616066390783
1,31779532127724
1,36143055131561
1,32130706448916
1,33765024645147
1,34456290974254
1,32721551952204
1,3307034099349
1,31837723611896
1,32571596129715
1,28690423379744
1,30852424347079
1,31122727227328
1,28421250035898
1,29981892742312
1,30492188359429
1,3136841845163
1,32279058376879
1,32077205652101
1,3321629940329
1,35451827332874
1,3684382920227
1,37931825571229
1,41443602397873
1,3946669487882
1,39528380195786
1,3912381979157
1,47235705852593
1,44166442785169
1,43780859539573
1,43299880494834
1,45813551701676
1,40701932046784
1,44121914038694
1,47969780508307
1,46392815171236
1,46956291267272
1,49424160190992
1,48472704180176
1,47349418967509
1,47073047937249
1,49219994667823
1,47202695488867
1,43946077347775
1,39981204068728
1,49413451984571
1,45744638510072
1,47904184993211
1,47530241605357
1,45423023674008
1,46079954805132
1,44640570314356
1,42064520222617
1,42583602876173
1,39122873302955
1,40172049725972
1,41131508610837
1,36650739695778
1,30745735513206
1,32249957089568
1,28452506591925
1,25986995580949
1,22983315549297
1,17979142370154
1,16904331623396
1,12896119814792
1,10048536978561
1,06484485262495
1,01575821169431
0,98661096914498
0,967805923837908
0,94247217817741
0,9277561196767
0,910996599091175
0,896138979491478
0,887281045556683
0,87446073700718
0,884698424150046
0,876389945373849
0,874035145686685
0,862574943682721
0,850582336368471
0,844371911267313
0,841007428747119
0,822713947259111
0,811805533975609
0,822425317560418
0,799403396519366
0,790066363391132
0,776541314764463
0,7525710435875
0,74600840693581
0,713182183893397
0,704903939497592
0,681866709738683
0,66899713973422
0,646214136677452
0,618481555369376
0,6072890754819
0,574033819476226
0,549909906628667
0,52801815929838
0,507010286997263
0,483688567616003
0,466768665223107
0,442540613467314
0,430841684166842
0,411933146207209
0,396207837848586
0,38229580303857
0,366866071273261
0,359386006998848
0,346774731866471
0,332759121555543
0,327902865079194
0,322188569270441
0,316775303969145
0,316725795389078
0,311574376555073
0,30647326005826
0,303425906726013
0,305790554639252
0,30042670320751
0,298644775214173
0,302090153247282
0,303090153309551
0,302824344588885
0,306796614513745
0,303852150130832
0,306961573598932
0,308600360161469
0,311987750547513
0,306009496096059
0,308075593789075
0,312749053564348
0,31104093986889
0,307570843928047
0,304602442402865
0,300148805489193
0,2983486788432
0,292888478984076
0,291380151545466
0,292209594536271
0,285347065172082
0,28761724407438
0,287770506153023
0,285309578214439
0,286940470334268
0,283456422835205
0,291858721471426
0,286258636330506
0,290359728346438
0,286631604639527
0,293306614165665
0,298489326327289
0,298164434341991
0,298889687716355
0,299261958582043
0,304629421774182
0,304570166198433
0,312833006670462
0,31341452575118
0,307092804764734
0,308941575196906
0,315276343799758
0,30875564320502
0,313187466913881
0,312706625723484
0,313098172450754
0,312135017987738
0,326005335304058
0,320967256180256
0,320485271262558
0,321511565147677
0,323864781941491
0,3266674890226
0,330739757822394
0,329843754059378
0,338960288695643
0,346818450045341
0,358587721351537
0,370655674725259
0,378044753522022
0,381475050102263
0,391976621404469
0,403218410401446
0,407761050264874
0,414404246274681
0,420465462618245
0,42672712980714
0,429586113447973
0,425523025676971
0,425226718418344
0,415337239625279
0,411037063518008
0,413385122697305
0,398708734231429
0,388826770089753
0,38418901553541
0,383976531155658
0,381672342887102
0,383223641538267
0,377464831794726
0,387892234837234
0,384524626560399
0,388447712749949
0,384182740870484
0,380016954314992
0,387063490556623
0,380402820048299
0,375086994922301
0,37803421873815
0,365138495184189
0,375835225828754
0,359436433503826
0,354738475809281
0,350447077813396
0,353317289280796
0,351486880848219
0,340199645169161
0,339603002413419
0,342334802052545
0,338627878565992
0,33251556938013
0,331289072257658
0,327219721916963
0,329930223851367
0,33705546727556
0,325647926743139
0,315622247039696
0,317431926341562
0,318428495608756
0,316211304217406
0,320914871610385
0,316254741223636
0,311496902243498
0,303569443986871
0,302901031217015
0,301729725352448
0,306623850482518
0,305413200299014
0,294862268401619
0,300469335609029
0,302062260175332
0,300886007209187
0,29459381442063
0,298230883314413
0,288461059092823
0,284485074593035
0,290135313871457
0,276551195962161
0,282657495507769
0,28209569850838
0,278962722099477
0,285253383233504
0,288063696073233
0,287843943962088
0,281843119779016
0,280866241258401
0,282472579235052
0,28076525965399
0,283559102623648
0,28151544308388
0,293320084536548
0,283925447009647
0,276063473131235
0,280139915912279
0,283819513972028
0,282865828683994
0,28437609918052
0,289912100579096
0,294058173331905
0,279909405097798
0,290802709568878
0,294595808041183
0,297137298299426
0,295415692265543
0,303029802794349
0,314658867550574
0,305675908079398
0,298978934809235
0,322351932367875
0,31635440018424
0,328395962451204
0,322090000540398
0,33308350344082
0,334152702885101
0,320435321991461
0,33503404873619
0,348742024003664
0,359390403085626
0,381575126387138
0,371481060507734
0,386615647309971
0,386089509329181
0,396371424228044
0,421427393049323
0,424174560846588
0,432530562573015
0,450853172033024
0,455441318734194
0,467804292737774
0,48766929963753
0,491626989966284
0,482098687759089
0,491626643510089
0,514066276229553
0,518018954642532
0,512573951857754
0,527194873258466
0,496484948817035
0,493723778129822
0,487786328117706
0,494396947892105
0,472975674388816
0,503182216486566
0,476248413812526
0,510733968023603
0,477315459442156
0,487475249235149
0,472702054271294
0,465897891450696
0,471150644422971
0,475632127483875
0,471513093091474
0,478797604775742
0,470308587913128
0,445901120113571
0,450912773888042
0,467595953112114
0,445570267017362
0,456499859860913
0,444454183363869
0,452666585679569
0,464673266937586
0,468034627826394
0,450136293522333
0,414589959049898
0,405227659206852
0,427607411185863
0,421852599511237
0,419635690962229
0,426428251578986
0,411453328405924
0,424500654650104
0,423593211541631
0,420168762212443
0,45095659247243
0,417238383906043
0,426183484887844
0,436440795877822
0,461929754780277
0,444960102072906
0,450925244934097
0,431372995614605
0,415205203035957
0,428620193664271
0,453654988375976
0,436207042979183
0,42536105073078
0,460268809810837
0,458951254856535
0,438684212939049
0,454068535218756
0,468758040871625
0,483628169281077
0,461073056523453
0,506057636115872
0,463971100252886
0,499746958569281
0,468302904205379
0,466533690847046
0,449095332762761
0,484841568739012
0,494702779717716
0,516332425951832
0,486077895428555
0,47991249765472
0,460359465180124
0,496807268782135
0,505746189889139
0,51835461724091
0,57111522555159
0,54657575673955
0,56364796909248
0,604258899833068
0,54593092027584
0,525968868776744
0,580420193922384
0,578102131294878
0,578344059517637
0,658177955408013
0,602986684454917
0,640777519058959
0,599279924075073
0,640661556588081
0,599967126034569
0,620555128063659
0,621287070615258
0,566840034551278
0,537163368965696
0,623240742698044
0,592624704061535
0,573436249545169
0,573479073054532
0,522772729728255
0,543407251475788
0,611653984793441
0,514205419086311
0,588059811533164
0,537095522365011
0,462471538373703
0,504713869587489
0,593269239178952
0,526364763590098
0,549610860940046
0,441641283183096
0,574172547110435
0,488436791901753
0,472025176389825
0,469093489649604
0,590218547452918
0,620449087206957
0,526196718700012
0,529333807396121
0,576213607407121
0,577015331007385
0,613537718183381
0,564382060797119
0,717073583999621
0,581093680655416
1,02594452820862
0,482693689557614
0,502939136930301
0,606896965074036
0,630724449123476
0,554018163753564
0,662067383261365
0,647270572123369
0,647530702026048
0,573466595693656
0,827789059619668
0,751779784596806
0,484308776305727
0,385967182340307
0,715403453494536
0,480088717214226
0,406839603231639
0,98929318259656
0,825450248769973
0,554088525512485
